 #
 # Subroutine ELSEPA. Elastic scattering of electrons and positrons
 #                    by neutral atoms and positive ions
 #
 # Projectile: positron
 # Kinetic energy = 7.00000E+06 eV = 2.57245E+05 a.u.
 #
 # WARNING: High-energy factorization with free-atom DF screening.
 #          Absorption, polarization and exchange corrections are
 #          switched off.
 #          Phase shifts are calculated for the bare nucleus.
 #          Scattering amplitudes are not evaluated.
 #
 # Element: Mo,  Z =  42,  atomic weight = 9.59400E+01 g/mol
 #
 # Nuclear model: Fermi distribution
 #                Average radius = 4.89836E-13 cm
 #                Skin thickness = 5.46000E-14 cm
 #
 # Number of electrons = 42
 #
 # Total elastic cross section = 4.07566E-18 cm**2 = 1.45545E-01 a0**2
 # 1st transport cross section = 4.42702E-23 cm**2 = 1.58092E-06 a0**2
 # 2nd transport cross section = 1.27844E-22 cm**2 = 4.56540E-06 a0**2
 #
 #
 # Differential cross section:                       MU=(1-COS(THETA))/2
 #
 #  THETA        MU          DCS          DCS        Sherman      error
 #  (deg)                 (cm**2/sr)   (a0**2/sr)    function
 #----------------------------------------------------------------------
0.00000E+00 2.23310E-12
7.61557E-13 2.23306E-12
1.18994E-12 2.23304E-12
1.71346E-12 2.23301E-12
2.33225E-12 2.23298E-12
3.04617E-12 2.23294E-12
3.85530E-12 2.23290E-12
4.75964E-12 2.23285E-12
5.75917E-12 2.23280E-12
6.85391E-12 2.23275E-12
8.04379E-12 2.23269E-12
9.32893E-12 2.23262E-12
1.07092E-11 2.23255E-12
1.21847E-11 2.23248E-12
1.37554E-11 2.23240E-12
1.54213E-11 2.23231E-12
1.71823E-11 2.23222E-12
1.90386E-11 2.23213E-12
2.09900E-11 2.23203E-12
2.30367E-11 2.23193E-12
2.51785E-11 2.23182E-12
2.74156E-11 2.23171E-12
2.97478E-11 2.23159E-12
3.21752E-11 2.23147E-12
3.46979E-11 2.23134E-12
3.73157E-11 2.23121E-12
4.00286E-11 2.23107E-12
4.28368E-11 2.23093E-12
4.57402E-11 2.23079E-12
4.87388E-11 2.23064E-12
5.18325E-11 2.23048E-12
5.50215E-11 2.23032E-12
5.83057E-11 2.23015E-12
6.16850E-11 2.22998E-12
6.51595E-11 2.22981E-12
6.87293E-11 2.22963E-12
7.23943E-11 2.22945E-12
7.61544E-11 2.22926E-12
1.18991E-10 2.22711E-12
1.71347E-10 2.22450E-12
2.33223E-10 2.22141E-12
3.04617E-10 2.21787E-12
3.85531E-10 2.21386E-12
4.75965E-10 2.20940E-12
5.75917E-10 2.20449E-12
6.85389E-10 2.19913E-12
8.04380E-10 2.19333E-12
9.32891E-10 2.18711E-12
1.07092E-09 2.18045E-12
1.21847E-09 2.17338E-12
1.37554E-09 2.16589E-12
1.54213E-09 2.15800E-12
1.71823E-09 2.14972E-12
1.90386E-09 2.14105E-12
2.09900E-09 2.13200E-12
2.30367E-09 2.12258E-12
2.51785E-09 2.11280E-12
2.74156E-09 2.10268E-12
2.97478E-09 2.09221E-12
3.21752E-09 2.08142E-12
3.46978E-09 2.07030E-12
3.73156E-09 2.05888E-12
4.00286E-09 2.04716E-12
4.28368E-09 2.03513E-12
4.57402E-09 2.02282E-12
4.87388E-09 2.01025E-12
5.18326E-09 1.99744E-12
5.50215E-09 1.98441E-12
5.83057E-09 1.97116E-12
6.16850E-09 1.95770E-12
6.51596E-09 1.94400E-12
6.87293E-09 1.93006E-12
7.23942E-09 1.91594E-12
7.61544E-09 1.90166E-12
1.18991E-08 1.75177E-12
1.71347E-08 1.59536E-12
2.33223E-08 1.44055E-12
3.04617E-08 1.29329E-12
3.85531E-08 1.15666E-12
4.75965E-08 1.03262E-12
5.75917E-08 9.21579E-13
6.85389E-08 8.22672E-13
8.04380E-08 7.35401E-13
9.32891E-08 6.58473E-13
1.07092E-07 5.90581E-13
1.21847E-07 5.30860E-13
1.37554E-07 4.78063E-13
1.54213E-07 4.31350E-13
1.71823E-07 3.90038E-13
1.90386E-07 3.53209E-13
2.09900E-07 3.20460E-13
2.30367E-07 2.91273E-13
2.51785E-07 2.65076E-13
2.74156E-07 2.41653E-13
2.97478E-07 2.20616E-13
3.21752E-07 2.01664E-13
3.46978E-07 1.84626E-13
3.73156E-07 1.69228E-13
4.00286E-07 1.55317E-13
4.28368E-07 1.42114E-13
4.57402E-07 1.30179E-13
4.87388E-07 1.19640E-13
5.18325E-07 1.10303E-13
5.50215E-07 1.02005E-13
5.83057E-07 9.46062E-14
6.16850E-07 8.79895E-14
6.51596E-07 8.17317E-14
6.87293E-07 7.56387E-14
7.23942E-07 7.01716E-14
7.61543E-07 6.52533E-14
1.18991E-06 3.40818E-14
1.71347E-06 1.97514E-14
2.33223E-06 1.24221E-14
3.04617E-06 8.29547E-15
3.85531E-06 5.74846E-15
4.75964E-06 4.09858E-15
5.75916E-06 2.98838E-15
6.85388E-06 2.21402E-15
8.04378E-06 1.66921E-15
9.32888E-06 1.27815E-15
1.07092E-05 9.92863E-16
1.21846E-05 7.82178E-16
1.37553E-05 6.24425E-16
1.54212E-05 5.04727E-16
1.71822E-05 4.12681E-16
1.90385E-05 3.40797E-16
2.09899E-05 2.84205E-16
2.30365E-05 2.39022E-16
2.51783E-05 2.02546E-16
2.74153E-05 1.72851E-16
2.97475E-05 1.48455E-16
3.21749E-05 1.28245E-16
3.46974E-05 1.11387E-16
3.73152E-05 9.72164E-17
4.00281E-05 8.52344E-17
4.28362E-05 7.50047E-17
4.57395E-05 6.62830E-17
4.87380E-05 5.88299E-17
5.18317E-05 5.23444E-17
5.50205E-05 4.67301E-17
5.83045E-05 4.18684E-17
6.16838E-05 3.75871E-17
6.51582E-05 3.38440E-17
6.87277E-05 3.05670E-17
7.23925E-05 2.76549E-17
7.61524E-05 2.50860E-17
9.21439E-05 1.73529E-17
1.09658E-04 1.23630E-17
1.28695E-04 9.04038E-18
1.49255E-04 6.75951E-18
1.71338E-04 5.15338E-18
1.94942E-04 3.99704E-18
2.20070E-04 3.14747E-18
2.46720E-04 2.51217E-18
2.74892E-04 2.02947E-18
3.04586E-04 1.65736E-18
3.35803E-04 1.36681E-18
3.68542E-04 1.13727E-18
4.02802E-04 9.53936E-19
4.38585E-04 8.06113E-19
4.75889E-04 6.85842E-19
5.14715E-04 5.87167E-19
5.55063E-04 5.05613E-19
5.96931E-04 4.37720E-19
6.40321E-04 3.80837E-19
6.85233E-04 3.32892E-19
7.31665E-04 2.92242E-19
7.79618E-04 2.57604E-19
8.29092E-04 2.27940E-19
8.80086E-04 2.02414E-19
9.32601E-04 1.80357E-19
9.86636E-04 1.61217E-19
1.04219E-03 1.44543E-19
1.09927E-03 1.29965E-19
1.15786E-03 1.17174E-19
1.21797E-03 1.05915E-19
1.27961E-03 9.59721E-20
1.34276E-03 8.71653E-20
1.40743E-03 7.93431E-20
1.47362E-03 7.23765E-20
1.54133E-03 6.61554E-20
1.61056E-03 6.05866E-20
1.68131E-03 5.55897E-20
1.75357E-03 5.10958E-20
1.82735E-03 4.70455E-20
1.90265E-03 4.33873E-20
1.97947E-03 4.00767E-20
2.05780E-03 3.70749E-20
2.13765E-03 3.43479E-20
2.21902E-03 3.18662E-20
2.30190E-03 2.96039E-20
2.38630E-03 2.75381E-20
2.47222E-03 2.56488E-20
2.55965E-03 2.39181E-20
2.64859E-03 2.23305E-20
2.73905E-03 2.08719E-20
2.83103E-03 1.95301E-20
2.92452E-03 1.82939E-20
3.01952E-03 1.71537E-20
3.11604E-03 1.61006E-20
3.21407E-03 1.51268E-20
3.31362E-03 1.42252E-20
3.41468E-03 1.33895E-20
3.51725E-03 1.26141E-20
3.62133E-03 1.18938E-20
3.72692E-03 1.12239E-20
3.83403E-03 1.06004E-20
3.94265E-03 1.00194E-20
4.05278E-03 9.47750E-21
4.16442E-03 8.97157E-21
4.27757E-03 8.49885E-21
4.39223E-03 8.05669E-21
4.50840E-03 7.64283E-21
4.62608E-03 7.25506E-21
4.74527E-03 6.89149E-21
4.86597E-03 6.55030E-21
4.98817E-03 6.22987E-21
5.11188E-03 5.92872E-21
5.23711E-03 5.64546E-21
5.36383E-03 5.37885E-21
5.49207E-03 5.12771E-21
5.62181E-03 4.89101E-21
5.75306E-03 4.66773E-21
5.88581E-03 4.45699E-21
6.02007E-03 4.25796E-21
6.15583E-03 4.06986E-21
6.29310E-03 3.89199E-21
6.43187E-03 3.72368E-21
6.57214E-03 3.56433E-21
6.71392E-03 3.41336E-21
6.85720E-03 3.27028E-21
7.00198E-03 3.13456E-21
7.14827E-03 3.00579E-21
7.29605E-03 2.88352E-21
7.44534E-03 2.76738E-21
7.59612E-03 2.65700E-21
7.97965E-03 2.40408E-21
8.37255E-03 2.18040E-21
8.77480E-03 1.98201E-21
9.18641E-03 1.80557E-21
9.60736E-03 1.64823E-21
1.00376E-02 1.50758E-21
1.04773E-02 1.38153E-21
1.09262E-02 1.26831E-21
1.13844E-02 1.16640E-21
1.18520E-02 1.07445E-21
1.23288E-02 9.91345E-22
1.28150E-02 9.16072E-22
1.33104E-02 8.47766E-22
1.38150E-02 7.85671E-22
1.43290E-02 7.29124E-22
1.48521E-02 6.77542E-22
1.53845E-02 6.30412E-22
1.59262E-02 5.87284E-22
1.64770E-02 5.47757E-22
1.70371E-02 5.11478E-22
1.76063E-02 4.78133E-22
1.81848E-02 4.47443E-22
1.87724E-02 4.19158E-22
1.93692E-02 3.93058E-22
1.99751E-02 3.68943E-22
2.05901E-02 3.46636E-22
2.12143E-02 3.25977E-22
2.18476E-02 3.06823E-22
2.24900E-02 2.89045E-22
2.31415E-02 2.72526E-22
2.38021E-02 2.57160E-22
2.44717E-02 2.42854E-22
2.51504E-02 2.29521E-22
2.58382E-02 2.17083E-22
2.65349E-02 2.05469E-22
2.72407E-02 1.94615E-22
2.79555E-02 1.84462E-22
2.86793E-02 1.74957E-22
2.94120E-02 1.66051E-22
3.01537E-02 1.57700E-22
3.09043E-02 1.49862E-22
3.16639E-02 1.42501E-22
3.24324E-02 1.35582E-22
3.32098E-02 1.29074E-22
3.39961E-02 1.22948E-22
3.47912E-02 1.17178E-22
3.55952E-02 1.11739E-22
3.64081E-02 1.06609E-22
3.72297E-02 1.01767E-22
3.80602E-02 9.71937E-23
3.88995E-02 9.28722E-23
3.97476E-02 8.87857E-23
4.06044E-02 8.49193E-23
4.14700E-02 8.12587E-23
4.23443E-02 7.77912E-23
4.32273E-02 7.45047E-23
4.41190E-02 7.13880E-23
4.50194E-02 6.84309E-23
4.59284E-02 6.56235E-23
4.68461E-02 6.29572E-23
4.87074E-02 5.80141E-23
5.06030E-02 5.35415E-23
5.25328E-02 4.94868E-23
5.44967E-02 4.58044E-23
5.64946E-02 4.24543E-23
5.85262E-02 3.94013E-23
6.05914E-02 3.66145E-23
6.26901E-02 3.40667E-23
6.48222E-02 3.17339E-23
6.69873E-02 2.95948E-23
6.91854E-02 2.76306E-23
7.14163E-02 2.58245E-23
7.36799E-02 2.41615E-23
7.59760E-02 2.26283E-23
7.83043E-02 2.12132E-23
8.06647E-02 1.99053E-23
8.30571E-02 1.86952E-23
8.54812E-02 1.75742E-23
8.79369E-02 1.65347E-23
9.04240E-02 1.55698E-23
9.29422E-02 1.46731E-23
9.54915E-02 1.38390E-23
9.80716E-02 1.30622E-23
1.00682E-01 1.23384E-23
1.03323E-01 1.16631E-23
1.05995E-01 1.10326E-23
1.08696E-01 1.04433E-23
1.11427E-01 9.89211E-24
1.14188E-01 9.37615E-24
1.16978E-01 8.89277E-24
1.19797E-01 8.43954E-24
1.22645E-01 8.01424E-24
1.25522E-01 7.61485E-24
1.28428E-01 7.23953E-24
1.31361E-01 6.88659E-24
1.34323E-01 6.55443E-24
1.37313E-01 6.24162E-24
1.40330E-01 5.94684E-24
1.43375E-01 5.66887E-24
1.46447E-01 5.40660E-24
1.49545E-01 5.15897E-24
1.52671E-01 4.92501E-24
1.55823E-01 4.70384E-24
1.59001E-01 4.49465E-24
1.62205E-01 4.29669E-24
1.65435E-01 4.10923E-24
1.68690E-01 3.93160E-24
1.71970E-01 3.76321E-24
1.75276E-01 3.60353E-24
1.78606E-01 3.45200E-24
1.81961E-01 3.30811E-24
1.85340E-01 3.17142E-24
1.88743E-01 3.04155E-24
1.92169E-01 2.91806E-24
1.95619E-01 2.80058E-24
1.99092E-01 2.68877E-24
2.02589E-01 2.58232E-24
2.06107E-01 2.48093E-24
2.09649E-01 2.38431E-24
2.13212E-01 2.29218E-24
2.16797E-01 2.20433E-24
2.20404E-01 2.12050E-24
2.24032E-01 2.04049E-24
2.27680E-01 1.96408E-24
2.31350E-01 1.89109E-24
2.35040E-01 1.82134E-24
2.38751E-01 1.75466E-24
2.42481E-01 1.69089E-24
2.46231E-01 1.62988E-24
2.50000E-01 1.57150E-24
2.53788E-01 1.51561E-24
2.57595E-01 1.46208E-24
2.61421E-01 1.41079E-24
2.65264E-01 1.36165E-24
2.69126E-01 1.31454E-24
2.73005E-01 1.26936E-24
2.76901E-01 1.22602E-24
2.80814E-01 1.18444E-24
2.84744E-01 1.14453E-24
2.88691E-01 1.10620E-24
2.92653E-01 1.06940E-24
2.96632E-01 1.03404E-24
3.00625E-01 1.00006E-24
3.04634E-01 9.67399E-25
3.08658E-01 9.35995E-25
3.12697E-01 9.05790E-25
3.16749E-01 8.76733E-25
3.20816E-01 8.48772E-25
3.24896E-01 8.21858E-25
3.28990E-01 7.95945E-25
3.33097E-01 7.70991E-25
3.37216E-01 7.46953E-25
3.41348E-01 7.23793E-25
3.45492E-01 7.01472E-25
3.49647E-01 6.79955E-25
3.53814E-01 6.59208E-25
3.57992E-01 6.39199E-25
3.62181E-01 6.19898E-25
3.66381E-01 6.01275E-25
3.70590E-01 5.83302E-25
3.74810E-01 5.65953E-25
3.79039E-01 5.49202E-25
3.83277E-01 5.33026E-25
3.87524E-01 5.17400E-25
3.91780E-01 5.02305E-25
3.96044E-01 4.87718E-25
4.00316E-01 4.73619E-25
4.04596E-01 4.59990E-25
4.08882E-01 4.46811E-25
4.13176E-01 4.34067E-25
4.17476E-01 4.21740E-25
4.21783E-01 4.09814E-25
4.26095E-01 3.98274E-25
4.30413E-01 3.87105E-25
4.34737E-01 3.76294E-25
4.39065E-01 3.65827E-25
4.43398E-01 3.55691E-25
4.47736E-01 3.45874E-25
4.52077E-01 3.36365E-25
4.56422E-01 3.27153E-25
4.60770E-01 3.18226E-25
4.65122E-01 3.09574E-25
4.69476E-01 3.01187E-25
4.73832E-01 2.93057E-25
4.78190E-01 2.85173E-25
4.82550E-01 2.77527E-25
4.86912E-01 2.70112E-25
4.91274E-01 2.62918E-25
4.95637E-01 2.55938E-25
5.00000E-01 2.49164E-25
5.04363E-01 2.42591E-25
5.08726E-01 2.36210E-25
5.13088E-01 2.30015E-25
5.17450E-01 2.24000E-25
5.21810E-01 2.18159E-25
5.26168E-01 2.12486E-25
5.30524E-01 2.06976E-25
5.34878E-01 2.01623E-25
5.39230E-01 1.96421E-25
5.43578E-01 1.91367E-25
5.47923E-01 1.86454E-25
5.52264E-01 1.81679E-25
5.56602E-01 1.77037E-25
5.60935E-01 1.72524E-25
5.65263E-01 1.68136E-25
5.69587E-01 1.63868E-25
5.73905E-01 1.59717E-25
5.78217E-01 1.55679E-25
5.82524E-01 1.51751E-25
5.86824E-01 1.47929E-25
5.91118E-01 1.44210E-25
5.95404E-01 1.40590E-25
5.99684E-01 1.37067E-25
6.03956E-01 1.33638E-25
6.08220E-01 1.30300E-25
6.12476E-01 1.27050E-25
6.16723E-01 1.23885E-25
6.20961E-01 1.20803E-25
6.25190E-01 1.17801E-25
6.29410E-01 1.14877E-25
6.33619E-01 1.12029E-25
6.37819E-01 1.09255E-25
6.42008E-01 1.06551E-25
6.46186E-01 1.03917E-25
6.50353E-01 1.01349E-25
6.54508E-01 9.88474E-26
6.58652E-01 9.64087E-26
6.62784E-01 9.40314E-26
6.66903E-01 9.17138E-26
6.71010E-01 8.94543E-26
6.75104E-01 8.72511E-26
6.79184E-01 8.51026E-26
6.83251E-01 8.30074E-26
6.87303E-01 8.09640E-26
6.91342E-01 7.89708E-26
6.95366E-01 7.70265E-26
6.99375E-01 7.51298E-26
7.03368E-01 7.32793E-26
7.07347E-01 7.14738E-26
7.11309E-01 6.97120E-26
7.15256E-01 6.79928E-26
7.19186E-01 6.63149E-26
7.23099E-01 6.46774E-26
7.26995E-01 6.30790E-26
7.30874E-01 6.15188E-26
7.34736E-01 5.99958E-26
7.38579E-01 5.85089E-26
7.42405E-01 5.70572E-26
7.46212E-01 5.56398E-26
7.50000E-01 5.42557E-26
7.53769E-01 5.29042E-26
7.57519E-01 5.15843E-26
7.61249E-01 5.02953E-26
7.64960E-01 4.90364E-26
7.68650E-01 4.78067E-26
7.72320E-01 4.66056E-26
7.75968E-01 4.54323E-26
7.79596E-01 4.42862E-26
7.83203E-01 4.31664E-26
7.86788E-01 4.20725E-26
7.90351E-01 4.10037E-26
7.93893E-01 3.99593E-26
7.97411E-01 3.89389E-26
8.00908E-01 3.79419E-26
8.04381E-01 3.69675E-26
8.07831E-01 3.60154E-26
8.11257E-01 3.50849E-26
8.14660E-01 3.41755E-26
8.18039E-01 3.32868E-26
8.21394E-01 3.24182E-26
8.24724E-01 3.15692E-26
8.28030E-01 3.07395E-26
8.31310E-01 2.99284E-26
8.34565E-01 2.91357E-26
8.37795E-01 2.83608E-26
8.40999E-01 2.76034E-26
8.44177E-01 2.68631E-26
8.47329E-01 2.61394E-26
8.50455E-01 2.54319E-26
8.53553E-01 2.47404E-26
8.56625E-01 2.40645E-26
8.59670E-01 2.34037E-26
8.62687E-01 2.27578E-26
8.65677E-01 2.21264E-26
8.68639E-01 2.15092E-26
8.71572E-01 2.09060E-26
8.74478E-01 2.03163E-26
8.77355E-01 1.97399E-26
8.80203E-01 1.91765E-26
8.83022E-01 1.86258E-26
8.85812E-01 1.80876E-26
8.88573E-01 1.75616E-26
8.91304E-01 1.70475E-26
8.94005E-01 1.65451E-26
8.96677E-01 1.60541E-26
8.99318E-01 1.55743E-26
9.01928E-01 1.51056E-26
9.04508E-01 1.46475E-26
9.07058E-01 1.42000E-26
9.09576E-01 1.37628E-26
9.12063E-01 1.33357E-26
9.14519E-01 1.29185E-26
9.16943E-01 1.25111E-26
9.19335E-01 1.21132E-26
9.21696E-01 1.17246E-26
9.24024E-01 1.13452E-26
9.26320E-01 1.09748E-26
9.28584E-01 1.06132E-26
9.30815E-01 1.02602E-26
9.33013E-01 9.91578E-27
9.35178E-01 9.57968E-27
9.37310E-01 9.25177E-27
9.39409E-01 8.93191E-27
9.41474E-01 8.61994E-27
9.43505E-01 8.31574E-27
9.45503E-01 8.01917E-27
9.47467E-01 7.73010E-27
9.49397E-01 7.44839E-27
9.51293E-01 7.17393E-27
9.53154E-01 6.90660E-27
9.54981E-01 6.64628E-27
9.56773E-01 6.39285E-27
9.58530E-01 6.14621E-27
9.60252E-01 5.90626E-27
9.61940E-01 5.67288E-27
9.63592E-01 5.44598E-27
9.65209E-01 5.22546E-27
9.66790E-01 5.01122E-27
9.68336E-01 4.80319E-27
9.69846E-01 4.60126E-27
9.71321E-01 4.40535E-27
9.72759E-01 4.21539E-27
9.74162E-01 4.03128E-27
9.75528E-01 3.85296E-27
9.76858E-01 3.68035E-27
9.78152E-01 3.51337E-27
9.79410E-01 3.35196E-27
9.80631E-01 3.19605E-27
9.81815E-01 3.04558E-27
9.82963E-01 2.90048E-27
9.84074E-01 2.76069E-27
9.85148E-01 2.62617E-27
9.86185E-01 2.49684E-27
9.87185E-01 2.37266E-27
9.88148E-01 2.25357E-27
9.89074E-01 2.13954E-27
9.89962E-01 2.03051E-27
9.90814E-01 1.92643E-27
9.91627E-01 1.82728E-27
9.92404E-01 1.73299E-27
9.93143E-01 1.64355E-27
9.93844E-01 1.55890E-27
9.94508E-01 1.47902E-27
9.95134E-01 1.40388E-27
9.95722E-01 1.33344E-27
9.96273E-01 1.26767E-27
9.96786E-01 1.20656E-27
9.97261E-01 1.15007E-27
9.97698E-01 1.09818E-27
9.98097E-01 1.05087E-27
9.98459E-01 1.00812E-27
9.98782E-01 9.69925E-28
9.99067E-01 9.36255E-28
9.99315E-01 9.07102E-28
9.99524E-01 8.82454E-28
9.99695E-01 8.62300E-28
9.99829E-01 8.46634E-28
9.99924E-01 8.35448E-28
9.99981E-01 8.28738E-28
1.00000E+00 8.26501E-28
