 #
 # Subroutine ELSEPA. Elastic scattering of electrons and positrons
 #                    by neutral atoms and positive ions
 #
 # Projectile: positron
 # Kinetic energy = 9.00000E+06 eV = 3.30744E+05 a.u.
 #
 # WARNING: High-energy factorization with free-atom DF screening.
 #          Absorption, polarization and exchange corrections are
 #          switched off.
 #          Phase shifts are calculated for the bare nucleus.
 #          Scattering amplitudes are not evaluated.
 #
 # Element: Mo,  Z =  42,  atomic weight = 9.59400E+01 g/mol
 #
 # Nuclear model: Fermi distribution
 #                Average radius = 4.89836E-13 cm
 #                Skin thickness = 5.46000E-14 cm
 #
 # Number of electrons = 42
 #
 # Total elastic cross section = 4.06904E-18 cm**2 = 1.45308E-01 a0**2
 # 1st transport cross section = 2.87024E-23 cm**2 = 1.02498E-06 a0**2
 # 2nd transport cross section = 8.30400E-23 cm**2 = 2.96541E-06 a0**2
 #
 #
 # Differential cross section:                       MU=(1-COS(THETA))/2
 #
 #  THETA        MU          DCS          DCS        Sherman      error
 #  (deg)                 (cm**2/sr)   (a0**2/sr)    function
 #----------------------------------------------------------------------
0.00000E+00 3.58068E-12
7.61557E-13 3.58057E-12
1.18994E-12 3.58052E-12
1.71346E-12 3.58045E-12
2.33225E-12 3.58037E-12
3.04617E-12 3.58027E-12
3.85530E-12 3.58017E-12
4.75964E-12 3.58005E-12
5.75917E-12 3.57992E-12
6.85391E-12 3.57977E-12
8.04379E-12 3.57962E-12
9.32893E-12 3.57945E-12
1.07092E-11 3.57927E-12
1.21847E-11 3.57908E-12
1.37554E-11 3.57888E-12
1.54213E-11 3.57866E-12
1.71823E-11 3.57843E-12
1.90386E-11 3.57819E-12
2.09900E-11 3.57794E-12
2.30367E-11 3.57767E-12
2.51785E-11 3.57740E-12
2.74156E-11 3.57711E-12
2.97478E-11 3.57680E-12
3.21752E-11 3.57649E-12
3.46979E-11 3.57616E-12
3.73157E-11 3.57583E-12
4.00286E-11 3.57547E-12
4.28368E-11 3.57511E-12
4.57402E-11 3.57474E-12
4.87388E-11 3.57435E-12
5.18325E-11 3.57395E-12
5.50215E-11 3.57354E-12
5.83057E-11 3.57312E-12
6.16850E-11 3.57268E-12
6.51595E-11 3.57223E-12
6.87293E-11 3.57177E-12
7.23943E-11 3.57130E-12
7.61544E-11 3.57081E-12
1.18991E-10 3.56531E-12
1.71347E-10 3.55860E-12
2.33223E-10 3.55070E-12
3.04617E-10 3.54163E-12
3.85531E-10 3.53140E-12
4.75965E-10 3.52004E-12
5.75917E-10 3.50755E-12
6.85389E-10 3.49396E-12
8.04380E-10 3.47930E-12
9.32891E-10 3.46359E-12
1.07092E-09 3.44685E-12
1.21847E-09 3.42912E-12
1.37554E-09 3.41042E-12
1.54213E-09 3.39079E-12
1.71823E-09 3.37025E-12
1.90386E-09 3.34884E-12
2.09900E-09 3.32659E-12
2.30367E-09 3.30353E-12
2.51785E-09 3.27971E-12
2.74156E-09 3.25508E-12
2.97478E-09 3.22978E-12
3.21752E-09 3.20384E-12
3.46978E-09 3.17731E-12
3.73156E-09 3.15023E-12
4.00286E-09 3.12261E-12
4.28368E-09 3.09431E-12
4.57402E-09 3.06558E-12
4.87388E-09 3.03644E-12
5.18326E-09 3.00693E-12
5.50215E-09 2.97710E-12
5.83057E-09 2.94689E-12
6.16850E-09 2.91623E-12
6.51596E-09 2.88535E-12
6.87293E-09 2.85429E-12
7.23942E-09 2.82307E-12
7.61544E-09 2.79173E-12
1.18991E-08 2.47363E-12
1.71347E-08 2.16527E-12
2.33223E-08 1.88182E-12
3.04617E-08 1.62989E-12
3.85531E-08 1.41084E-12
4.75965E-08 1.22295E-12
5.75917E-08 1.06277E-12
6.85389E-08 9.26074E-13
8.04380E-08 8.09575E-13
9.32891E-08 7.10085E-13
1.07092E-07 6.24782E-13
1.21847E-07 5.51176E-13
1.37554E-07 4.87645E-13
1.54213E-07 4.32607E-13
1.71823E-07 3.84687E-13
1.90386E-07 3.42827E-13
2.09900E-07 3.06237E-13
2.30367E-07 2.74166E-13
2.51785E-07 2.45928E-13
2.74156E-07 2.19616E-13
2.97478E-07 1.96966E-13
3.21752E-07 1.77565E-13
3.46978E-07 1.60860E-13
3.73156E-07 1.46403E-13
4.00286E-07 1.33641E-13
4.28368E-07 1.21100E-13
4.57402E-07 1.10167E-13
4.87388E-07 1.00598E-13
5.18325E-07 9.21886E-14
5.50215E-07 8.47698E-14
5.83057E-07 7.80129E-14
6.16850E-07 7.16697E-14
6.51596E-07 6.60353E-14
6.87293E-07 6.10146E-14
7.23942E-07 5.65271E-14
7.61543E-07 5.25042E-14
1.18991E-06 2.68716E-14
1.71347E-06 1.55117E-14
2.33223E-06 9.65342E-15
3.04617E-06 6.28667E-15
3.85531E-06 4.23191E-15
4.75964E-06 2.93095E-15
5.75916E-06 2.08219E-15
6.85388E-06 1.51383E-15
8.04378E-06 1.12538E-15
9.32888E-06 8.54281E-16
1.07092E-05 6.60731E-16
1.21846E-05 5.19476E-16
1.37553E-05 4.14438E-16
1.54212E-05 3.34973E-16
1.71822E-05 2.73897E-16
1.90385E-05 2.26221E-16
2.09899E-05 1.88637E-16
2.30365E-05 1.58561E-16
2.51783E-05 1.34227E-16
2.74153E-05 1.14292E-16
2.97475E-05 9.80028E-17
3.21749E-05 8.44761E-17
3.46974E-05 7.31914E-17
3.73152E-05 6.37467E-17
4.00281E-05 5.57324E-17
4.28362E-05 4.89682E-17
4.57395E-05 4.31572E-17
4.87380E-05 3.81958E-17
5.18317E-05 3.39123E-17
5.50205E-05 3.02086E-17
5.83045E-05 2.69966E-17
6.16838E-05 2.41922E-17
6.51582E-05 2.17480E-17
6.87277E-05 1.95962E-17
7.23925E-05 1.77077E-17
7.61524E-05 1.60382E-17
9.21439E-05 1.10393E-17
1.09658E-04 7.84116E-18
1.28695E-04 5.72183E-18
1.49255E-04 4.27251E-18
1.71338E-04 3.25477E-18
1.94942E-04 2.52286E-18
2.20070E-04 1.98576E-18
2.46720E-04 1.58438E-18
2.74892E-04 1.27947E-18
3.04586E-04 1.04450E-18
3.35803E-04 8.61065E-19
3.68542E-04 7.16172E-19
4.02802E-04 6.00480E-19
4.38585E-04 5.07206E-19
4.75889E-04 4.31342E-19
5.14715E-04 3.69124E-19
5.55063E-04 3.17709E-19
5.96931E-04 2.74926E-19
6.40321E-04 2.39094E-19
6.85233E-04 2.08903E-19
7.31665E-04 1.83318E-19
7.79618E-04 1.61524E-19
8.29092E-04 1.42868E-19
8.80086E-04 1.26822E-19
9.32601E-04 1.12960E-19
9.86636E-04 1.00937E-19
1.04219E-03 9.04682E-20
1.09927E-03 8.13179E-20
1.15786E-03 7.32926E-20
1.21797E-03 6.62307E-20
1.27961E-03 5.99968E-20
1.34276E-03 5.44772E-20
1.40743E-03 4.95761E-20
1.47362E-03 4.52125E-20
1.54133E-03 4.13171E-20
1.61056E-03 3.78311E-20
1.68131E-03 3.47039E-20
1.75357E-03 3.18924E-20
1.82735E-03 2.93590E-20
1.90265E-03 2.70714E-20
1.97947E-03 2.50017E-20
2.05780E-03 2.31254E-20
2.13765E-03 2.14213E-20
2.21902E-03 1.98708E-20
2.30190E-03 1.84576E-20
2.38630E-03 1.71675E-20
2.47222E-03 1.59877E-20
2.55965E-03 1.49072E-20
2.64859E-03 1.39162E-20
2.73905E-03 1.30058E-20
2.83103E-03 1.21685E-20
2.92452E-03 1.13972E-20
3.01952E-03 1.06859E-20
3.11604E-03 1.00290E-20
3.21407E-03 9.42166E-21
3.31362E-03 8.85941E-21
3.41468E-03 8.33833E-21
3.51725E-03 7.85487E-21
3.62133E-03 7.40581E-21
3.72692E-03 6.98826E-21
3.83403E-03 6.59963E-21
3.94265E-03 6.23753E-21
4.05278E-03 5.89982E-21
4.16442E-03 5.58458E-21
4.27757E-03 5.29004E-21
4.39223E-03 5.01457E-21
4.50840E-03 4.75673E-21
4.62608E-03 4.51519E-21
4.74527E-03 4.28872E-21
4.86597E-03 4.07622E-21
4.98817E-03 3.87666E-21
5.11188E-03 3.68911E-21
5.23711E-03 3.51272E-21
5.36383E-03 3.34670E-21
5.49207E-03 3.19033E-21
5.62181E-03 3.04295E-21
5.75306E-03 2.90394E-21
5.88581E-03 2.77274E-21
6.02007E-03 2.64884E-21
6.15583E-03 2.53175E-21
6.29310E-03 2.42103E-21
6.43187E-03 2.31627E-21
6.57214E-03 2.21708E-21
6.71392E-03 2.12313E-21
6.85720E-03 2.03407E-21
7.00198E-03 1.94961E-21
7.14827E-03 1.86947E-21
7.29605E-03 1.79339E-21
7.44534E-03 1.72111E-21
7.59612E-03 1.65243E-21
7.97965E-03 1.49505E-21
8.37255E-03 1.35589E-21
8.77480E-03 1.23246E-21
9.18641E-03 1.12270E-21
9.60736E-03 1.02482E-21
1.00376E-02 9.37333E-22
1.04773E-02 8.58933E-22
1.09262E-02 7.88517E-22
1.13844E-02 7.25132E-22
1.18520E-02 6.67953E-22
1.23288E-02 6.16269E-22
1.28150E-02 5.69459E-22
1.33104E-02 5.26984E-22
1.38150E-02 4.88373E-22
1.43290E-02 4.53212E-22
1.48521E-02 4.21140E-22
1.53845E-02 3.91837E-22
1.59262E-02 3.65022E-22
1.64770E-02 3.40447E-22
1.70371E-02 3.17892E-22
1.76063E-02 2.97161E-22
1.81848E-02 2.78081E-22
1.87724E-02 2.60498E-22
1.93692E-02 2.44273E-22
1.99751E-02 2.29282E-22
2.05901E-02 2.15416E-22
2.12143E-02 2.02574E-22
2.18476E-02 1.90667E-22
2.24900E-02 1.79616E-22
2.31415E-02 1.69348E-22
2.38021E-02 1.59797E-22
2.44717E-02 1.50905E-22
2.51504E-02 1.42618E-22
2.58382E-02 1.34887E-22
2.65349E-02 1.27669E-22
2.72407E-02 1.20922E-22
2.79555E-02 1.14612E-22
2.86793E-02 1.08705E-22
2.94120E-02 1.03170E-22
3.01537E-02 9.79792E-23
3.09043E-02 9.31083E-23
3.16639E-02 8.85333E-23
3.24324E-02 8.42334E-23
3.32098E-02 8.01888E-23
3.39961E-02 7.63818E-23
3.47912E-02 7.27960E-23
3.55952E-02 6.94160E-23
3.64081E-02 6.62280E-23
3.72297E-02 6.32191E-23
3.80602E-02 6.03774E-23
3.88995E-02 5.76919E-23
3.97476E-02 5.51525E-23
4.06044E-02 5.27498E-23
4.14700E-02 5.04752E-23
4.23443E-02 4.83206E-23
4.32273E-02 4.62785E-23
4.41190E-02 4.43419E-23
4.50194E-02 4.25044E-23
4.59284E-02 4.07600E-23
4.68461E-02 3.91032E-23
4.87074E-02 3.60319E-23
5.06030E-02 3.32529E-23
5.25328E-02 3.07337E-23
5.44967E-02 2.84458E-23
5.64946E-02 2.63644E-23
5.85262E-02 2.44677E-23
6.05914E-02 2.27363E-23
6.26901E-02 2.11535E-23
6.48222E-02 1.97043E-23
6.69873E-02 1.83754E-23
6.91854E-02 1.71552E-23
7.14163E-02 1.60332E-23
7.36799E-02 1.50002E-23
7.59760E-02 1.40479E-23
7.83043E-02 1.31688E-23
8.06647E-02 1.23564E-23
8.30571E-02 1.16048E-23
8.54812E-02 1.09086E-23
8.79369E-02 1.02629E-23
9.04240E-02 9.66362E-24
9.29422E-02 9.10671E-24
9.54915E-02 8.58864E-24
9.80716E-02 8.10627E-24
1.00682E-01 7.65674E-24
1.03323E-01 7.23738E-24
1.05995E-01 6.84579E-24
1.08696E-01 6.47987E-24
1.11427E-01 6.13765E-24
1.14188E-01 5.81723E-24
1.16978E-01 5.51707E-24
1.19797E-01 5.23568E-24
1.22645E-01 4.97158E-24
1.25522E-01 4.72361E-24
1.28428E-01 4.49060E-24
1.31361E-01 4.27146E-24
1.34323E-01 4.06523E-24
1.37313E-01 3.87104E-24
1.40330E-01 3.68805E-24
1.43375E-01 3.51548E-24
1.46447E-01 3.35267E-24
1.49545E-01 3.19895E-24
1.52671E-01 3.05372E-24
1.55823E-01 2.91644E-24
1.59001E-01 2.78660E-24
1.62205E-01 2.66373E-24
1.65435E-01 2.54737E-24
1.68690E-01 2.43713E-24
1.71970E-01 2.33264E-24
1.75276E-01 2.23353E-24
1.78606E-01 2.13948E-24
1.81961E-01 2.05020E-24
1.85340E-01 1.96538E-24
1.88743E-01 1.88478E-24
1.92169E-01 1.80815E-24
1.95619E-01 1.73526E-24
1.99092E-01 1.66589E-24
2.02589E-01 1.59984E-24
2.06107E-01 1.53693E-24
2.09649E-01 1.47698E-24
2.13212E-01 1.41983E-24
2.16797E-01 1.36533E-24
2.20404E-01 1.31333E-24
2.24032E-01 1.26369E-24
2.27680E-01 1.21630E-24
2.31350E-01 1.17102E-24
2.35040E-01 1.12776E-24
2.38751E-01 1.08640E-24
2.42481E-01 1.04685E-24
2.46231E-01 1.00902E-24
2.50000E-01 9.72809E-25
2.53788E-01 9.38146E-25
2.57595E-01 9.04952E-25
2.61421E-01 8.73153E-25
2.65264E-01 8.42680E-25
2.69126E-01 8.13468E-25
2.73005E-01 7.85458E-25
2.76901E-01 7.58589E-25
2.80814E-01 7.32809E-25
2.84744E-01 7.08065E-25
2.88691E-01 6.84309E-25
2.92653E-01 6.61494E-25
2.96632E-01 6.39577E-25
3.00625E-01 6.18516E-25
3.04634E-01 5.98273E-25
3.08658E-01 5.78809E-25
3.12697E-01 5.60091E-25
3.16749E-01 5.42084E-25
3.20816E-01 5.24756E-25
3.24896E-01 5.08079E-25
3.28990E-01 4.92023E-25
3.33097E-01 4.76561E-25
3.37216E-01 4.61668E-25
3.41348E-01 4.47319E-25
3.45492E-01 4.33491E-25
3.49647E-01 4.20162E-25
3.53814E-01 4.07310E-25
3.57992E-01 3.94916E-25
3.62181E-01 3.82961E-25
3.66381E-01 3.71427E-25
3.70590E-01 3.60295E-25
3.74810E-01 3.49551E-25
3.79039E-01 3.39178E-25
3.83277E-01 3.29160E-25
3.87524E-01 3.19485E-25
3.91780E-01 3.10138E-25
3.96044E-01 3.01107E-25
4.00316E-01 2.92378E-25
4.04596E-01 2.83940E-25
4.08882E-01 2.75782E-25
4.13176E-01 2.67893E-25
4.17476E-01 2.60262E-25
4.21783E-01 2.52881E-25
4.26095E-01 2.45738E-25
4.30413E-01 2.38826E-25
4.34737E-01 2.32135E-25
4.39065E-01 2.25658E-25
4.43398E-01 2.19386E-25
4.47736E-01 2.13312E-25
4.52077E-01 2.07429E-25
4.56422E-01 2.01729E-25
4.60770E-01 1.96206E-25
4.65122E-01 1.90854E-25
4.69476E-01 1.85666E-25
4.73832E-01 1.80637E-25
4.78190E-01 1.75760E-25
4.82550E-01 1.71032E-25
4.86912E-01 1.66445E-25
4.91274E-01 1.61997E-25
4.95637E-01 1.57680E-25
5.00000E-01 1.53492E-25
5.04363E-01 1.49428E-25
5.08726E-01 1.45483E-25
5.13088E-01 1.41653E-25
5.17450E-01 1.37935E-25
5.21810E-01 1.34324E-25
5.26168E-01 1.30817E-25
5.30524E-01 1.27412E-25
5.34878E-01 1.24103E-25
5.39230E-01 1.20888E-25
5.43578E-01 1.17765E-25
5.47923E-01 1.14729E-25
5.52264E-01 1.11779E-25
5.56602E-01 1.08911E-25
5.60935E-01 1.06123E-25
5.65263E-01 1.03412E-25
5.69587E-01 1.00775E-25
5.73905E-01 9.82111E-26
5.78217E-01 9.57172E-26
5.82524E-01 9.32911E-26
5.86824E-01 9.09307E-26
5.91118E-01 8.86340E-26
5.95404E-01 8.63991E-26
5.99684E-01 8.42239E-26
6.03956E-01 8.21068E-26
6.08220E-01 8.00458E-26
6.12476E-01 7.80393E-26
6.16723E-01 7.60857E-26
6.20961E-01 7.41833E-26
6.25190E-01 7.23306E-26
6.29410E-01 7.05262E-26
6.33619E-01 6.87685E-26
6.37819E-01 6.70563E-26
6.42008E-01 6.53881E-26
6.46186E-01 6.37627E-26
6.50353E-01 6.21789E-26
6.54508E-01 6.06353E-26
6.58652E-01 5.91309E-26
6.62784E-01 5.76645E-26
6.66903E-01 5.62351E-26
6.71010E-01 5.48415E-26
6.75104E-01 5.34828E-26
6.79184E-01 5.21580E-26
6.83251E-01 5.08661E-26
6.87303E-01 4.96061E-26
6.91342E-01 4.83773E-26
6.95366E-01 4.71787E-26
6.99375E-01 4.60095E-26
7.03368E-01 4.48688E-26
7.07347E-01 4.37560E-26
7.11309E-01 4.26702E-26
7.15256E-01 4.16107E-26
7.19186E-01 4.05768E-26
7.23099E-01 3.95678E-26
7.26995E-01 3.85830E-26
7.30874E-01 3.76217E-26
7.34736E-01 3.66835E-26
7.38579E-01 3.57675E-26
7.42405E-01 3.48734E-26
7.46212E-01 3.40004E-26
7.50000E-01 3.31480E-26
7.53769E-01 3.23157E-26
7.57519E-01 3.15030E-26
7.61249E-01 3.07093E-26
7.64960E-01 2.99342E-26
7.68650E-01 2.91771E-26
7.72320E-01 2.84377E-26
7.75968E-01 2.77155E-26
7.79596E-01 2.70101E-26
7.83203E-01 2.63209E-26
7.86788E-01 2.56477E-26
7.90351E-01 2.49899E-26
7.93893E-01 2.43473E-26
7.97411E-01 2.37195E-26
8.00908E-01 2.31061E-26
8.04381E-01 2.25066E-26
8.07831E-01 2.19209E-26
8.11257E-01 2.13486E-26
8.14660E-01 2.07893E-26
8.18039E-01 2.02427E-26
8.21394E-01 1.97085E-26
8.24724E-01 1.91865E-26
8.28030E-01 1.86763E-26
8.31310E-01 1.81776E-26
8.34565E-01 1.76902E-26
8.37795E-01 1.72139E-26
8.40999E-01 1.67483E-26
8.44177E-01 1.62932E-26
8.47329E-01 1.58484E-26
8.50455E-01 1.54137E-26
8.53553E-01 1.49887E-26
8.56625E-01 1.45733E-26
8.59670E-01 1.41673E-26
8.62687E-01 1.37705E-26
8.65677E-01 1.33826E-26
8.68639E-01 1.30034E-26
8.71572E-01 1.26329E-26
8.74478E-01 1.22707E-26
8.77355E-01 1.19166E-26
8.80203E-01 1.15706E-26
8.83022E-01 1.12325E-26
8.85812E-01 1.09020E-26
8.88573E-01 1.05790E-26
8.91304E-01 1.02633E-26
8.94005E-01 9.95486E-27
8.96677E-01 9.65345E-27
8.99318E-01 9.35894E-27
9.01928E-01 9.07118E-27
9.04508E-01 8.79003E-27
9.07058E-01 8.51537E-27
9.09576E-01 8.24706E-27
9.12063E-01 7.98497E-27
9.14519E-01 7.72898E-27
9.16943E-01 7.47897E-27
9.19335E-01 7.23482E-27
9.21696E-01 6.99642E-27
9.24024E-01 6.76366E-27
9.26320E-01 6.53642E-27
9.28584E-01 6.31461E-27
9.30815E-01 6.09813E-27
9.33013E-01 5.88687E-27
9.35178E-01 5.68074E-27
9.37310E-01 5.47964E-27
9.39409E-01 5.28349E-27
9.41474E-01 5.09219E-27
9.43505E-01 4.90566E-27
9.45503E-01 4.72382E-27
9.47467E-01 4.54659E-27
9.49397E-01 4.37388E-27
9.51293E-01 4.20563E-27
9.53154E-01 4.04175E-27
9.54981E-01 3.88218E-27
9.56773E-01 3.72684E-27
9.58530E-01 3.57567E-27
9.60252E-01 3.42861E-27
9.61940E-01 3.28558E-27
9.63592E-01 3.14653E-27
9.65209E-01 3.01139E-27
9.66790E-01 2.88011E-27
9.68336E-01 2.75264E-27
9.69846E-01 2.62891E-27
9.71321E-01 2.50888E-27
9.72759E-01 2.39250E-27
9.74162E-01 2.27970E-27
9.75528E-01 2.17046E-27
9.76858E-01 2.06472E-27
9.78152E-01 1.96243E-27
9.79410E-01 1.86356E-27
9.80631E-01 1.76806E-27
9.81815E-01 1.67589E-27
9.82963E-01 1.58702E-27
9.84074E-01 1.50141E-27
9.85148E-01 1.41902E-27
9.86185E-01 1.33981E-27
9.87185E-01 1.26376E-27
9.88148E-01 1.19084E-27
9.89074E-01 1.12100E-27
9.89962E-01 1.05424E-27
9.90814E-01 9.90506E-28
9.91627E-01 9.29788E-28
9.92404E-01 8.72056E-28
9.93143E-01 8.17287E-28
9.93844E-01 7.65460E-28
9.94508E-01 7.16551E-28
9.95134E-01 6.70543E-28
9.95722E-01 6.27415E-28
9.96273E-01 5.87151E-28
9.96786E-01 5.49734E-28
9.97261E-01 5.15148E-28
9.97698E-01 4.83381E-28
9.98097E-01 4.54419E-28
9.98459E-01 4.28251E-28
9.98782E-01 4.04865E-28
9.99067E-01 3.84252E-28
9.99315E-01 3.66405E-28
9.99524E-01 3.51316E-28
9.99695E-01 3.38978E-28
9.99829E-01 3.29387E-28
9.99924E-01 3.22540E-28
9.99981E-01 3.18432E-28
1.00000E+00 3.17063E-28
