 #
 # Subroutine ELSEPA. Elastic scattering of electrons and positrons
 #                    by neutral atoms and positive ions
 #
 # Projectile: electron
 # Kinetic energy = 6.00000E+06 eV = 2.20496E+05 a.u.
 #
 # WARNING: High-energy factorization with free-atom DF screening.
 #          Absorption, polarization and exchange corrections are
 #          switched off.
 #          Phase shifts are calculated for the bare nucleus.
 #          Scattering amplitudes are not evaluated.
 #
 # Element: Au,  Z =  79,  atomic weight = 1.96967E+02 g/mol
 #
 # Nuclear model: Fermi distribution
 #                Average radius = 6.22560E-13 cm
 #                Skin thickness = 5.46000E-14 cm
 #
 # Number of electrons = 79
 #
 # Total elastic cross section = 7.73528E-18 cm**2 = 2.76232E-01 a0**2
 # 1st transport cross section = 2.52956E-22 cm**2 = 9.03321E-06 a0**2
 # 2nd transport cross section = 6.83160E-22 cm**2 = 2.43961E-05 a0**2
 #
 #
 # Differential cross section:                       MU=(1-COS(THETA))/2
 #
 #  THETA        MU          DCS          DCS        Sherman      error
 #  (deg)                 (cm**2/sr)   (a0**2/sr)    function
 #----------------------------------------------------------------------
0.00000E+00 1.67573E-12
7.61557E-13 1.67572E-12
1.18994E-12 1.67571E-12
1.71346E-12 1.67570E-12
2.33225E-12 1.67569E-12
3.04617E-12 1.67568E-12
3.85530E-12 1.67567E-12
4.75964E-12 1.67566E-12
5.75917E-12 1.67564E-12
6.85391E-12 1.67563E-12
8.04379E-12 1.67561E-12
9.32893E-12 1.67559E-12
1.07092E-11 1.67557E-12
1.21847E-11 1.67555E-12
1.37554E-11 1.67553E-12
1.54213E-11 1.67551E-12
1.71823E-11 1.67548E-12
1.90386E-11 1.67545E-12
2.09900E-11 1.67543E-12
2.30367E-11 1.67540E-12
2.51785E-11 1.67537E-12
2.74156E-11 1.67533E-12
2.97478E-11 1.67530E-12
3.21752E-11 1.67527E-12
3.46979E-11 1.67523E-12
3.73157E-11 1.67519E-12
4.00286E-11 1.67515E-12
4.28368E-11 1.67511E-12
4.57402E-11 1.67507E-12
4.87388E-11 1.67503E-12
5.18325E-11 1.67498E-12
5.50215E-11 1.67494E-12
5.83057E-11 1.67489E-12
6.16850E-11 1.67484E-12
6.51595E-11 1.67479E-12
6.87293E-11 1.67474E-12
7.23943E-11 1.67469E-12
7.61544E-11 1.67464E-12
1.18991E-10 1.67402E-12
1.71347E-10 1.67328E-12
2.33223E-10 1.67239E-12
3.04617E-10 1.67137E-12
3.85531E-10 1.67022E-12
4.75965E-10 1.66894E-12
5.75917E-10 1.66752E-12
6.85389E-10 1.66597E-12
8.04380E-10 1.66428E-12
9.32891E-10 1.66247E-12
1.07092E-09 1.66052E-12
1.21847E-09 1.65845E-12
1.37554E-09 1.65625E-12
1.54213E-09 1.65392E-12
1.71823E-09 1.65146E-12
1.90386E-09 1.64888E-12
2.09900E-09 1.64618E-12
2.30367E-09 1.64335E-12
2.51785E-09 1.64040E-12
2.74156E-09 1.63733E-12
2.97478E-09 1.63414E-12
3.21752E-09 1.63083E-12
3.46978E-09 1.62740E-12
3.73156E-09 1.62386E-12
4.00286E-09 1.62021E-12
4.28368E-09 1.61645E-12
4.57402E-09 1.61257E-12
4.87388E-09 1.60859E-12
5.18326E-09 1.60450E-12
5.50215E-09 1.60029E-12
5.83057E-09 1.59592E-12
6.16850E-09 1.59147E-12
6.51596E-09 1.58694E-12
6.87293E-09 1.58233E-12
7.23942E-09 1.57763E-12
7.61544E-09 1.57287E-12
1.18991E-08 1.52019E-12
1.71347E-08 1.46003E-12
2.33223E-08 1.39430E-12
3.04617E-08 1.32509E-12
3.85531E-08 1.25413E-12
4.75965E-08 1.18288E-12
5.75917E-08 1.11246E-12
6.85389E-08 1.04331E-12
8.04380E-08 9.76670E-13
9.32891E-08 9.13017E-13
1.07092E-07 8.52637E-13
1.21847E-07 7.95677E-13
1.37554E-07 7.41939E-13
1.54213E-07 6.91518E-13
1.71823E-07 6.44487E-13
1.90386E-07 6.00706E-13
2.09900E-07 5.60011E-13
2.30367E-07 5.22197E-13
2.51785E-07 4.86935E-13
2.74156E-07 4.54265E-13
2.97478E-07 4.24004E-13
3.21752E-07 3.95978E-13
3.46978E-07 3.70020E-13
3.73156E-07 3.45896E-13
4.00286E-07 3.23520E-13
4.28368E-07 3.02795E-13
4.57402E-07 2.83592E-13
4.87388E-07 2.65793E-13
5.18325E-07 2.49272E-13
5.50215E-07 2.33622E-13
5.83057E-07 2.18104E-13
6.16850E-07 2.04136E-13
6.51596E-07 1.91532E-13
6.87293E-07 1.80131E-13
7.23942E-07 1.69791E-13
7.61543E-07 1.60393E-13
1.18991E-06 9.27985E-14
1.71347E-06 5.70180E-14
2.33223E-06 3.70414E-14
3.04617E-06 2.52385E-14
3.85531E-06 1.78364E-14
4.75964E-06 1.29626E-14
5.75916E-06 9.62762E-15
6.85388E-06 7.26736E-15
8.04378E-06 5.57553E-15
9.32888E-06 4.34074E-15
1.07092E-05 3.42562E-15
1.21846E-05 2.73805E-15
1.37553E-05 2.21523E-15
1.54212E-05 1.80987E-15
1.71822E-05 1.49472E-15
1.90385E-05 1.24606E-15
2.09899E-05 1.04945E-15
2.30365E-05 8.90615E-16
2.51783E-05 7.60680E-16
2.74153E-05 6.53606E-16
2.97475E-05 5.64774E-16
3.21749E-05 4.90653E-16
3.46974E-05 4.28461E-16
3.73152E-05 3.75927E-16
4.00281E-05 3.31287E-16
4.28362E-05 2.93127E-16
4.57395E-05 2.60310E-16
4.87380E-05 2.31942E-16
5.18317E-05 2.07313E-16
5.50205E-05 1.85813E-16
5.83045E-05 1.66949E-16
6.16838E-05 1.50522E-16
6.51582E-05 1.36163E-16
6.87277E-05 1.23361E-16
7.23925E-05 1.12049E-16
7.61524E-05 1.02056E-16
9.21439E-05 7.16237E-17
1.09658E-04 5.17090E-17
1.28695E-04 3.82658E-17
1.49255E-04 2.89208E-17
1.71338E-04 2.22632E-17
1.94942E-04 1.74161E-17
2.20070E-04 1.38184E-17
2.46720E-04 1.11040E-17
2.74892E-04 9.02595E-18
3.04586E-04 7.41320E-18
3.35803E-04 6.14605E-18
3.68542E-04 5.13905E-18
4.02802E-04 4.33032E-18
4.38585E-04 3.67500E-18
4.75889E-04 3.13936E-18
5.14715E-04 2.69806E-18
5.55063E-04 2.33178E-18
5.96931E-04 2.02561E-18
6.40321E-04 1.76812E-18
6.85233E-04 1.55032E-18
7.31665E-04 1.36508E-18
7.79618E-04 1.20672E-18
8.29092E-04 1.07068E-18
8.80086E-04 9.53278E-19
9.32601E-04 8.51548E-19
9.86636E-04 7.63048E-19
1.04219E-03 6.85763E-19
1.09927E-03 6.18032E-19
1.15786E-03 5.58462E-19
1.21797E-03 5.05908E-19
1.27961E-03 4.59404E-19
1.34276E-03 4.18133E-19
1.40743E-03 3.81405E-19
1.47362E-03 3.48629E-19
1.54133E-03 3.19307E-19
1.61056E-03 2.93012E-19
1.68131E-03 2.69376E-19
1.75357E-03 2.48085E-19
1.82735E-03 2.28863E-19
1.90265E-03 2.11472E-19
1.97947E-03 1.95709E-19
2.05780E-03 1.81393E-19
2.13765E-03 1.68368E-19
2.21902E-03 1.56497E-19
2.30190E-03 1.45658E-19
2.38630E-03 1.35745E-19
2.47222E-03 1.26666E-19
2.55965E-03 1.18337E-19
2.64859E-03 1.10686E-19
2.73905E-03 1.03646E-19
2.83103E-03 9.71598E-20
2.92452E-03 9.11762E-20
3.01952E-03 8.56490E-20
3.11604E-03 8.05369E-20
3.21407E-03 7.58031E-20
3.31362E-03 7.14141E-20
3.41468E-03 6.73402E-20
3.51725E-03 6.35547E-20
3.62133E-03 6.00334E-20
3.72692E-03 5.67544E-20
3.83403E-03 5.36978E-20
3.94265E-03 5.08457E-20
4.05278E-03 4.81818E-20
4.16442E-03 4.56916E-20
4.27757E-03 4.33614E-20
4.39223E-03 4.11791E-20
4.50840E-03 3.91335E-20
4.62608E-03 3.72143E-20
4.74527E-03 3.54124E-20
4.86597E-03 3.37192E-20
4.98817E-03 3.21269E-20
5.11188E-03 3.06283E-20
5.23711E-03 2.92169E-20
5.36383E-03 2.78866E-20
5.49207E-03 2.66318E-20
5.62181E-03 2.54475E-20
5.75306E-03 2.43291E-20
5.88581E-03 2.32720E-20
6.02007E-03 2.22723E-20
6.15583E-03 2.13262E-20
6.29310E-03 2.04305E-20
6.43187E-03 1.95816E-20
6.57214E-03 1.87771E-20
6.71392E-03 1.80137E-20
6.85720E-03 1.72893E-20
7.00198E-03 1.66012E-20
7.14827E-03 1.59476E-20
7.29605E-03 1.53261E-20
7.44534E-03 1.47350E-20
7.59612E-03 1.41725E-20
7.97965E-03 1.28806E-20
8.37255E-03 1.17344E-20
8.77480E-03 1.07145E-20
9.18641E-03 9.80441E-21
9.60736E-03 8.99024E-21
1.00376E-02 8.26005E-21
1.04773E-02 7.60359E-21
1.09262E-02 7.01206E-21
1.13844E-02 6.47784E-21
1.18520E-02 5.99435E-21
1.23288E-02 5.55590E-21
1.28150E-02 5.15750E-21
1.33104E-02 4.79482E-21
1.38150E-02 4.46406E-21
1.43290E-02 4.16188E-21
1.48521E-02 3.88533E-21
1.53845E-02 3.63185E-21
1.59262E-02 3.39913E-21
1.64770E-02 3.18516E-21
1.70371E-02 2.98813E-21
1.76063E-02 2.80645E-21
1.81848E-02 2.63868E-21
1.87724E-02 2.48357E-21
1.93692E-02 2.33997E-21
1.99751E-02 2.20686E-21
2.05901E-02 2.08332E-21
2.12143E-02 1.96853E-21
2.18476E-02 1.86175E-21
2.24900E-02 1.76232E-21
2.31415E-02 1.66962E-21
2.38021E-02 1.58311E-21
2.44717E-02 1.50230E-21
2.51504E-02 1.42673E-21
2.58382E-02 1.35600E-21
2.65349E-02 1.28973E-21
2.72407E-02 1.22759E-21
2.79555E-02 1.16927E-21
2.86793E-02 1.11449E-21
2.94120E-02 1.06298E-21
3.01537E-02 1.01452E-21
3.09043E-02 9.68880E-22
3.16639E-02 9.25870E-22
3.24324E-02 8.85305E-22
3.32098E-02 8.47019E-22
3.39961E-02 8.10855E-22
3.47912E-02 7.76675E-22
3.55952E-02 7.44343E-22
3.64081E-02 7.13742E-22
3.72297E-02 6.84759E-22
3.80602E-02 6.57289E-22
3.88995E-02 6.31240E-22
3.97476E-02 6.06519E-22
4.06044E-02 5.83048E-22
4.14700E-02 5.60747E-22
4.23443E-02 5.39548E-22
4.32273E-02 5.19383E-22
4.41190E-02 5.00192E-22
4.50194E-02 4.81918E-22
4.59284E-02 4.64508E-22
4.68461E-02 4.47911E-22
4.87074E-02 4.16979E-22
5.06030E-02 3.88787E-22
5.25328E-02 3.63043E-22
5.44967E-02 3.39490E-22
5.64946E-02 3.17903E-22
5.85262E-02 2.98086E-22
6.05914E-02 2.79861E-22
6.26901E-02 2.63075E-22
6.48222E-02 2.47589E-22
6.69873E-02 2.33282E-22
6.91854E-02 2.20045E-22
7.14163E-02 2.07781E-22
7.36799E-02 1.96402E-22
7.59760E-02 1.85832E-22
7.83043E-02 1.75999E-22
8.06647E-02 1.66843E-22
8.30571E-02 1.58305E-22
8.54812E-02 1.50334E-22
8.79369E-02 1.42886E-22
9.04240E-02 1.35917E-22
9.29422E-02 1.29391E-22
9.54915E-02 1.23272E-22
9.80716E-02 1.17530E-22
1.00682E-01 1.12137E-22
1.03323E-01 1.07065E-22
1.05995E-01 1.02293E-22
1.08696E-01 9.77971E-23
1.11427E-01 9.35588E-23
1.14188E-01 8.95598E-23
1.16978E-01 8.57834E-23
1.19797E-01 8.22144E-23
1.22645E-01 7.88386E-23
1.25522E-01 7.56434E-23
1.28428E-01 7.26166E-23
1.31361E-01 6.97475E-23
1.34323E-01 6.70259E-23
1.37313E-01 6.44422E-23
1.40330E-01 6.19881E-23
1.43375E-01 5.96554E-23
1.46447E-01 5.74367E-23
1.49545E-01 5.53251E-23
1.52671E-01 5.33142E-23
1.55823E-01 5.13980E-23
1.59001E-01 4.95711E-23
1.62205E-01 4.78283E-23
1.65435E-01 4.61648E-23
1.68690E-01 4.45761E-23
1.71970E-01 4.30580E-23
1.75276E-01 4.16067E-23
1.78606E-01 4.02185E-23
1.81961E-01 3.88899E-23
1.85340E-01 3.76180E-23
1.88743E-01 3.63995E-23
1.92169E-01 3.52317E-23
1.95619E-01 3.41120E-23
1.99092E-01 3.30380E-23
2.02589E-01 3.20073E-23
2.06107E-01 3.10178E-23
2.09649E-01 3.00674E-23
2.13212E-01 2.91541E-23
2.16797E-01 2.82762E-23
2.20404E-01 2.74320E-23
2.24032E-01 2.66198E-23
2.27680E-01 2.58383E-23
2.31350E-01 2.50858E-23
2.35040E-01 2.43611E-23
2.38751E-01 2.36628E-23
2.42481E-01 2.29899E-23
2.46231E-01 2.23412E-23
2.50000E-01 2.17154E-23
2.53788E-01 2.11117E-23
2.57595E-01 2.05291E-23
2.61421E-01 1.99667E-23
2.65264E-01 1.94236E-23
2.69126E-01 1.88989E-23
2.73005E-01 1.83919E-23
2.76901E-01 1.79018E-23
2.80814E-01 1.74280E-23
2.84744E-01 1.69698E-23
2.88691E-01 1.65265E-23
2.92653E-01 1.60975E-23
2.96632E-01 1.56822E-23
3.00625E-01 1.52802E-23
3.04634E-01 1.48908E-23
3.08658E-01 1.45137E-23
3.12697E-01 1.41482E-23
3.16749E-01 1.37940E-23
3.20816E-01 1.34506E-23
3.24896E-01 1.31176E-23
3.28990E-01 1.27947E-23
3.33097E-01 1.24813E-23
3.37216E-01 1.21773E-23
3.41348E-01 1.18822E-23
3.45492E-01 1.15958E-23
3.49647E-01 1.13176E-23
3.53814E-01 1.10475E-23
3.57992E-01 1.07850E-23
3.62181E-01 1.05300E-23
3.66381E-01 1.02822E-23
3.70590E-01 1.00414E-23
3.74810E-01 9.80721E-24
3.79039E-01 9.57950E-24
3.83277E-01 9.35803E-24
3.87524E-01 9.14258E-24
3.91780E-01 8.93297E-24
3.96044E-01 8.72899E-24
4.00316E-01 8.53045E-24
4.04596E-01 8.33717E-24
4.08882E-01 8.14899E-24
4.13176E-01 7.96573E-24
4.17476E-01 7.78724E-24
4.21783E-01 7.61337E-24
4.26095E-01 7.44396E-24
4.30413E-01 7.27887E-24
4.34737E-01 7.11797E-24
4.39065E-01 6.96114E-24
4.43398E-01 6.80824E-24
4.47736E-01 6.65914E-24
4.52077E-01 6.51374E-24
4.56422E-01 6.37192E-24
4.60770E-01 6.23357E-24
4.65122E-01 6.09860E-24
4.69476E-01 5.96688E-24
4.73832E-01 5.83834E-24
4.78190E-01 5.71288E-24
4.82550E-01 5.59041E-24
4.86912E-01 5.47084E-24
4.91274E-01 5.35408E-24
4.95637E-01 5.24005E-24
5.00000E-01 5.12869E-24
5.04363E-01 5.01991E-24
5.08726E-01 4.91363E-24
5.13088E-01 4.80979E-24
5.17450E-01 4.70832E-24
5.21810E-01 4.60916E-24
5.26168E-01 4.51224E-24
5.30524E-01 4.41750E-24
5.34878E-01 4.32487E-24
5.39230E-01 4.23431E-24
5.43578E-01 4.14576E-24
5.47923E-01 4.05916E-24
5.52264E-01 3.97446E-24
5.56602E-01 3.89161E-24
5.60935E-01 3.81056E-24
5.65263E-01 3.73127E-24
5.69587E-01 3.65369E-24
5.73905E-01 3.57777E-24
5.78217E-01 3.50347E-24
5.82524E-01 3.43076E-24
5.86824E-01 3.35958E-24
5.91118E-01 3.28991E-24
5.95404E-01 3.22170E-24
5.99684E-01 3.15492E-24
6.03956E-01 3.08953E-24
6.08220E-01 3.02549E-24
6.12476E-01 2.96278E-24
6.16723E-01 2.90137E-24
6.20961E-01 2.84121E-24
6.25190E-01 2.78228E-24
6.29410E-01 2.72456E-24
6.33619E-01 2.66801E-24
6.37819E-01 2.61258E-24
6.42008E-01 2.55826E-24
6.46186E-01 2.50502E-24
6.50353E-01 2.45285E-24
6.54508E-01 2.40172E-24
6.58652E-01 2.35161E-24
6.62784E-01 2.30248E-24
6.66903E-01 2.25433E-24
6.71010E-01 2.20712E-24
6.75104E-01 2.16083E-24
6.79184E-01 2.11546E-24
6.83251E-01 2.07096E-24
6.87303E-01 2.02733E-24
6.91342E-01 1.98455E-24
6.95366E-01 1.94259E-24
6.99375E-01 1.90144E-24
7.03368E-01 1.86108E-24
7.07347E-01 1.82149E-24
7.11309E-01 1.78266E-24
7.15256E-01 1.74457E-24
7.19186E-01 1.70721E-24
7.23099E-01 1.67055E-24
7.26995E-01 1.63459E-24
7.30874E-01 1.59931E-24
7.34736E-01 1.56469E-24
7.38579E-01 1.53072E-24
7.42405E-01 1.49739E-24
7.46212E-01 1.46469E-24
7.50000E-01 1.43260E-24
7.53769E-01 1.40111E-24
7.57519E-01 1.37020E-24
7.61249E-01 1.33987E-24
7.64960E-01 1.31011E-24
7.68650E-01 1.28089E-24
7.72320E-01 1.25222E-24
7.75968E-01 1.22408E-24
7.79596E-01 1.19646E-24
7.83203E-01 1.16935E-24
7.86788E-01 1.14274E-24
7.90351E-01 1.11663E-24
7.93893E-01 1.09099E-24
7.97411E-01 1.06582E-24
8.00908E-01 1.04112E-24
8.04381E-01 1.01688E-24
8.07831E-01 9.93077E-25
8.11257E-01 9.69715E-25
8.14660E-01 9.46782E-25
8.18039E-01 9.24272E-25
8.21394E-01 9.02175E-25
8.24724E-01 8.80485E-25
8.28030E-01 8.59195E-25
8.31310E-01 8.38297E-25
8.34565E-01 8.17784E-25
8.37795E-01 7.97649E-25
8.40999E-01 7.77886E-25
8.44177E-01 7.58489E-25
8.47329E-01 7.39450E-25
8.50455E-01 7.20765E-25
8.53553E-01 7.02426E-25
8.56625E-01 6.84428E-25
8.59670E-01 6.66765E-25
8.62687E-01 6.49432E-25
8.65677E-01 6.32422E-25
8.68639E-01 6.15732E-25
8.71572E-01 5.99355E-25
8.74478E-01 5.83287E-25
8.77355E-01 5.67522E-25
8.80203E-01 5.52056E-25
8.83022E-01 5.36884E-25
8.85812E-01 5.22001E-25
8.88573E-01 5.07403E-25
8.91304E-01 4.93086E-25
8.94005E-01 4.79044E-25
8.96677E-01 4.65275E-25
8.99318E-01 4.51773E-25
9.01928E-01 4.38536E-25
9.04508E-01 4.25558E-25
9.07058E-01 4.12837E-25
9.09576E-01 4.00368E-25
9.12063E-01 3.88148E-25
9.14519E-01 3.76173E-25
9.16943E-01 3.64440E-25
9.19335E-01 3.52946E-25
9.21696E-01 3.41687E-25
9.24024E-01 3.30660E-25
9.26320E-01 3.19862E-25
9.28584E-01 3.09290E-25
9.30815E-01 2.98941E-25
9.33013E-01 2.88812E-25
9.35178E-01 2.78901E-25
9.37310E-01 2.69203E-25
9.39409E-01 2.59718E-25
9.41474E-01 2.50442E-25
9.43505E-01 2.41372E-25
9.45503E-01 2.32507E-25
9.47467E-01 2.23843E-25
9.49397E-01 2.15379E-25
9.51293E-01 2.07111E-25
9.53154E-01 1.99039E-25
9.54981E-01 1.91159E-25
9.56773E-01 1.83470E-25
9.58530E-01 1.75970E-25
9.60252E-01 1.68656E-25
9.61940E-01 1.61527E-25
9.63592E-01 1.54580E-25
9.65209E-01 1.47814E-25
9.66790E-01 1.41228E-25
9.68336E-01 1.34819E-25
9.69846E-01 1.28585E-25
9.71321E-01 1.22525E-25
9.72759E-01 1.16638E-25
9.74162E-01 1.10922E-25
9.75528E-01 1.05376E-25
9.76858E-01 9.99973E-26
9.78152E-01 9.47854E-26
9.79410E-01 8.97389E-26
9.80631E-01 8.48563E-26
9.81815E-01 8.01365E-26
9.82963E-01 7.55783E-26
9.84074E-01 7.11804E-26
9.85148E-01 6.69418E-26
9.86185E-01 6.28614E-26
9.87185E-01 5.89382E-26
9.88148E-01 5.51711E-26
9.89074E-01 5.15593E-26
9.89962E-01 4.81017E-26
9.90814E-01 4.47975E-26
9.91627E-01 4.16460E-26
9.92404E-01 3.86462E-26
9.93143E-01 3.57975E-26
9.93844E-01 3.30991E-26
9.94508E-01 3.05504E-26
9.95134E-01 2.81507E-26
9.95722E-01 2.58994E-26
9.96273E-01 2.37959E-26
9.96786E-01 2.18398E-26
9.97261E-01 2.00305E-26
9.97698E-01 1.83677E-26
9.98097E-01 1.68507E-26
9.98459E-01 1.54794E-26
9.98782E-01 1.42534E-26
9.99067E-01 1.31723E-26
9.99315E-01 1.22359E-26
9.99524E-01 1.14440E-26
9.99695E-01 1.07963E-26
9.99829E-01 1.02927E-26
9.99924E-01 9.93306E-27
9.99981E-01 9.71732E-27
1.00000E+00 9.64542E-27
