 #
 # Subroutine ELSEPA. Elastic scattering of electrons and positrons
 #                    by neutral atoms and positive ions
 #
 # Projectile: electron
 # Kinetic energy = 6.00000E+08 eV = 2.20496E+07 a.u.
 #
 # WARNING: High-energy factorization with free-atom DF screening.
 #          Absorption, polarization and exchange corrections are
 #          switched off.
 #          Phase shifts are calculated for the bare nucleus.
 #          Scattering amplitudes are not evaluated.
 #
 # Element: Au,  Z =  79,  atomic weight = 1.96967E+02 g/mol
 #
 # Nuclear model: Fermi distribution
 #                Average radius = 6.22560E-13 cm
 #                Skin thickness = 5.46000E-14 cm
 #
 # Number of electrons = 79
 #
 # Total elastic cross section = 7.67130E-18 cm**2 = 2.73947E-01 a0**2
 # 1st transport cross section = 3.25774E-26 cm**2 = 1.16336E-09 a0**2
 # 2nd transport cross section = 9.77060E-26 cm**2 = 3.48914E-09 a0**2
 #
 #
 # Differential cross section:                       MU=(1-COS(THETA))/2
 #
 #  THETA        MU          DCS          DCS        Sherman      error
 #  (deg)                 (cm**2/sr)   (a0**2/sr)    function
 #----------------------------------------------------------------------
0.00000E+00 1.42544E-08
7.61557E-13 1.34980E-08
1.18994E-12 1.31051E-08
1.71346E-12 1.26533E-08
2.33225E-12 1.21559E-08
3.04617E-12 1.16260E-08
3.85530E-12 1.10758E-08
4.75964E-12 1.05160E-08
5.75917E-12 9.95478E-09
6.85391E-12 9.39925E-09
8.04379E-12 8.85707E-09
9.32893E-12 8.33275E-09
1.07092E-11 7.82957E-09
1.21847E-11 7.34961E-09
1.37554E-11 6.89410E-09
1.54213E-11 6.46354E-09
1.71823E-11 6.05790E-09
1.90386E-11 5.67670E-09
2.09900E-11 5.31926E-09
2.30367E-11 4.98361E-09
2.51785E-11 4.66968E-09
2.74156E-11 4.37656E-09
2.97478E-11 4.10307E-09
3.21752E-11 3.84804E-09
3.46979E-11 3.61027E-09
3.73157E-11 3.38866E-09
4.00286E-11 3.18212E-09
4.28368E-11 2.98962E-09
4.57402E-11 2.81019E-09
4.87388E-11 2.64283E-09
5.18325E-11 2.48648E-09
5.50215E-11 2.34071E-09
5.83057E-11 2.20476E-09
6.16850E-11 2.07791E-09
6.51595E-11 1.95436E-09
6.87293E-11 1.83477E-09
7.23943E-11 1.72624E-09
7.61544E-11 1.62753E-09
1.18991E-10 9.56900E-10
1.71347E-10 5.96125E-10
2.33223E-10 3.91324E-10
3.04617E-10 2.68520E-10
3.85531E-10 1.90951E-10
4.75965E-10 1.39651E-10
5.75917E-10 1.04347E-10
6.85389E-10 7.93198E-11
8.04380E-10 6.12275E-11
9.32891E-10 4.79071E-11
1.07092E-09 3.79531E-11
1.21847E-09 3.04191E-11
1.37554E-09 2.46504E-11
1.54213E-09 2.01926E-11
1.71823E-09 1.66902E-11
1.90386E-09 1.39192E-11
2.09900E-09 1.17114E-11
2.30367E-09 9.93333E-12
2.51785E-09 8.48669E-12
2.74156E-09 7.29794E-12
2.97478E-09 6.31225E-12
3.21752E-09 5.48861E-12
3.46978E-09 4.79585E-12
3.73156E-09 4.20981E-12
4.00286E-09 3.71136E-12
4.28368E-09 3.28517E-12
4.57402E-09 2.91886E-12
4.87388E-09 2.60237E-12
5.18326E-09 2.32754E-12
5.50215E-09 2.08800E-12
5.83057E-09 1.87843E-12
6.16850E-09 1.69447E-12
6.51596E-09 1.53195E-12
6.87293E-09 1.38825E-12
7.23942E-09 1.26174E-12
7.61544E-09 1.14997E-12
1.18991E-08 5.01000E-13
1.71347E-08 2.51859E-13
2.33223E-08 1.40008E-13
3.04617E-08 8.38967E-14
3.85531E-08 5.32969E-14
4.75965E-08 3.54738E-14
5.75917E-08 2.45214E-14
6.85389E-08 1.74879E-14
8.04380E-08 1.28036E-14
9.32891E-08 9.58670E-15
1.07092E-07 7.31846E-15
1.21847E-07 5.68215E-15
1.37554E-07 4.47812E-15
1.54213E-07 3.57645E-15
1.71823E-07 2.89053E-15
1.90386E-07 2.36130E-15
2.09900E-07 1.94779E-15
2.30367E-07 1.62094E-15
2.51785E-07 1.35985E-15
2.74156E-07 1.14927E-15
2.97478E-07 9.77924E-16
3.21752E-07 8.37362E-16
3.46978E-07 7.21178E-16
3.73156E-07 6.24468E-16
4.00286E-07 5.43445E-16
4.28368E-07 4.75151E-16
4.57402E-07 4.17259E-16
4.87388E-07 3.67924E-16
5.18325E-07 3.25673E-16
5.50215E-07 2.89317E-16
5.83057E-07 2.57898E-16
6.16850E-07 2.30630E-16
6.51596E-07 2.06873E-16
6.87293E-07 1.86099E-16
7.23942E-07 1.67869E-16
7.61543E-07 1.51818E-16
1.18991E-06 6.25565E-17
1.71347E-06 3.02848E-17
2.33223E-06 1.63900E-17
3.04617E-06 9.62558E-18
3.85531E-06 6.01759E-18
4.75964E-06 3.95238E-18
5.75916E-06 2.70184E-18
6.85388E-06 1.90902E-18
8.04378E-06 1.38681E-18
9.32888E-06 1.03157E-18
1.07092E-05 7.83141E-19
1.21846E-05 6.05198E-19
1.37553E-05 4.75049E-19
1.54212E-05 3.78084E-19
1.71822E-05 3.04648E-19
1.90385E-05 2.48063E-19
2.09899E-05 2.04283E-19
2.30365E-05 1.69719E-19
2.51783E-05 1.42125E-19
2.74153E-05 1.19885E-19
2.97475E-05 1.01815E-19
3.21749E-05 8.70250E-20
3.46974E-05 7.48342E-20
3.73152E-05 6.47154E-20
4.00281E-05 5.62583E-20
4.28362E-05 4.91423E-20
4.57395E-05 4.31168E-20
4.87380E-05 3.79853E-20
5.18317E-05 3.35929E-20
5.50205E-05 2.98160E-20
5.83045E-05 2.65549E-20
6.16838E-05 2.37283E-20
6.51582E-05 2.12690E-20
6.87277E-05 1.91213E-20
7.23925E-05 1.72389E-20
7.61524E-05 1.58835E-20
9.21439E-05 1.08780E-20
1.09658E-04 7.69754E-21
1.28695E-04 5.59863E-21
1.49255E-04 4.16734E-21
1.71338E-04 3.16436E-21
1.94942E-04 2.44443E-21
2.20070E-04 1.91687E-21
2.46720E-04 1.52315E-21
2.74892E-04 1.22452E-21
3.04586E-04 9.94745E-22
3.35803E-04 8.15648E-22
3.68542E-04 6.74418E-22
4.02802E-04 5.61876E-22
4.38585E-04 4.71335E-22
4.75889E-04 3.97855E-22
5.14715E-04 3.37748E-22
5.55063E-04 2.88216E-22
5.96931E-04 2.47127E-22
6.40321E-04 2.12828E-22
6.85233E-04 1.84032E-22
7.31665E-04 1.59729E-22
7.79618E-04 1.39115E-22
8.29092E-04 1.21551E-22
8.80086E-04 1.06520E-22
9.32601E-04 9.36066E-23
9.86636E-04 8.24705E-23
1.04219E-03 7.28335E-23
1.09927E-03 6.44666E-23
1.15786E-03 5.71799E-23
1.21797E-03 5.08159E-23
1.27961E-03 4.52424E-23
1.34276E-03 4.03489E-23
1.40743E-03 3.60422E-23
1.47362E-03 3.22432E-23
1.54133E-03 2.88850E-23
1.61056E-03 2.59105E-23
1.68131E-03 2.32708E-23
1.75357E-03 2.09240E-23
1.82735E-03 1.88342E-23
1.90265E-03 1.69702E-23
1.97947E-03 1.53050E-23
2.05780E-03 1.38155E-23
2.13765E-03 1.24812E-23
2.21902E-03 1.12845E-23
2.30190E-03 1.02099E-23
2.38630E-03 9.24378E-24
2.47222E-03 8.37436E-24
2.55965E-03 7.59113E-24
2.64859E-03 6.88487E-24
2.73905E-03 6.24747E-24
2.83103E-03 5.67171E-24
2.92452E-03 5.15124E-24
3.01952E-03 4.68037E-24
3.11604E-03 4.25411E-24
3.21407E-03 3.86795E-24
3.31362E-03 3.51792E-24
3.41468E-03 3.20047E-24
3.51725E-03 2.91239E-24
3.62133E-03 2.65084E-24
3.72692E-03 2.41328E-24
3.83403E-03 2.19741E-24
3.94265E-03 2.00117E-24
4.05278E-03 1.82271E-24
4.16442E-03 1.66037E-24
4.27757E-03 1.51266E-24
4.39223E-03 1.37820E-24
4.50840E-03 1.25580E-24
4.62608E-03 1.14433E-24
4.74527E-03 1.04281E-24
4.86597E-03 9.50336E-25
4.98817E-03 8.66084E-25
5.11188E-03 7.89318E-25
5.23711E-03 7.19365E-25
5.36383E-03 6.55616E-25
5.49207E-03 5.97518E-25
5.62181E-03 5.44569E-25
5.75306E-03 4.96311E-25
5.88581E-03 4.52330E-25
6.02007E-03 4.12247E-25
6.15583E-03 3.75718E-25
6.29310E-03 3.42431E-25
6.43187E-03 3.12099E-25
6.57214E-03 2.84463E-25
6.71392E-03 2.59286E-25
6.85720E-03 2.36351E-25
7.00198E-03 2.15461E-25
7.14827E-03 1.96437E-25
7.29605E-03 1.79115E-25
7.44534E-03 1.63344E-25
7.59612E-03 1.48987E-25
7.97965E-03 1.18494E-25
8.37255E-03 9.44195E-26
8.77480E-03 7.54315E-26
9.18641E-03 6.04679E-26
9.60736E-03 4.86829E-26
1.00376E-02 3.94035E-26
1.04773E-02 3.20948E-26
1.09262E-02 2.63322E-26
1.13844E-02 2.17800E-26
1.18520E-02 1.81726E-26
1.23288E-02 1.53011E-26
1.28150E-02 1.30016E-26
1.33104E-02 1.11460E-26
1.38150E-02 9.63435E-27
1.43290E-02 8.38947E-27
1.48521E-02 7.35178E-27
1.53845E-02 6.47561E-27
1.59262E-02 5.72613E-27
1.64770E-02 5.07697E-27
1.70371E-02 4.50823E-27
1.76063E-02 4.00499E-27
1.81848E-02 3.55609E-27
1.87724E-02 3.15319E-27
1.93692E-02 2.79005E-27
1.99751E-02 2.46195E-27
2.05901E-02 2.16527E-27
2.12143E-02 1.89715E-27
2.18476E-02 1.65529E-27
2.24900E-02 1.43772E-27
2.31415E-02 1.24272E-27
2.38021E-02 1.06871E-27
2.44717E-02 9.14201E-28
2.51504E-02 7.77759E-28
2.58382E-02 6.57992E-28
2.65349E-02 5.53531E-28
2.72407E-02 4.63041E-28
2.79555E-02 3.85218E-28
2.86793E-02 3.18799E-28
2.94120E-02 2.62569E-28
3.01537E-02 2.15373E-28
3.09043E-02 1.76115E-28
3.16639E-02 1.43775E-28
3.24324E-02 1.17405E-28
3.32098E-02 9.61349E-29
3.39961E-02 7.91764E-29
3.47912E-02 6.58196E-29
3.55952E-02 5.54332E-29
3.64081E-02 4.74617E-29
3.72297E-02 4.14219E-29
3.80602E-02 3.68985E-29
3.88995E-02 3.35393E-29
3.97476E-02 3.10496E-29
4.06044E-02 2.91872E-29
4.14700E-02 2.77563E-29
4.23443E-02 2.66022E-29
4.32273E-02 2.56060E-29
4.41190E-02 2.46794E-29
4.50194E-02 2.37595E-29
4.59284E-02 2.28050E-29
4.68461E-02 2.17920E-29
4.87074E-02 1.95584E-29
5.06030E-02 1.70841E-29
5.25328E-02 1.44820E-29
5.44967E-02 1.18941E-29
5.64946E-02 9.45404E-30
5.85262E-02 7.26571E-30
6.05914E-02 5.39515E-30
6.26901E-02 3.87044E-30
6.48222E-02 2.68715E-30
6.69873E-02 1.81640E-30
6.91854E-02 1.21357E-30
7.14163E-02 8.26406E-31
7.36799E-02 6.01708E-31
7.59760E-02 4.90262E-31
7.83043E-02 4.50001E-31
8.06647E-02 4.47571E-31
8.30571E-02 4.58607E-31
8.54812E-02 4.67079E-31
8.79369E-02 4.64032E-31
9.04240E-02 4.46044E-31
9.29422E-02 4.13622E-31
9.54915E-02 3.69730E-31
9.80716E-02 3.18536E-31
1.00682E-01 2.64453E-31
1.03323E-01 2.11467E-31
1.05995E-01 1.62737E-31
1.08696E-01 1.20418E-31
1.11427E-01 8.56639E-32
1.14188E-01 5.87374E-32
1.16978E-01 3.92019E-32
1.19797E-01 2.61325E-32
1.22645E-01 1.83254E-32
1.25522E-01 1.44804E-32
1.28428E-01 1.33461E-32
1.31361E-01 1.38205E-32
1.34323E-01 1.50112E-32
1.37313E-01 1.62582E-32
1.40330E-01 1.71287E-32
1.43375E-01 1.73907E-32
1.46447E-01 1.69751E-32
1.49545E-01 1.59326E-32
1.52671E-01 1.43905E-32
1.55823E-01 1.25153E-32
1.59001E-01 1.04816E-32
1.62205E-01 8.44914E-33
1.65435E-01 6.54830E-33
1.68690E-01 4.87280E-33
1.71970E-01 3.47831E-33
1.75276E-01 2.38555E-33
1.78606E-01 1.58628E-33
1.81961E-01 1.05073E-33
1.85340E-01 7.35394E-34
1.88743E-01 5.90231E-34
1.92169E-01 5.64706E-34
1.95619E-01 6.12402E-34
1.99092E-01 6.94089E-34
2.02589E-01 7.79349E-34
2.06107E-01 8.46978E-34
2.09649E-01 8.84433E-34
2.13212E-01 8.86618E-34
2.16797E-01 8.54298E-34
2.20404E-01 7.92383E-34
2.24032E-01 7.08277E-34
2.27680E-01 6.10426E-34
2.31350E-01 5.07153E-34
2.35040E-01 4.05815E-34
2.38751E-01 3.12273E-34
2.42481E-01 2.30648E-34
2.46231E-01 1.63310E-34
2.50000E-01 1.11037E-34
2.53788E-01 7.32950E-35
2.57595E-01 4.85687E-35
2.61421E-01 3.47119E-35
2.65264E-01 2.92693E-35
2.69126E-01 2.97524E-35
2.73005E-01 3.38543E-35
2.76901E-01 3.95971E-35
2.80814E-01 4.54171E-35
2.84744E-01 5.01932E-35
2.88691E-01 5.32309E-35
2.92653E-01 5.42136E-35
2.96632E-01 5.31333E-35
3.00625E-01 5.02114E-35
3.04634E-01 4.58201E-35
3.08658E-01 4.04087E-35
3.12697E-01 3.44432E-35
3.16749E-01 2.83575E-35
3.20816E-01 2.25208E-35
3.24896E-01 1.72183E-35
3.28990E-01 1.26432E-35
3.33097E-01 8.90008E-36
3.37216E-01 6.01421E-36
3.41348E-01 3.94602E-36
3.45492E-01 2.60777E-36
3.49647E-01 1.88048E-36
3.53814E-01 1.62983E-36
3.57992E-01 1.71956E-36
3.62181E-01 2.02221E-36
3.66381E-01 2.42670E-36
3.70590E-01 2.84297E-36
3.74810E-01 3.20389E-36
3.79039E-01 3.46501E-36
3.83277E-01 3.60257E-36
3.87524E-01 3.61044E-36
3.91780E-01 3.49629E-36
3.96044E-01 3.27772E-36
4.00316E-01 2.97845E-36
4.04596E-01 2.62486E-36
4.08882E-01 2.24328E-36
4.13176E-01 1.85776E-36
4.17476E-01 1.48868E-36
4.21783E-01 1.15181E-36
4.26095E-01 8.58066E-37
4.30413E-01 6.13659E-37
4.34737E-01 4.20569E-37
4.39065E-01 2.77235E-37
4.43398E-01 1.79376E-37
4.47736E-01 1.20819E-37
4.52077E-01 9.43084E-38
4.56422E-01 9.22045E-38
4.60770E-01 1.07072E-37
4.65122E-01 1.32117E-37
4.69476E-01 1.61501E-37
4.73832E-01 1.90516E-37
4.78190E-01 2.15637E-37
4.82550E-01 2.34507E-37
4.86912E-01 2.45822E-37
4.91274E-01 2.49183E-37
4.95637E-01 2.44924E-37
5.00000E-01 2.33914E-37
5.04363E-01 2.17383E-37
5.08726E-01 1.96752E-37
5.13088E-01 1.73490E-37
5.17450E-01 1.49004E-37
5.21810E-01 1.24551E-37
5.26168E-01 1.01186E-37
5.30524E-01 7.97280E-38
5.34878E-01 1.00000E-45
5.39230E-01 1.00000E-45
5.43578E-01 1.00000E-45
5.47923E-01 1.00000E-45
5.52264E-01 1.00000E-45
5.56602E-01 1.00000E-45
5.60935E-01 1.00000E-45
5.65263E-01 1.00000E-45
5.69587E-01 1.00000E-45
5.73905E-01 1.00000E-45
5.78217E-01 1.00000E-45
5.82524E-01 1.00000E-45
5.86824E-01 1.00000E-45
5.91118E-01 1.00000E-45
5.95404E-01 1.00000E-45
5.99684E-01 1.00000E-45
6.03956E-01 1.00000E-45
6.08220E-01 1.00000E-45
6.12476E-01 1.00000E-45
6.16723E-01 1.00000E-45
6.20961E-01 1.00000E-45
6.25190E-01 1.00000E-45
6.29410E-01 1.00000E-45
6.33619E-01 1.00000E-45
6.37819E-01 1.00000E-45
6.42008E-01 1.00000E-45
6.46186E-01 1.00000E-45
6.50353E-01 1.00000E-45
6.54508E-01 1.00000E-45
6.58652E-01 1.00000E-45
6.62784E-01 1.00000E-45
6.66903E-01 1.00000E-45
6.71010E-01 1.00000E-45
6.75104E-01 1.00000E-45
6.79184E-01 1.00000E-45
6.83251E-01 1.00000E-45
6.87303E-01 1.00000E-45
6.91342E-01 1.00000E-45
6.95366E-01 1.00000E-45
6.99375E-01 1.00000E-45
7.03368E-01 1.00000E-45
7.07347E-01 1.00000E-45
7.11309E-01 1.00000E-45
7.15256E-01 1.00000E-45
7.19186E-01 1.00000E-45
7.23099E-01 1.00000E-45
7.26995E-01 1.00000E-45
7.30874E-01 1.00000E-45
7.34736E-01 1.00000E-45
7.38579E-01 1.00000E-45
7.42405E-01 1.00000E-45
7.46212E-01 1.00000E-45
7.50000E-01 1.00000E-45
7.53769E-01 1.00000E-45
7.57519E-01 1.00000E-45
7.61249E-01 1.00000E-45
7.64960E-01 1.00000E-45
7.68650E-01 1.00000E-45
7.72320E-01 1.00000E-45
7.75968E-01 1.00000E-45
7.79596E-01 1.00000E-45
7.83203E-01 1.00000E-45
7.86788E-01 1.00000E-45
7.90351E-01 1.00000E-45
7.93893E-01 1.00000E-45
7.97411E-01 1.00000E-45
8.00908E-01 1.00000E-45
8.04381E-01 1.00000E-45
8.07831E-01 1.00000E-45
8.11257E-01 1.00000E-45
8.14660E-01 1.00000E-45
8.18039E-01 1.00000E-45
8.21394E-01 1.00000E-45
8.24724E-01 1.00000E-45
8.28030E-01 1.00000E-45
8.31310E-01 1.00000E-45
8.34565E-01 1.00000E-45
8.37795E-01 1.00000E-45
8.40999E-01 1.00000E-45
8.44177E-01 1.00000E-45
8.47329E-01 1.00000E-45
8.50455E-01 1.00000E-45
8.53553E-01 1.00000E-45
8.56625E-01 1.00000E-45
8.59670E-01 1.00000E-45
8.62687E-01 1.00000E-45
8.65677E-01 1.00000E-45
8.68639E-01 1.00000E-45
8.71572E-01 1.00000E-45
8.74478E-01 1.00000E-45
8.77355E-01 1.00000E-45
8.80203E-01 1.00000E-45
8.83022E-01 1.00000E-45
8.85812E-01 1.00000E-45
8.88573E-01 1.00000E-45
8.91304E-01 1.00000E-45
8.94005E-01 1.00000E-45
8.96677E-01 1.00000E-45
8.99318E-01 1.00000E-45
9.01928E-01 1.00000E-45
9.04508E-01 1.00000E-45
9.07058E-01 1.00000E-45
9.09576E-01 1.00000E-45
9.12063E-01 1.00000E-45
9.14519E-01 1.00000E-45
9.16943E-01 1.00000E-45
9.19335E-01 1.00000E-45
9.21696E-01 1.00000E-45
9.24024E-01 1.00000E-45
9.26320E-01 1.00000E-45
9.28584E-01 1.00000E-45
9.30815E-01 1.00000E-45
9.33013E-01 1.00000E-45
9.35178E-01 1.00000E-45
9.37310E-01 1.00000E-45
9.39409E-01 1.00000E-45
9.41474E-01 1.00000E-45
9.43505E-01 1.00000E-45
9.45503E-01 1.00000E-45
9.47467E-01 1.00000E-45
9.49397E-01 1.00000E-45
9.51293E-01 1.00000E-45
9.53154E-01 1.00000E-45
9.54981E-01 1.00000E-45
9.56773E-01 1.00000E-45
9.58530E-01 1.00000E-45
9.60252E-01 1.00000E-45
9.61940E-01 1.00000E-45
9.63592E-01 1.00000E-45
9.65209E-01 1.00000E-45
9.66790E-01 1.00000E-45
9.68336E-01 1.00000E-45
9.69846E-01 1.00000E-45
9.71321E-01 1.00000E-45
9.72759E-01 1.00000E-45
9.74162E-01 1.00000E-45
9.75528E-01 1.00000E-45
9.76858E-01 1.00000E-45
9.78152E-01 1.00000E-45
9.79410E-01 1.00000E-45
9.80631E-01 1.00000E-45
9.81815E-01 1.00000E-45
9.82963E-01 1.00000E-45
9.84074E-01 1.00000E-45
9.85148E-01 1.00000E-45
9.86185E-01 1.00000E-45
9.87185E-01 1.00000E-45
9.88148E-01 1.00000E-45
9.89074E-01 1.00000E-45
9.89962E-01 1.00000E-45
9.90814E-01 1.00000E-45
9.91627E-01 1.00000E-45
9.92404E-01 1.00000E-45
9.93143E-01 1.00000E-45
9.93844E-01 1.00000E-45
9.94508E-01 1.00000E-45
9.95134E-01 1.00000E-45
9.95722E-01 1.00000E-45
9.96273E-01 1.00000E-45
9.96786E-01 1.00000E-45
9.97261E-01 1.00000E-45
9.97698E-01 1.00000E-45
9.98097E-01 1.00000E-45
9.98459E-01 1.00000E-45
9.98782E-01 1.00000E-45
9.99067E-01 1.00000E-45
9.99315E-01 1.00000E-45
9.99524E-01 1.00000E-45
9.99695E-01 1.00000E-45
9.99829E-01 1.00000E-45
9.99924E-01 1.00000E-45
9.99981E-01 1.00000E-45
1.00000E+00 1.00000E-45
