 #
 # Subroutine ELSEPA. Elastic scattering of electrons and positrons
 #                    by neutral atoms and positive ions
 #
 # Projectile: electron
 # Kinetic energy = 3.00000E+07 eV = 1.10248E+06 a.u.
 #
 # WARNING: High-energy factorization with free-atom DF screening.
 #          Absorption, polarization and exchange corrections are
 #          switched off.
 #          Phase shifts are calculated for the bare nucleus.
 #          Scattering amplitudes are not evaluated.
 #
 # Element: Au,  Z =  79,  atomic weight = 1.96967E+02 g/mol
 #
 # Nuclear model: Fermi distribution
 #                Average radius = 6.22560E-13 cm
 #                Skin thickness = 5.46000E-14 cm
 #
 # Number of electrons = 79
 #
 # Total elastic cross section = 7.68063E-18 cm**2 = 2.74280E-01 a0**2
 # 1st transport cross section = 1.28017E-23 cm**2 = 4.57157E-07 a0**2
 # 2nd transport cross section = 3.67123E-23 cm**2 = 1.31102E-06 a0**2
 #
 #
 # Differential cross section:                       MU=(1-COS(THETA))/2
 #
 #  THETA        MU          DCS          DCS        Sherman      error
 #  (deg)                 (cm**2/sr)   (a0**2/sr)    function
 #----------------------------------------------------------------------
0.00000E+00 3.67977E-11
7.61557E-13 3.67923E-11
1.18994E-12 3.67893E-11
1.71346E-12 3.67856E-11
2.33225E-12 3.67813E-11
3.04617E-12 3.67763E-11
3.85530E-12 3.67707E-11
4.75964E-12 3.67644E-11
5.75917E-12 3.67575E-11
6.85391E-12 3.67498E-11
8.04379E-12 3.67416E-11
9.32893E-12 3.67327E-11
1.07092E-11 3.67231E-11
1.21847E-11 3.67128E-11
1.37554E-11 3.67020E-11
1.54213E-11 3.66904E-11
1.71823E-11 3.66782E-11
1.90386E-11 3.66654E-11
2.09900E-11 3.66519E-11
2.30367E-11 3.66378E-11
2.51785E-11 3.66230E-11
2.74156E-11 3.66076E-11
2.97478E-11 3.65916E-11
3.21752E-11 3.65749E-11
3.46979E-11 3.65575E-11
3.73157E-11 3.65396E-11
4.00286E-11 3.65210E-11
4.28368E-11 3.65017E-11
4.57402E-11 3.64818E-11
4.87388E-11 3.64613E-11
5.18325E-11 3.64402E-11
5.50215E-11 3.64185E-11
5.83057E-11 3.63961E-11
6.16850E-11 3.63731E-11
6.51595E-11 3.63495E-11
6.87293E-11 3.63253E-11
7.23943E-11 3.63004E-11
7.61544E-11 3.62750E-11
1.18991E-10 3.59873E-11
1.71347E-10 3.56416E-11
2.33223E-10 3.52410E-11
3.04617E-10 3.47856E-11
3.85531E-10 3.42901E-11
4.75965E-10 3.37431E-11
5.75917E-10 3.31649E-11
6.85389E-10 3.25468E-11
8.04380E-10 3.19027E-11
9.32891E-10 3.12329E-11
1.07092E-09 3.05398E-11
1.21847E-09 2.98364E-11
1.37554E-09 2.91105E-11
1.54213E-09 2.83893E-11
1.71823E-09 2.76457E-11
1.90386E-09 2.69132E-11
2.09900E-09 2.61722E-11
2.30367E-09 2.54399E-11
2.51785E-09 2.47121E-11
2.74156E-09 2.39894E-11
2.97478E-09 2.32829E-11
3.21752E-09 2.25772E-11
3.46978E-09 2.18972E-11
3.73156E-09 2.12149E-11
4.00286E-09 2.05590E-11
4.28368E-09 1.99104E-11
4.57402E-09 1.92819E-11
4.87388E-09 1.86687E-11
5.18326E-09 1.80698E-11
5.50215E-09 1.74927E-11
5.83057E-09 1.69244E-11
6.16850E-09 1.63824E-11
6.51596E-09 1.58458E-11
6.87293E-09 1.53340E-11
7.23942E-09 1.48330E-11
7.61544E-09 1.43510E-11
1.18991E-08 1.03245E-11
1.71347E-08 7.49088E-12
2.33223E-08 5.50640E-12
3.04617E-08 4.05072E-12
3.85531E-08 3.11110E-12
4.75965E-08 2.37357E-12
5.75917E-08 1.86591E-12
6.85389E-08 1.47557E-12
8.04380E-08 1.18834E-12
9.32891E-08 9.67379E-13
1.07092E-07 7.96159E-13
1.21847E-07 6.63185E-13
1.37554E-07 5.55640E-13
1.54213E-07 4.71132E-13
1.71823E-07 4.00374E-13
1.90386E-07 3.43570E-13
2.09900E-07 2.95765E-13
2.30367E-07 2.56215E-13
2.51785E-07 2.22851E-13
2.74156E-07 1.94566E-13
2.97478E-07 1.70683E-13
3.21752E-07 1.50041E-13
3.46978E-07 1.32584E-13
3.73156E-07 1.17296E-13
4.00286E-07 1.04254E-13
4.28368E-07 9.28576E-14
4.57402E-07 8.29962E-14
4.87388E-07 7.43829E-14
5.18325E-07 6.68442E-14
5.50215E-07 6.02521E-14
5.83057E-07 5.44425E-14
6.16850E-07 4.93494E-14
6.51596E-07 4.47838E-14
6.87293E-07 4.07579E-14
7.23942E-07 3.71731E-14
7.61543E-07 3.39870E-14
1.18991E-06 1.54121E-14
1.71347E-06 8.01641E-15
2.33223E-06 4.58108E-15
3.04617E-06 2.80284E-15
3.85531E-06 1.80975E-15
4.75964E-06 1.22085E-15
5.75916E-06 8.52682E-16
6.85388E-06 6.13395E-16
8.04378E-06 4.52467E-16
9.32888E-06 3.40904E-16
1.07092E-05 2.61754E-16
1.21846E-05 2.04297E-16
1.37553E-05 1.61791E-16
1.54212E-05 1.29813E-16
1.71822E-05 1.05357E-16
1.90385E-05 8.63619E-17
2.09899E-05 7.15529E-17
2.30365E-05 5.97761E-17
2.51783E-05 5.03135E-17
2.74153E-05 4.26363E-17
2.97475E-05 3.63642E-17
3.21749E-05 3.12031E-17
3.46974E-05 2.69274E-17
3.73152E-05 2.33631E-17
4.00281E-05 2.03708E-17
4.28362E-05 1.78434E-17
4.57395E-05 1.56956E-17
4.87380E-05 1.38601E-17
5.18317E-05 1.22843E-17
5.50205E-05 1.09253E-17
5.83045E-05 9.74868E-18
6.16838E-05 8.72639E-18
6.51582E-05 7.83474E-18
6.87277E-05 7.05445E-18
7.23925E-05 6.36906E-18
7.61524E-05 5.76394E-18
9.21439E-05 3.95906E-18
1.09658E-04 2.80861E-18
1.28695E-04 2.04772E-18
1.49255E-04 1.52803E-18
1.71338E-04 1.16343E-18
1.94942E-04 9.01471E-19
2.20070E-04 7.09342E-19
2.46720E-04 5.65836E-19
2.74892E-04 4.56894E-19
3.04586E-04 3.72985E-19
3.35803E-04 3.07509E-19
3.68542E-04 2.55809E-19
4.02802E-04 2.14545E-19
4.38585E-04 1.81288E-19
4.75889E-04 1.54242E-19
5.14715E-04 1.32066E-19
5.55063E-04 1.13741E-19
5.96931E-04 9.84931E-20
6.40321E-04 8.57218E-20
6.85233E-04 7.49591E-20
7.31665E-04 6.58375E-20
7.79618E-04 5.80649E-20
8.29092E-04 5.14093E-20
8.80086E-04 4.56828E-20
9.32601E-04 4.07340E-20
9.86636E-04 3.64395E-20
1.04219E-03 3.26980E-20
1.09927E-03 2.94262E-20
1.15786E-03 2.65548E-20
1.21797E-03 2.40265E-20
1.27961E-03 2.17931E-20
1.34276E-03 1.98143E-20
1.40743E-03 1.80560E-20
1.47362E-03 1.64892E-20
1.54133E-03 1.50895E-20
1.61056E-03 1.38359E-20
1.68131E-03 1.27103E-20
1.75357E-03 1.16975E-20
1.82735E-03 1.07841E-20
1.90265E-03 9.95864E-21
1.97947E-03 9.21104E-21
2.05780E-03 8.53268E-21
2.13765E-03 7.91599E-21
2.21902E-03 7.35435E-21
2.30190E-03 6.84196E-21
2.38630E-03 6.37369E-21
2.47222E-03 5.94506E-21
2.55965E-03 5.55210E-21
2.64859E-03 5.19130E-21
2.73905E-03 4.85954E-21
2.83103E-03 4.55405E-21
2.92452E-03 4.27238E-21
3.01952E-03 4.01230E-21
3.11604E-03 3.77187E-21
3.21407E-03 3.54932E-21
3.31362E-03 3.34308E-21
3.41468E-03 3.15173E-21
3.51725E-03 2.97399E-21
3.62133E-03 2.80871E-21
3.72692E-03 2.65485E-21
3.83403E-03 2.51148E-21
3.94265E-03 2.37775E-21
4.05278E-03 2.25288E-21
4.16442E-03 2.13618E-21
4.27757E-03 2.02702E-21
4.39223E-03 1.92480E-21
4.50840E-03 1.82902E-21
4.62608E-03 1.73917E-21
4.74527E-03 1.65484E-21
4.86597E-03 1.57561E-21
4.98817E-03 1.50111E-21
5.11188E-03 1.43101E-21
5.23711E-03 1.36501E-21
5.36383E-03 1.30280E-21
5.49207E-03 1.24414E-21
5.62181E-03 1.18879E-21
5.75306E-03 1.13651E-21
5.88581E-03 1.08711E-21
6.02007E-03 1.04040E-21
6.15583E-03 9.96195E-22
6.29310E-03 9.54345E-22
6.43187E-03 9.14697E-22
6.57214E-03 8.77114E-22
6.71392E-03 8.41465E-22
6.85720E-03 8.07633E-22
7.00198E-03 7.75505E-22
7.14827E-03 7.44980E-22
7.29605E-03 7.15963E-22
7.44534E-03 6.88364E-22
7.59612E-03 6.62100E-22
7.97965E-03 6.01786E-22
8.37255E-03 5.48275E-22
8.77480E-03 5.00659E-22
9.18641E-03 4.58172E-22
9.60736E-03 4.20160E-22
1.00376E-02 3.86064E-22
1.04773E-02 3.55408E-22
1.09262E-02 3.27778E-22
1.13844E-02 3.02823E-22
1.18520E-02 2.80234E-22
1.23288E-02 2.59743E-22
1.28150E-02 2.41121E-22
1.33104E-02 2.24164E-22
1.38150E-02 2.08695E-22
1.43290E-02 1.94559E-22
1.48521E-02 1.81619E-22
1.53845E-02 1.69754E-22
1.59262E-02 1.58859E-22
1.64770E-02 1.48837E-22
1.70371E-02 1.39607E-22
1.76063E-02 1.31093E-22
1.81848E-02 1.23229E-22
1.87724E-02 1.15955E-22
1.93692E-02 1.09219E-22
1.99751E-02 1.02973E-22
2.05901E-02 9.71750E-23
2.12143E-02 9.17857E-23
2.18476E-02 8.67710E-23
2.24900E-02 8.20997E-23
2.31415E-02 7.77436E-23
2.38021E-02 7.36773E-23
2.44717E-02 6.98777E-23
2.51504E-02 6.63237E-23
2.58382E-02 6.29966E-23
2.65349E-02 5.98788E-23
2.72407E-02 5.69546E-23
2.79555E-02 5.42097E-23
2.86793E-02 5.16311E-23
2.94120E-02 4.92048E-23
3.01537E-02 4.69210E-23
3.09043E-02 4.47701E-23
3.16639E-02 4.27426E-23
3.24324E-02 4.08302E-23
3.32098E-02 3.90249E-23
3.39961E-02 3.73195E-23
3.47912E-02 3.57074E-23
3.55952E-02 3.41825E-23
3.64081E-02 3.27391E-23
3.72297E-02 3.13718E-23
3.80602E-02 3.00760E-23
3.88995E-02 2.88471E-23
3.97476E-02 2.76809E-23
4.06044E-02 2.65737E-23
4.14700E-02 2.55217E-23
4.23443E-02 2.45218E-23
4.32273E-02 2.35707E-23
4.41190E-02 2.26656E-23
4.50194E-02 2.18039E-23
4.59284E-02 2.09830E-23
4.68461E-02 2.02007E-23
4.87074E-02 1.87429E-23
5.06030E-02 1.74148E-23
5.25328E-02 1.62028E-23
5.44967E-02 1.50945E-23
5.64946E-02 1.40796E-23
5.85262E-02 1.31485E-23
6.05914E-02 1.22930E-23
6.26901E-02 1.15059E-23
6.48222E-02 1.07805E-23
6.69873E-02 1.01111E-23
6.91854E-02 9.49257E-24
7.14163E-02 8.92026E-24
7.36799E-02 8.39006E-24
7.59760E-02 7.89828E-24
7.83043E-02 7.44160E-24
8.06647E-02 7.01704E-24
8.30571E-02 6.62189E-24
8.54812E-02 6.25374E-24
8.79369E-02 5.91040E-24
9.04240E-02 5.58986E-24
9.29422E-02 5.29033E-24
9.54915E-02 5.01017E-24
9.80716E-02 4.74789E-24
1.00682E-01 4.50214E-24
1.03323E-01 4.27168E-24
1.05995E-01 4.05538E-24
1.08696E-01 3.85221E-24
1.11427E-01 3.66122E-24
1.14188E-01 3.48155E-24
1.16978E-01 3.31241E-24
1.19797E-01 3.15306E-24
1.22645E-01 3.00284E-24
1.25522E-01 2.86112E-24
1.28428E-01 2.72734E-24
1.31361E-01 2.60097E-24
1.34323E-01 2.48154E-24
1.37313E-01 2.36858E-24
1.40330E-01 2.26169E-24
1.43375E-01 2.16049E-24
1.46447E-01 2.06462E-24
1.49545E-01 1.97374E-24
1.52671E-01 1.88756E-24
1.55823E-01 1.80578E-24
1.59001E-01 1.72816E-24
1.62205E-01 1.65443E-24
1.65435E-01 1.58437E-24
1.68690E-01 1.51777E-24
1.71970E-01 1.45442E-24
1.75276E-01 1.39415E-24
1.78606E-01 1.33677E-24
1.81961E-01 1.28213E-24
1.85340E-01 1.23008E-24
1.88743E-01 1.18046E-24
1.92169E-01 1.13316E-24
1.95619E-01 1.08804E-24
1.99092E-01 1.04499E-24
2.02589E-01 1.00389E-24
2.06107E-01 9.64651E-25
2.09649E-01 9.27169E-25
2.13212E-01 8.91354E-25
2.16797E-01 8.57121E-25
2.20404E-01 8.24389E-25
2.24032E-01 7.93083E-25
2.27680E-01 7.63130E-25
2.31350E-01 7.34465E-25
2.35040E-01 7.07023E-25
2.38751E-01 6.80744E-25
2.42481E-01 6.55572E-25
2.46231E-01 6.31454E-25
2.50000E-01 6.08339E-25
2.53788E-01 5.86179E-25
2.57595E-01 5.64930E-25
2.61421E-01 5.44549E-25
2.65264E-01 5.24996E-25
2.69126E-01 5.06231E-25
2.73005E-01 4.88220E-25
2.76901E-01 4.70927E-25
2.80814E-01 4.54321E-25
2.84744E-01 4.38370E-25
2.88691E-01 4.23045E-25
2.92653E-01 4.08319E-25
2.96632E-01 3.94164E-25
3.00625E-01 3.80556E-25
3.04634E-01 3.67472E-25
3.08658E-01 3.54887E-25
3.12697E-01 3.42782E-25
3.16749E-01 3.31134E-25
3.20816E-01 3.19926E-25
3.24896E-01 3.09138E-25
3.28990E-01 2.98752E-25
3.33097E-01 2.88753E-25
3.37216E-01 2.79123E-25
3.41348E-01 2.69847E-25
3.45492E-01 2.60911E-25
3.49647E-01 2.52302E-25
3.53814E-01 2.44004E-25
3.57992E-01 2.36007E-25
3.62181E-01 2.28298E-25
3.66381E-01 2.20866E-25
3.70590E-01 2.13698E-25
3.74810E-01 2.06786E-25
3.79039E-01 2.00118E-25
3.83277E-01 1.93686E-25
3.87524E-01 1.87479E-25
3.91780E-01 1.81490E-25
3.96044E-01 1.75709E-25
4.00316E-01 1.70130E-25
4.04596E-01 1.64743E-25
4.08882E-01 1.59542E-25
4.13176E-01 1.54519E-25
4.17476E-01 1.49669E-25
4.21783E-01 1.44983E-25
4.26095E-01 1.40457E-25
4.30413E-01 1.36084E-25
4.34737E-01 1.31859E-25
4.39065E-01 1.27776E-25
4.43398E-01 1.23829E-25
4.47736E-01 1.20014E-25
4.52077E-01 1.16326E-25
4.56422E-01 1.12761E-25
4.60770E-01 1.09313E-25
4.65122E-01 1.05979E-25
4.69476E-01 1.02754E-25
4.73832E-01 9.96347E-26
4.78190E-01 9.66174E-26
4.82550E-01 9.36982E-26
4.86912E-01 9.08737E-26
4.91274E-01 8.81405E-26
4.95637E-01 8.54954E-26
5.00000E-01 8.29352E-26
5.04363E-01 8.04571E-26
5.08726E-01 7.80582E-26
5.13088E-01 7.57357E-26
5.17450E-01 7.34869E-26
5.21810E-01 7.13093E-26
5.26168E-01 6.92004E-26
5.30524E-01 6.71580E-26
5.34878E-01 6.51797E-26
5.39230E-01 6.32633E-26
5.43578E-01 6.14067E-26
5.47923E-01 5.96079E-26
5.52264E-01 5.78649E-26
5.56602E-01 5.61759E-26
5.60935E-01 5.45391E-26
5.65263E-01 5.29527E-26
5.69587E-01 5.14149E-26
5.73905E-01 4.99243E-26
5.78217E-01 4.84792E-26
5.82524E-01 4.70781E-26
5.86824E-01 4.57196E-26
5.91118E-01 4.44022E-26
5.95404E-01 4.31247E-26
5.99684E-01 4.18857E-26
6.03956E-01 4.06839E-26
6.08220E-01 3.95182E-26
6.12476E-01 3.83873E-26
6.16723E-01 3.72902E-26
6.20961E-01 3.62257E-26
6.25190E-01 3.51929E-26
6.29410E-01 3.41906E-26
6.33619E-01 3.32179E-26
6.37819E-01 3.22739E-26
6.42008E-01 3.13576E-26
6.46186E-01 3.04682E-26
6.50353E-01 2.96048E-26
6.54508E-01 2.87665E-26
6.58652E-01 2.79527E-26
6.62784E-01 2.71625E-26
6.66903E-01 2.63952E-26
6.71010E-01 2.56500E-26
6.75104E-01 2.49263E-26
6.79184E-01 2.42234E-26
6.83251E-01 2.35407E-26
6.87303E-01 2.28775E-26
6.91342E-01 2.22332E-26
6.95366E-01 2.16073E-26
6.99375E-01 2.09991E-26
7.03368E-01 2.04082E-26
7.07347E-01 1.98340E-26
7.11309E-01 1.92760E-26
7.15256E-01 1.87336E-26
7.19186E-01 1.82065E-26
7.23099E-01 1.76942E-26
7.26995E-01 1.71961E-26
7.30874E-01 1.67120E-26
7.34736E-01 1.62413E-26
7.38579E-01 1.57836E-26
7.42405E-01 1.53386E-26
7.46212E-01 1.49059E-26
7.50000E-01 1.44852E-26
7.53769E-01 1.40760E-26
7.57519E-01 1.36780E-26
7.61249E-01 1.32909E-26
7.64960E-01 1.29144E-26
7.68650E-01 1.25481E-26
7.72320E-01 1.21918E-26
7.75968E-01 1.18452E-26
7.79596E-01 1.15079E-26
7.83203E-01 1.11798E-26
7.86788E-01 1.08604E-26
7.90351E-01 1.05497E-26
7.93893E-01 1.02473E-26
7.97411E-01 9.95307E-27
8.00908E-01 9.66665E-27
8.04381E-01 9.38788E-27
8.07831E-01 9.11653E-27
8.11257E-01 8.85239E-27
8.14660E-01 8.59525E-27
8.18039E-01 8.34493E-27
8.21394E-01 8.10122E-27
8.24724E-01 7.86393E-27
8.28030E-01 7.63290E-27
8.31310E-01 7.40794E-27
8.34565E-01 7.18889E-27
8.37795E-01 6.97558E-27
8.40999E-01 6.76785E-27
8.44177E-01 6.56555E-27
8.47329E-01 6.36852E-27
8.50455E-01 6.17663E-27
8.53553E-01 5.98974E-27
8.56625E-01 5.80770E-27
8.59670E-01 5.63039E-27
8.62687E-01 5.45768E-27
8.65677E-01 5.28945E-27
8.68639E-01 5.12557E-27
8.71572E-01 4.96593E-27
8.74478E-01 4.81042E-27
8.77355E-01 4.65893E-27
8.80203E-01 4.51135E-27
8.83022E-01 4.36758E-27
8.85812E-01 4.22752E-27
8.88573E-01 4.09108E-27
8.91304E-01 3.95816E-27
8.94005E-01 3.82867E-27
8.96677E-01 3.70253E-27
8.99318E-01 3.57964E-27
9.01928E-01 3.45993E-27
9.04508E-01 3.34332E-27
9.07058E-01 3.22973E-27
9.09576E-01 3.11909E-27
9.12063E-01 3.01132E-27
9.14519E-01 2.90635E-27
9.16943E-01 2.80411E-27
9.19335E-01 2.70455E-27
9.21696E-01 2.60759E-27
9.24024E-01 2.51317E-27
9.26320E-01 2.42123E-27
9.28584E-01 2.33172E-27
9.30815E-01 2.24458E-27
9.33013E-01 2.15975E-27
9.35178E-01 2.07718E-27
9.37310E-01 1.99682E-27
9.39409E-01 1.91863E-27
9.41474E-01 1.84254E-27
9.43505E-01 1.76852E-27
9.45503E-01 1.69652E-27
9.47467E-01 1.62650E-27
9.49397E-01 1.55841E-27
9.51293E-01 1.49222E-27
9.53154E-01 1.42788E-27
9.54981E-01 1.36536E-27
9.56773E-01 1.30462E-27
9.58530E-01 1.24562E-27
9.60252E-01 1.18833E-27
9.61940E-01 1.13272E-27
9.63592E-01 1.07875E-27
9.65209E-01 1.02639E-27
9.66790E-01 9.75618E-28
9.68336E-01 9.26398E-28
9.69846E-01 8.78703E-28
9.71321E-01 8.32506E-28
9.72759E-01 7.87782E-28
9.74162E-01 7.44504E-28
9.75528E-01 7.02650E-28
9.76858E-01 6.62194E-28
9.78152E-01 6.23116E-28
9.79410E-01 5.85392E-28
9.80631E-01 5.49003E-28
9.81815E-01 5.13928E-28
9.82963E-01 4.80148E-28
9.84074E-01 4.47644E-28
9.85148E-01 4.16400E-28
9.86185E-01 3.86397E-28
9.87185E-01 3.57620E-28
9.88148E-01 3.30053E-28
9.89074E-01 3.03681E-28
9.89962E-01 2.78490E-28
9.90814E-01 2.54467E-28
9.91627E-01 2.31599E-28
9.92404E-01 2.09873E-28
9.93143E-01 1.89278E-28
9.93844E-01 1.69804E-28
9.94508E-01 1.51439E-28
9.95134E-01 1.34174E-28
9.95722E-01 1.18001E-28
9.96273E-01 1.02910E-28
9.96786E-01 8.88938E-29
9.97261E-01 7.59450E-29
9.97698E-01 6.40567E-29
9.98097E-01 5.32227E-29
9.98459E-01 4.34375E-29
9.98782E-01 3.46959E-29
9.99067E-01 2.69933E-29
9.99315E-01 2.03258E-29
9.99524E-01 1.46900E-29
9.99695E-01 1.00828E-29
9.99829E-01 6.50187E-30
9.99924E-01 3.94541E-30
9.99981E-01 2.41206E-30
1.00000E+00 1.90103E-30
