 #
 # Subroutine ELSEPA. Elastic scattering of electrons and positrons
 #                    by neutral atoms and positive ions
 #
 # Projectile: electron
 # Kinetic energy = 8.00000E+06 eV = 2.93995E+05 a.u.
 #
 # WARNING: High-energy factorization with free-atom DF screening.
 #          Absorption, polarization and exchange corrections are
 #          switched off.
 #          Phase shifts are calculated for the bare nucleus.
 #          Scattering amplitudes are not evaluated.
 #
 # Element: Au,  Z =  79,  atomic weight = 1.96967E+02 g/mol
 #
 # Nuclear model: Fermi distribution
 #                Average radius = 6.22560E-13 cm
 #                Skin thickness = 5.46000E-14 cm
 #
 # Number of electrons = 79
 #
 # Total elastic cross section = 7.71376E-18 cm**2 = 2.75463E-01 a0**2
 # 1st transport cross section = 1.52154E-22 cm**2 = 5.43353E-06 a0**2
 # 2nd transport cross section = 4.14268E-22 cm**2 = 1.47938E-05 a0**2
 #
 #
 # Differential cross section:                       MU=(1-COS(THETA))/2
 #
 #  THETA        MU          DCS          DCS        Sherman      error
 #  (deg)                 (cm**2/sr)   (a0**2/sr)    function
 #----------------------------------------------------------------------
0.00000E+00 2.86332E-12
7.61557E-13 2.86328E-12
1.18994E-12 2.86326E-12
1.71346E-12 2.86324E-12
2.33225E-12 2.86322E-12
3.04617E-12 2.86319E-12
3.85530E-12 2.86315E-12
4.75964E-12 2.86311E-12
5.75917E-12 2.86307E-12
6.85391E-12 2.86302E-12
8.04379E-12 2.86297E-12
9.32893E-12 2.86292E-12
1.07092E-11 2.86286E-12
1.21847E-11 2.86280E-12
1.37554E-11 2.86273E-12
1.54213E-11 2.86266E-12
1.71823E-11 2.86259E-12
1.90386E-11 2.86251E-12
2.09900E-11 2.86243E-12
2.30367E-11 2.86234E-12
2.51785E-11 2.86225E-12
2.74156E-11 2.86216E-12
2.97478E-11 2.86206E-12
3.21752E-11 2.86196E-12
3.46979E-11 2.86186E-12
3.73157E-11 2.86175E-12
4.00286E-11 2.86163E-12
4.28368E-11 2.86151E-12
4.57402E-11 2.86139E-12
4.87388E-11 2.86127E-12
5.18325E-11 2.86114E-12
5.50215E-11 2.86100E-12
5.83057E-11 2.86087E-12
6.16850E-11 2.86072E-12
6.51595E-11 2.86058E-12
6.87293E-11 2.86043E-12
7.23943E-11 2.86027E-12
7.61544E-11 2.86012E-12
1.18991E-10 2.85833E-12
1.71347E-10 2.85614E-12
2.33223E-10 2.85356E-12
3.04617E-10 2.85059E-12
3.85531E-10 2.84723E-12
4.75965E-10 2.84348E-12
5.75917E-10 2.83935E-12
6.85389E-10 2.83484E-12
8.04380E-10 2.82995E-12
9.32891E-10 2.82469E-12
1.07092E-09 2.81907E-12
1.21847E-09 2.81307E-12
1.37554E-09 2.80672E-12
1.54213E-09 2.80001E-12
1.71823E-09 2.79295E-12
1.90386E-09 2.78554E-12
2.09900E-09 2.77780E-12
2.30367E-09 2.76972E-12
2.51785E-09 2.76131E-12
2.74156E-09 2.75258E-12
2.97478E-09 2.74353E-12
3.21752E-09 2.73415E-12
3.46978E-09 2.72435E-12
3.73156E-09 2.71431E-12
4.00286E-09 2.70402E-12
4.28368E-09 2.69351E-12
4.57402E-09 2.68277E-12
4.87388E-09 2.67183E-12
5.18326E-09 2.66040E-12
5.50215E-09 2.64866E-12
5.83057E-09 2.63673E-12
6.16850E-09 2.62464E-12
6.51596E-09 2.61240E-12
6.87293E-09 2.60000E-12
7.23942E-09 2.58734E-12
7.61544E-09 2.57415E-12
1.18991E-08 2.43442E-12
1.71347E-08 2.28184E-12
2.33223E-08 2.12335E-12
3.04617E-08 1.96373E-12
3.85531E-08 1.80850E-12
4.75965E-08 1.65887E-12
5.75917E-08 1.51876E-12
6.85389E-08 1.38719E-12
8.04380E-08 1.26630E-12
9.32891E-08 1.15487E-12
1.07092E-07 1.05328E-12
1.21847E-07 9.60681E-13
1.37554E-07 8.76507E-13
1.54213E-07 8.00286E-13
1.71823E-07 7.31013E-13
1.90386E-07 6.68522E-13
2.09900E-07 6.11663E-13
2.30367E-07 5.60409E-13
2.51785E-07 5.13809E-13
2.74156E-07 4.71710E-13
2.97478E-07 4.33481E-13
3.21752E-07 3.98291E-13
3.46978E-07 3.64249E-13
3.73156E-07 3.34556E-13
4.00286E-07 3.08544E-13
4.28368E-07 2.85661E-13
4.57402E-07 2.65450E-13
4.87388E-07 2.47531E-13
5.18325E-07 2.29337E-13
5.50215E-07 2.12302E-13
5.83057E-07 1.97141E-13
6.16850E-07 1.83605E-13
6.51596E-07 1.71482E-13
6.87293E-07 1.60590E-13
7.23942E-07 1.50445E-13
7.61543E-07 1.40342E-13
1.18991E-06 7.64492E-14
1.71347E-06 4.55162E-14
2.33223E-06 2.89018E-14
3.04617E-06 1.91800E-14
3.85531E-06 1.31898E-14
4.75964E-06 9.30706E-15
5.75916E-06 6.74009E-15
6.85388E-06 4.98590E-15
8.04378E-06 3.77055E-15
9.32888E-06 2.90108E-15
1.07092E-05 2.27282E-15
1.21846E-05 1.80904E-15
1.37553E-05 1.45950E-15
1.54212E-05 1.19131E-15
1.71822E-05 9.82204E-16
1.90385E-05 8.16982E-16
2.09899E-05 6.86083E-16
2.30365E-05 5.80552E-16
2.51783E-05 4.94395E-16
2.74153E-05 4.23564E-16
2.97475E-05 3.64870E-16
3.21749E-05 3.15940E-16
3.46974E-05 2.74831E-16
3.73152E-05 2.40507E-16
4.00281E-05 2.11316E-16
4.28362E-05 1.86408E-16
4.57395E-05 1.65209E-16
4.87380E-05 1.46748E-16
5.18317E-05 1.30876E-16
5.50205E-05 1.17088E-16
5.83045E-05 1.05031E-16
6.16838E-05 9.45412E-17
6.51582E-05 8.52812E-17
6.87277E-05 7.71494E-17
7.23925E-05 6.99788E-17
7.61524E-05 6.35936E-17
9.21439E-05 4.43512E-17
1.09658E-04 3.18495E-17
1.28695E-04 2.34667E-17
1.49255E-04 1.76677E-17
1.71338E-04 1.35583E-17
1.94942E-04 1.05788E-17
2.20070E-04 8.37614E-18
2.46720E-04 6.71933E-18
2.74892E-04 5.45304E-18
3.04586E-04 4.47213E-18
3.35803E-04 3.70215E-18
3.68542E-04 3.09126E-18
4.02802E-04 2.60125E-18
4.38585E-04 2.20469E-18
4.75889E-04 1.88086E-18
5.14715E-04 1.61438E-18
5.55063E-04 1.39347E-18
5.96931E-04 1.20908E-18
6.40321E-04 1.05422E-18
6.85233E-04 9.23377E-19
7.31665E-04 8.12247E-19
7.79618E-04 7.17337E-19
8.29092E-04 6.35921E-19
8.80086E-04 5.65741E-19
9.32601E-04 5.04999E-19
9.86636E-04 4.52208E-19
1.04219E-03 4.06150E-19
1.09927E-03 3.65825E-19
1.15786E-03 3.30391E-19
1.21797E-03 2.99159E-19
1.27961E-03 2.71540E-19
1.34276E-03 2.47047E-19
1.40743E-03 2.25262E-19
1.47362E-03 2.05834E-19
1.54133E-03 1.88464E-19
1.61056E-03 1.72894E-19
1.68131E-03 1.58906E-19
1.75357E-03 1.46310E-19
1.82735E-03 1.34943E-19
1.90265E-03 1.24663E-19
1.97947E-03 1.15348E-19
2.05780E-03 1.06891E-19
2.13765E-03 9.91985E-20
2.21902E-03 9.21889E-20
2.30190E-03 8.57909E-20
2.38630E-03 7.99411E-20
2.47222E-03 7.45842E-20
2.55965E-03 6.96709E-20
2.64859E-03 6.51577E-20
2.73905E-03 6.10063E-20
2.83103E-03 5.71820E-20
2.92452E-03 5.36547E-20
3.01952E-03 5.03967E-20
3.11604E-03 4.73838E-20
3.21407E-03 4.45939E-20
3.31362E-03 4.20080E-20
3.41468E-03 3.96078E-20
3.51725E-03 3.73780E-20
3.62133E-03 3.53038E-20
3.72692E-03 3.33725E-20
3.83403E-03 3.15726E-20
3.94265E-03 2.98931E-20
4.05278E-03 2.83247E-20
4.16442E-03 2.68586E-20
4.27757E-03 2.54868E-20
4.39223E-03 2.42023E-20
4.50840E-03 2.29983E-20
4.62608E-03 2.18688E-20
4.74527E-03 2.08085E-20
4.86597E-03 1.98121E-20
4.98817E-03 1.88752E-20
5.11188E-03 1.79935E-20
5.23711E-03 1.71632E-20
5.36383E-03 1.63807E-20
5.49207E-03 1.56426E-20
5.62181E-03 1.49461E-20
5.75306E-03 1.42883E-20
5.88581E-03 1.36666E-20
6.02007E-03 1.30788E-20
6.15583E-03 1.25225E-20
6.29310E-03 1.19958E-20
6.43187E-03 1.14968E-20
6.57214E-03 1.10237E-20
6.71392E-03 1.05750E-20
6.85720E-03 1.01492E-20
7.00198E-03 9.74483E-21
7.14827E-03 9.36064E-21
7.29605E-03 8.99541E-21
7.44534E-03 8.64803E-21
7.59612E-03 8.31749E-21
7.97965E-03 7.55841E-21
8.37255E-03 6.88504E-21
8.77480E-03 6.28593E-21
9.18641E-03 5.75145E-21
9.60736E-03 5.27334E-21
1.00376E-02 4.84460E-21
1.04773E-02 4.45919E-21
1.09262E-02 4.11193E-21
1.13844E-02 3.79835E-21
1.18520E-02 3.51459E-21
1.23288E-02 3.25728E-21
1.28150E-02 3.02350E-21
1.33104E-02 2.81070E-21
1.38150E-02 2.61664E-21
1.43290E-02 2.43936E-21
1.48521E-02 2.27713E-21
1.53845E-02 2.12844E-21
1.59262E-02 1.99195E-21
1.64770E-02 1.86645E-21
1.70371E-02 1.75090E-21
1.76063E-02 1.64436E-21
1.81848E-02 1.54598E-21
1.87724E-02 1.45503E-21
1.93692E-02 1.37082E-21
1.99751E-02 1.29278E-21
2.05901E-02 1.22034E-21
2.12143E-02 1.15305E-21
2.18476E-02 1.09045E-21
2.24900E-02 1.03216E-21
2.31415E-02 9.77813E-22
2.38021E-02 9.27102E-22
2.44717E-02 8.79730E-22
2.51504E-02 8.35433E-22
2.58382E-02 7.93973E-22
2.65349E-02 7.55131E-22
2.72407E-02 7.18708E-22
2.79555E-02 6.84525E-22
2.86793E-02 6.52414E-22
2.94120E-02 6.22225E-22
3.01537E-02 5.93821E-22
3.09043E-02 5.67073E-22
3.16639E-02 5.41865E-22
3.24324E-02 5.18091E-22
3.32098E-02 4.95652E-22
3.39961E-02 4.74458E-22
3.47912E-02 4.54425E-22
3.55952E-02 4.35477E-22
3.64081E-02 4.17543E-22
3.72297E-02 4.00557E-22
3.80602E-02 3.84459E-22
3.88995E-02 3.69192E-22
3.97476E-02 3.54706E-22
4.06044E-02 3.40950E-22
4.14700E-02 3.27881E-22
4.23443E-02 3.15458E-22
4.32273E-02 3.03641E-22
4.41190E-02 2.92395E-22
4.50194E-02 2.81686E-22
4.59284E-02 2.71483E-22
4.68461E-02 2.61758E-22
4.87074E-02 2.43632E-22
5.06030E-02 2.27112E-22
5.25328E-02 2.12026E-22
5.44967E-02 1.98225E-22
5.64946E-02 1.85577E-22
5.85262E-02 1.73966E-22
6.05914E-02 1.63288E-22
6.26901E-02 1.53454E-22
6.48222E-02 1.44382E-22
6.69873E-02 1.36001E-22
6.91854E-02 1.28247E-22
7.14163E-02 1.21063E-22
7.36799E-02 1.14398E-22
7.59760E-02 1.08208E-22
7.83043E-02 1.02450E-22
8.06647E-02 9.70877E-23
8.30571E-02 9.20884E-23
8.54812E-02 8.74221E-23
8.79369E-02 8.30616E-23
9.04240E-02 7.89825E-23
9.29422E-02 7.51626E-23
9.54915E-02 7.15819E-23
9.80716E-02 6.82220E-23
1.00682E-01 6.50662E-23
1.03323E-01 6.20994E-23
1.05995E-01 5.93077E-23
1.08696E-01 5.66785E-23
1.11427E-01 5.42002E-23
1.14188E-01 5.18620E-23
1.16978E-01 4.96544E-23
1.19797E-01 4.75684E-23
1.22645E-01 4.55957E-23
1.25522E-01 4.37288E-23
1.28428E-01 4.19606E-23
1.31361E-01 4.02849E-23
1.34323E-01 3.86957E-23
1.37313E-01 3.71872E-23
1.40330E-01 3.57547E-23
1.43375E-01 3.43935E-23
1.46447E-01 3.30989E-23
1.49545E-01 3.18671E-23
1.52671E-01 3.06945E-23
1.55823E-01 2.95773E-23
1.59001E-01 2.85123E-23
1.62205E-01 2.74967E-23
1.65435E-01 2.65275E-23
1.68690E-01 2.56021E-23
1.71970E-01 2.47181E-23
1.75276E-01 2.38732E-23
1.78606E-01 2.30653E-23
1.81961E-01 2.22923E-23
1.85340E-01 2.15524E-23
1.88743E-01 2.08439E-23
1.92169E-01 2.01650E-23
1.95619E-01 1.95143E-23
1.99092E-01 1.88903E-23
2.02589E-01 1.82917E-23
2.06107E-01 1.77171E-23
2.09649E-01 1.71655E-23
2.13212E-01 1.66356E-23
2.16797E-01 1.61264E-23
2.20404E-01 1.56368E-23
2.24032E-01 1.51661E-23
2.27680E-01 1.47132E-23
2.31350E-01 1.42773E-23
2.35040E-01 1.38576E-23
2.38751E-01 1.34535E-23
2.42481E-01 1.30641E-23
2.46231E-01 1.26888E-23
2.50000E-01 1.23270E-23
2.53788E-01 1.19780E-23
2.57595E-01 1.16414E-23
2.61421E-01 1.13166E-23
2.65264E-01 1.10030E-23
2.69126E-01 1.07002E-23
2.73005E-01 1.04077E-23
2.76901E-01 1.01251E-23
2.80814E-01 9.85196E-24
2.84744E-01 9.58792E-24
2.88691E-01 9.33258E-24
2.92653E-01 9.08560E-24
2.96632E-01 8.84663E-24
3.00625E-01 8.61536E-24
3.04634E-01 8.39147E-24
3.08658E-01 8.17468E-24
3.12697E-01 7.96471E-24
3.16749E-01 7.76129E-24
3.20816E-01 7.56418E-24
3.24896E-01 7.37312E-24
3.28990E-01 7.18791E-24
3.33097E-01 7.00830E-24
3.37216E-01 6.83409E-24
3.41348E-01 6.66509E-24
3.45492E-01 6.50110E-24
3.49647E-01 6.34194E-24
3.53814E-01 6.18744E-24
3.57992E-01 6.03743E-24
3.62181E-01 5.89175E-24
3.66381E-01 5.75024E-24
3.70590E-01 5.61278E-24
3.74810E-01 5.47910E-24
3.79039E-01 5.34916E-24
3.83277E-01 5.22284E-24
3.87524E-01 5.10002E-24
3.91780E-01 4.98058E-24
3.96044E-01 4.86440E-24
4.00316E-01 4.75137E-24
4.04596E-01 4.64139E-24
4.08882E-01 4.53437E-24
4.13176E-01 4.43019E-24
4.17476E-01 4.32877E-24
4.21783E-01 4.23003E-24
4.26095E-01 4.13386E-24
4.30413E-01 4.04020E-24
4.34737E-01 3.94896E-24
4.39065E-01 3.86006E-24
4.43398E-01 3.77343E-24
4.47736E-01 3.68901E-24
4.52077E-01 3.60671E-24
4.56422E-01 3.52649E-24
4.60770E-01 3.44826E-24
4.65122E-01 3.37198E-24
4.69476E-01 3.29758E-24
4.73832E-01 3.22501E-24
4.78190E-01 3.15422E-24
4.82550E-01 3.08514E-24
4.86912E-01 3.01773E-24
4.91274E-01 2.95195E-24
4.95637E-01 2.88773E-24
5.00000E-01 2.82505E-24
5.04363E-01 2.76385E-24
5.08726E-01 2.70408E-24
5.13088E-01 2.64572E-24
5.17450E-01 2.58873E-24
5.21810E-01 2.53305E-24
5.26168E-01 2.47866E-24
5.30524E-01 2.42551E-24
5.34878E-01 2.37359E-24
5.39230E-01 2.32284E-24
5.43578E-01 2.27325E-24
5.47923E-01 2.22477E-24
5.52264E-01 2.17738E-24
5.56602E-01 2.13105E-24
5.60935E-01 2.08575E-24
5.65263E-01 2.04145E-24
5.69587E-01 1.99813E-24
5.73905E-01 1.95577E-24
5.78217E-01 1.91432E-24
5.82524E-01 1.87378E-24
5.86824E-01 1.83412E-24
5.91118E-01 1.79531E-24
5.95404E-01 1.75734E-24
5.99684E-01 1.72018E-24
6.03956E-01 1.68381E-24
6.08220E-01 1.64822E-24
6.12476E-01 1.61338E-24
6.16723E-01 1.57927E-24
6.20961E-01 1.54588E-24
6.25190E-01 1.51319E-24
6.29410E-01 1.48117E-24
6.33619E-01 1.44983E-24
6.37819E-01 1.41913E-24
6.42008E-01 1.38906E-24
6.46186E-01 1.35961E-24
6.50353E-01 1.33077E-24
6.54508E-01 1.30251E-24
6.58652E-01 1.27483E-24
6.62784E-01 1.24771E-24
6.66903E-01 1.22114E-24
6.71010E-01 1.19510E-24
6.75104E-01 1.16958E-24
6.79184E-01 1.14458E-24
6.83251E-01 1.12008E-24
6.87303E-01 1.09606E-24
6.91342E-01 1.07252E-24
6.95366E-01 1.04944E-24
6.99375E-01 1.02682E-24
7.03368E-01 1.00465E-24
7.07347E-01 9.82909E-25
7.11309E-01 9.61595E-25
7.15256E-01 9.40698E-25
7.19186E-01 9.20208E-25
7.23099E-01 9.00116E-25
7.26995E-01 8.80414E-25
7.30874E-01 8.61093E-25
7.34736E-01 8.42145E-25
7.38579E-01 8.23563E-25
7.42405E-01 8.05337E-25
7.46212E-01 7.87462E-25
7.50000E-01 7.69929E-25
7.53769E-01 7.52731E-25
7.57519E-01 7.35862E-25
7.61249E-01 7.19314E-25
7.64960E-01 7.03081E-25
7.68650E-01 6.87156E-25
7.72320E-01 6.71534E-25
7.75968E-01 6.56208E-25
7.79596E-01 6.41172E-25
7.83203E-01 6.26420E-25
7.86788E-01 6.11947E-25
7.90351E-01 5.97747E-25
7.93893E-01 5.83815E-25
7.97411E-01 5.70146E-25
8.00908E-01 5.56734E-25
8.04381E-01 5.43574E-25
8.07831E-01 5.30662E-25
8.11257E-01 5.17993E-25
8.14660E-01 5.05562E-25
8.18039E-01 4.93365E-25
8.21394E-01 4.81397E-25
8.24724E-01 4.69654E-25
8.28030E-01 4.58132E-25
8.31310E-01 4.46827E-25
8.34565E-01 4.35734E-25
8.37795E-01 4.24851E-25
8.40999E-01 4.14173E-25
8.44177E-01 4.03696E-25
8.47329E-01 3.93417E-25
8.50455E-01 3.83333E-25
8.53553E-01 3.73439E-25
8.56625E-01 3.63733E-25
8.59670E-01 3.54212E-25
8.62687E-01 3.44871E-25
8.65677E-01 3.35709E-25
8.68639E-01 3.26721E-25
8.71572E-01 3.17906E-25
8.74478E-01 3.09259E-25
8.77355E-01 3.00780E-25
8.80203E-01 2.92463E-25
8.83022E-01 2.84308E-25
8.85812E-01 2.76311E-25
8.88573E-01 2.68469E-25
8.91304E-01 2.60781E-25
8.94005E-01 2.53244E-25
8.96677E-01 2.45855E-25
8.99318E-01 2.38613E-25
9.01928E-01 2.31514E-25
9.04508E-01 2.24557E-25
9.07058E-01 2.17739E-25
9.09576E-01 2.11059E-25
9.12063E-01 2.04514E-25
9.14519E-01 1.98102E-25
9.16943E-01 1.91822E-25
9.19335E-01 1.85672E-25
9.21696E-01 1.79649E-25
9.24024E-01 1.73752E-25
9.26320E-01 1.67979E-25
9.28584E-01 1.62329E-25
9.30815E-01 1.56799E-25
9.33013E-01 1.51388E-25
9.35178E-01 1.46095E-25
9.37310E-01 1.40917E-25
9.39409E-01 1.35855E-25
9.41474E-01 1.30905E-25
9.43505E-01 1.26066E-25
9.45503E-01 1.21338E-25
9.47467E-01 1.16718E-25
9.49397E-01 1.12206E-25
9.51293E-01 1.07800E-25
9.53154E-01 1.03499E-25
9.54981E-01 9.93013E-26
9.56773E-01 9.52062E-26
9.58530E-01 9.12124E-26
9.60252E-01 8.73188E-26
9.61940E-01 8.35243E-26
9.63592E-01 7.98278E-26
9.65209E-01 7.62283E-26
9.66790E-01 7.27248E-26
9.68336E-01 6.93163E-26
9.69846E-01 6.60019E-26
9.71321E-01 6.27806E-26
9.72759E-01 5.96516E-26
9.74162E-01 5.66140E-26
9.75528E-01 5.36670E-26
9.76858E-01 5.08097E-26
9.78152E-01 4.80414E-26
9.79410E-01 4.53614E-26
9.80631E-01 4.27689E-26
9.81815E-01 4.02631E-26
9.82963E-01 3.78435E-26
9.84074E-01 3.55094E-26
9.85148E-01 3.32601E-26
9.86185E-01 3.10950E-26
9.87185E-01 2.90136E-26
9.88148E-01 2.70153E-26
9.89074E-01 2.50995E-26
9.89962E-01 2.32658E-26
9.90814E-01 2.15137E-26
9.91627E-01 1.98426E-26
9.92404E-01 1.82522E-26
9.93143E-01 1.67420E-26
9.93844E-01 1.53117E-26
9.94508E-01 1.39607E-26
9.95134E-01 1.26889E-26
9.95722E-01 1.14958E-26
9.96273E-01 1.03812E-26
9.96786E-01 9.34468E-27
9.97261E-01 8.38605E-27
9.97698E-01 7.50503E-27
9.98097E-01 6.70140E-27
9.98459E-01 5.97493E-27
9.98782E-01 5.32545E-27
9.99067E-01 4.75278E-27
9.99315E-01 4.25677E-27
9.99524E-01 3.83728E-27
9.99695E-01 3.49422E-27
9.99829E-01 3.22749E-27
9.99924E-01 3.03701E-27
9.99981E-01 2.92275E-27
1.00000E+00 2.88466E-27
