 #
 # Subroutine ELSEPA. Elastic scattering of electrons and positrons
 #                    by neutral atoms and positive ions
 #
 # Projectile: electron
 # Kinetic energy = 5.00000E+07 eV = 1.83747E+06 a.u.
 #
 # WARNING: High-energy factorization with free-atom DF screening.
 #          Absorption, polarization and exchange corrections are
 #          switched off.
 #          Phase shifts are calculated for the bare nucleus.
 #          Scattering amplitudes are not evaluated.
 #
 # Element: Au,  Z =  79,  atomic weight = 1.96967E+02 g/mol
 #
 # Nuclear model: Fermi distribution
 #                Average radius = 6.22560E-13 cm
 #                Skin thickness = 5.46000E-14 cm
 #
 # Number of electrons = 79
 #
 # Total elastic cross section = 7.67507E-18 cm**2 = 2.74082E-01 a0**2
 # 1st transport cross section = 4.68399E-24 cm**2 = 1.67268E-07 a0**2
 # 2nd transport cross section = 1.37193E-23 cm**2 = 4.89926E-07 a0**2
 #
 #
 # Differential cross section:                       MU=(1-COS(THETA))/2
 #
 #  THETA        MU          DCS          DCS        Sherman      error
 #  (deg)                 (cm**2/sr)   (a0**2/sr)    function
 #----------------------------------------------------------------------
0.00000E+00 1.00851E-10
7.61557E-13 1.00811E-10
1.18994E-12 1.00788E-10
1.71346E-12 1.00761E-10
2.33225E-12 1.00728E-10
3.04617E-12 1.00691E-10
3.85530E-12 1.00649E-10
4.75964E-12 1.00602E-10
5.75917E-12 1.00550E-10
6.85391E-12 1.00493E-10
8.04379E-12 1.00431E-10
9.32893E-12 1.00365E-10
1.07092E-11 1.00293E-10
1.21847E-11 1.00217E-10
1.37554E-11 1.00136E-10
1.54213E-11 1.00050E-10
1.71823E-11 9.99595E-11
1.90386E-11 9.98643E-11
2.09900E-11 9.97643E-11
2.30367E-11 9.96597E-11
2.51785E-11 9.95504E-11
2.74156E-11 9.94365E-11
2.97478E-11 9.93181E-11
3.21752E-11 9.91951E-11
3.46979E-11 9.90675E-11
3.73157E-11 9.89355E-11
4.00286E-11 9.87991E-11
4.28368E-11 9.86582E-11
4.57402E-11 9.85130E-11
4.87388E-11 9.83634E-11
5.18325E-11 9.82095E-11
5.50215E-11 9.80514E-11
5.83057E-11 9.78890E-11
6.16850E-11 9.77225E-11
6.51595E-11 9.75519E-11
6.87293E-11 9.73771E-11
7.23943E-11 9.71983E-11
7.61544E-11 9.70155E-11
1.18991E-10 9.49679E-11
1.71347E-10 9.25801E-11
2.33223E-10 8.99006E-11
3.04617E-10 8.69857E-11
3.85531E-10 8.38909E-11
4.75965E-10 8.06690E-11
5.75917E-10 7.73686E-11
6.85389E-10 7.40331E-11
8.04380E-10 7.06931E-11
9.32891E-10 6.73782E-11
1.07092E-09 6.41240E-11
1.21847E-09 6.09516E-11
1.37554E-09 5.78770E-11
1.54213E-09 5.49120E-11
1.71823E-09 5.20644E-11
1.90386E-09 4.93392E-11
2.09900E-09 4.67388E-11
2.30367E-09 4.42634E-11
2.51785E-09 4.19118E-11
2.74156E-09 3.96815E-11
2.97478E-09 3.75691E-11
3.21752E-09 3.55645E-11
3.46978E-09 3.36693E-11
3.73156E-09 3.18802E-11
4.00286E-09 3.01919E-11
4.28368E-09 2.85996E-11
4.57402E-09 2.70982E-11
4.87388E-09 2.56829E-11
5.18326E-09 2.43488E-11
5.50215E-09 2.30915E-11
5.83057E-09 2.19065E-11
6.16850E-09 2.07895E-11
6.51596E-09 1.97367E-11
6.87293E-09 1.87435E-11
7.23942E-09 1.78054E-11
7.61544E-09 1.69210E-11
1.18991E-08 1.02676E-11
1.71347E-08 6.61421E-12
2.33223E-08 4.43709E-12
3.04617E-08 3.08998E-12
3.85531E-08 2.22382E-12
4.75965E-08 1.64561E-12
5.75917E-08 1.24594E-12
6.85389E-08 9.61063E-13
8.04380E-08 7.52291E-13
9.32891E-08 5.96119E-13
1.07092E-07 4.77701E-13
1.21847E-07 3.86659E-13
1.37554E-07 3.15856E-13
1.54213E-07 2.60246E-13
1.71823E-07 2.16184E-13
1.90386E-07 1.80984E-13
2.09900E-07 1.52674E-13
2.30367E-07 1.29708E-13
2.51785E-07 1.10843E-13
2.74156E-07 9.53403E-14
2.97478E-07 8.25144E-14
3.21752E-07 7.18191E-14
3.46978E-07 6.28378E-14
3.73156E-07 5.52411E-14
4.00286E-07 4.87725E-14
4.28368E-07 4.32317E-14
4.57402E-07 3.84611E-14
4.87388E-07 3.43350E-14
5.18325E-07 3.07517E-14
5.50215E-07 2.76278E-14
5.83057E-07 2.48942E-14
6.16850E-07 2.24933E-14
6.51596E-07 2.03769E-14
6.87293E-07 1.85042E-14
7.23942E-07 1.68413E-14
7.61543E-07 1.53608E-14
1.18991E-06 6.76187E-15
1.71347E-06 3.42737E-15
2.33223E-06 1.91691E-15
3.04617E-06 1.15350E-15
3.85531E-06 7.35039E-16
4.75964E-06 4.90365E-16
5.75916E-06 3.39586E-16
6.85388E-06 2.42628E-16
8.04378E-06 1.77966E-16
9.32888E-06 1.33481E-16
1.07092E-05 1.02064E-16
1.21846E-05 7.93654E-17
1.37553E-05 6.26343E-17
1.54212E-05 5.00833E-17
1.71822E-05 4.05215E-17
1.90385E-05 3.31149E-17
2.09899E-05 2.73577E-17
2.30365E-05 2.27941E-17
2.51783E-05 1.91374E-17
2.74153E-05 1.61804E-17
2.97475E-05 1.37709E-17
3.21749E-05 1.17935E-17
3.46974E-05 1.01598E-17
3.73152E-05 8.80077E-18
4.00281E-05 7.66265E-18
4.28362E-05 6.70323E-18
4.57395E-05 5.88941E-18
4.87380E-05 5.19523E-18
5.18317E-05 4.60011E-18
5.50205E-05 4.08763E-18
5.83045E-05 3.64454E-18
6.16838E-05 3.25997E-18
6.51582E-05 2.92496E-18
6.87277E-05 2.63204E-18
7.23925E-05 2.37498E-18
7.61524E-05 2.14814E-18
9.21439E-05 1.47289E-18
1.09658E-04 1.04342E-18
1.28695E-04 7.59833E-19
1.49255E-04 5.66395E-19
1.71338E-04 4.30834E-19
1.94942E-04 3.33536E-19
2.20070E-04 2.62239E-19
2.46720E-04 2.09033E-19
2.74892E-04 1.68675E-19
3.04586E-04 1.37614E-19
3.35803E-04 1.13393E-19
3.68542E-04 9.42817E-20
4.02802E-04 7.90384E-20
4.38585E-04 6.67601E-20
4.75889E-04 5.67800E-20
5.14715E-04 4.86011E-20
5.55063E-04 4.18462E-20
5.96931E-04 3.62279E-20
6.40321E-04 3.15239E-20
6.85233E-04 2.75612E-20
7.31665E-04 2.42038E-20
7.79618E-04 2.13439E-20
8.29092E-04 1.88956E-20
8.80086E-04 1.67897E-20
9.32601E-04 1.49701E-20
9.86636E-04 1.33915E-20
1.04219E-03 1.20163E-20
1.09927E-03 1.08139E-20
1.15786E-03 9.75890E-21
1.21797E-03 8.83003E-21
1.27961E-03 8.00960E-21
1.34276E-03 7.28273E-21
1.40743E-03 6.63690E-21
1.47362E-03 6.06145E-21
1.54133E-03 5.54739E-21
1.61056E-03 5.08698E-21
1.68131E-03 4.67363E-21
1.75357E-03 4.30168E-21
1.82735E-03 3.96622E-21
1.90265E-03 3.66304E-21
1.97947E-03 3.38847E-21
2.05780E-03 3.13932E-21
2.13765E-03 2.91281E-21
2.21902E-03 2.70651E-21
2.30190E-03 2.51828E-21
2.38630E-03 2.34625E-21
2.47222E-03 2.18877E-21
2.55965E-03 2.04439E-21
2.64859E-03 1.91181E-21
2.73905E-03 1.78989E-21
2.83103E-03 1.67761E-21
2.92452E-03 1.57407E-21
3.01952E-03 1.47847E-21
3.11604E-03 1.39007E-21
3.21407E-03 1.30824E-21
3.31362E-03 1.23240E-21
3.41468E-03 1.16202E-21
3.51725E-03 1.09664E-21
3.62133E-03 1.03584E-21
3.72692E-03 9.79231E-22
3.83403E-03 9.26474E-22
3.94265E-03 8.77252E-22
4.05278E-03 8.31295E-22
4.16442E-03 7.88331E-22
4.27757E-03 7.48136E-22
4.39223E-03 7.10498E-22
4.50840E-03 6.75217E-22
4.62608E-03 6.42123E-22
4.74527E-03 6.11054E-22
4.86597E-03 5.81858E-22
4.98817E-03 5.54404E-22
5.11188E-03 5.28568E-22
5.23711E-03 5.04234E-22
5.36383E-03 4.81300E-22
5.49207E-03 4.59668E-22
5.62181E-03 4.39251E-22
5.75306E-03 4.19967E-22
5.88581E-03 4.01742E-22
6.02007E-03 3.84504E-22
6.15583E-03 3.68192E-22
6.29310E-03 3.52745E-22
6.43187E-03 3.38108E-22
6.57214E-03 3.24231E-22
6.71392E-03 3.11066E-22
6.85720E-03 2.98570E-22
7.00198E-03 2.86702E-22
7.14827E-03 2.75425E-22
7.29605E-03 2.64702E-22
7.44534E-03 2.54502E-22
7.59612E-03 2.44794E-22
7.97965E-03 2.22495E-22
8.37255E-03 2.02703E-22
8.77480E-03 1.85086E-22
9.18641E-03 1.69361E-22
9.60736E-03 1.55288E-22
1.00376E-02 1.42662E-22
1.04773E-02 1.31309E-22
1.09262E-02 1.21066E-22
1.13844E-02 1.11812E-22
1.18520E-02 1.03433E-22
1.23288E-02 9.58304E-23
1.28150E-02 8.89195E-23
1.33104E-02 8.26252E-23
1.38150E-02 7.68822E-23
1.43290E-02 7.16330E-23
1.48521E-02 6.68272E-23
1.53845E-02 6.24201E-23
1.59262E-02 5.83724E-23
1.64770E-02 5.46492E-23
1.70371E-02 5.12195E-23
1.76063E-02 4.80557E-23
1.81848E-02 4.51334E-23
1.87724E-02 4.24304E-23
1.93692E-02 3.99273E-23
1.99751E-02 3.76063E-23
2.05901E-02 3.54517E-23
2.12143E-02 3.34493E-23
2.18476E-02 3.15862E-23
2.24900E-02 2.98509E-23
2.31415E-02 2.82329E-23
2.38021E-02 2.67228E-23
2.44717E-02 2.53119E-23
2.51504E-02 2.39926E-23
2.58382E-02 2.27577E-23
2.65349E-02 2.16008E-23
2.72407E-02 2.05159E-23
2.79555E-02 1.94978E-23
2.86793E-02 1.85416E-23
2.94120E-02 1.76427E-23
3.01537E-02 1.67971E-23
3.09043E-02 1.60010E-23
3.16639E-02 1.52510E-23
3.24324E-02 1.45438E-23
3.32098E-02 1.38766E-23
3.39961E-02 1.32466E-23
3.47912E-02 1.26514E-23
3.55952E-02 1.20887E-23
3.64081E-02 1.15564E-23
3.72297E-02 1.10526E-23
3.80602E-02 1.05753E-23
3.88995E-02 1.01230E-23
3.97476E-02 9.69413E-24
4.06044E-02 9.28719E-24
4.14700E-02 8.90088E-24
4.23443E-02 8.53395E-24
4.32273E-02 8.18525E-24
4.41190E-02 7.85369E-24
4.50194E-02 7.53829E-24
4.59284E-02 7.23810E-24
4.68461E-02 6.95225E-24
4.87074E-02 6.42040E-24
5.06030E-02 5.93685E-24
5.25328E-02 5.49645E-24
5.44967E-02 5.09468E-24
5.64946E-02 4.72757E-24
5.85262E-02 4.39161E-24
6.05914E-02 4.08373E-24
6.26901E-02 3.80116E-24
6.48222E-02 3.54148E-24
6.69873E-02 3.30253E-24
6.91854E-02 3.08237E-24
7.14163E-02 2.87929E-24
7.36799E-02 2.69174E-24
7.59760E-02 2.51835E-24
7.83043E-02 2.35786E-24
8.06647E-02 2.20918E-24
8.30571E-02 2.07129E-24
8.54812E-02 1.94328E-24
8.79369E-02 1.82434E-24
9.04240E-02 1.71373E-24
9.29422E-02 1.61078E-24
9.54915E-02 1.51487E-24
9.80716E-02 1.42545E-24
1.00682E-01 1.34202E-24
1.03323E-01 1.26412E-24
1.05995E-01 1.19132E-24
1.08696E-01 1.12325E-24
1.11427E-01 1.05956E-24
1.14188E-01 9.99916E-25
1.16978E-01 9.44038E-25
1.19797E-01 8.91652E-25
1.22645E-01 8.42510E-25
1.25522E-01 7.96384E-25
1.28428E-01 7.53066E-25
1.31361E-01 7.12362E-25
1.34323E-01 6.74095E-25
1.37313E-01 6.38099E-25
1.40330E-01 6.04224E-25
1.43375E-01 5.72330E-25
1.46447E-01 5.42286E-25
1.49545E-01 5.13972E-25
1.52671E-01 4.87278E-25
1.55823E-01 4.62099E-25
1.59001E-01 4.38341E-25
1.62205E-01 4.15913E-25
1.65435E-01 3.94734E-25
1.68690E-01 3.74726E-25
1.71970E-01 3.55818E-25
1.75276E-01 3.37942E-25
1.78606E-01 3.21037E-25
1.81961E-01 3.05044E-25
1.85340E-01 2.89910E-25
1.88743E-01 2.75583E-25
1.92169E-01 2.62017E-25
1.95619E-01 2.49167E-25
1.99092E-01 2.36993E-25
2.02589E-01 2.25454E-25
2.06107E-01 2.14516E-25
2.09649E-01 2.04144E-25
2.13212E-01 1.94306E-25
2.16797E-01 1.84972E-25
2.20404E-01 1.76115E-25
2.24032E-01 1.67708E-25
2.27680E-01 1.59727E-25
2.31350E-01 1.52147E-25
2.35040E-01 1.44948E-25
2.38751E-01 1.38109E-25
2.42481E-01 1.31611E-25
2.46231E-01 1.25435E-25
2.50000E-01 1.19564E-25
2.53788E-01 1.13982E-25
2.57595E-01 1.08674E-25
2.61421E-01 1.03626E-25
2.65264E-01 9.88234E-26
2.69126E-01 9.42545E-26
2.73005E-01 8.99068E-26
2.76901E-01 8.57690E-26
2.80814E-01 8.18303E-26
2.84744E-01 7.80807E-26
2.88691E-01 7.45105E-26
2.92653E-01 7.11106E-26
2.96632E-01 6.78726E-26
3.00625E-01 6.47882E-26
3.04634E-01 6.18498E-26
3.08658E-01 5.90502E-26
3.12697E-01 5.63825E-26
3.16749E-01 5.38401E-26
3.20816E-01 5.14168E-26
3.24896E-01 4.91070E-26
3.28990E-01 4.69049E-26
3.33097E-01 4.48053E-26
3.37216E-01 4.28034E-26
3.41348E-01 4.08942E-26
3.45492E-01 3.90735E-26
3.49647E-01 3.73368E-26
3.53814E-01 3.56802E-26
3.57992E-01 3.40998E-26
3.62181E-01 3.25920E-26
3.66381E-01 3.11533E-26
3.70590E-01 2.97805E-26
3.74810E-01 2.84704E-26
3.79039E-01 2.72201E-26
3.83277E-01 2.60267E-26
3.87524E-01 2.48876E-26
3.91780E-01 2.38002E-26
3.96044E-01 2.27622E-26
4.00316E-01 2.17711E-26
4.04596E-01 2.08248E-26
4.08882E-01 1.99212E-26
4.13176E-01 1.90583E-26
4.17476E-01 1.82343E-26
4.21783E-01 1.74473E-26
4.26095E-01 1.66957E-26
4.30413E-01 1.59778E-26
4.34737E-01 1.52920E-26
4.39065E-01 1.46368E-26
4.43398E-01 1.40110E-26
4.47736E-01 1.34131E-26
4.52077E-01 1.28418E-26
4.56422E-01 1.22959E-26
4.60770E-01 1.17743E-26
4.65122E-01 1.12759E-26
4.69476E-01 1.07995E-26
4.73832E-01 1.03443E-26
4.78190E-01 9.90921E-27
4.82550E-01 9.49335E-27
4.86912E-01 9.09585E-27
4.91274E-01 8.71587E-27
4.95637E-01 8.35262E-27
5.00000E-01 8.00536E-27
5.04363E-01 7.67335E-27
5.08726E-01 7.35591E-27
5.13088E-01 7.05239E-27
5.17450E-01 6.76215E-27
5.21810E-01 6.48460E-27
5.26168E-01 6.21918E-27
5.30524E-01 5.96533E-27
5.34878E-01 5.72253E-27
5.39230E-01 5.49030E-27
5.43578E-01 5.26816E-27
5.47923E-01 5.05565E-27
5.52264E-01 4.85235E-27
5.56602E-01 4.65784E-27
5.60935E-01 4.47174E-27
5.65263E-01 4.29366E-27
5.69587E-01 4.12326E-27
5.73905E-01 3.96018E-27
5.78217E-01 3.80410E-27
5.82524E-01 3.65471E-27
5.86824E-01 3.51171E-27
5.91118E-01 3.37481E-27
5.95404E-01 3.24375E-27
5.99684E-01 3.11827E-27
6.03956E-01 2.99812E-27
6.08220E-01 2.88306E-27
6.12476E-01 2.77286E-27
6.16723E-01 2.66732E-27
6.20961E-01 2.56622E-27
6.25190E-01 2.46936E-27
6.29410E-01 2.37657E-27
6.33619E-01 2.28765E-27
6.37819E-01 2.20245E-27
6.42008E-01 2.12078E-27
6.46186E-01 2.04251E-27
6.50353E-01 1.96747E-27
6.54508E-01 1.89553E-27
6.58652E-01 1.82654E-27
6.62784E-01 1.76039E-27
6.66903E-01 1.69693E-27
6.71010E-01 1.63607E-27
6.75104E-01 1.57767E-27
6.79184E-01 1.52163E-27
6.83251E-01 1.46786E-27
6.87303E-01 1.41624E-27
6.91342E-01 1.36669E-27
6.95366E-01 1.31911E-27
6.99375E-01 1.27342E-27
7.03368E-01 1.22953E-27
7.07347E-01 1.18737E-27
7.11309E-01 1.14686E-27
7.15256E-01 1.10794E-27
7.19186E-01 1.07052E-27
7.23099E-01 1.03454E-27
7.26995E-01 9.99947E-28
7.30874E-01 9.66675E-28
7.34736E-01 9.34668E-28
7.38579E-01 9.03870E-28
7.42405E-01 8.74230E-28
7.46212E-01 8.45698E-28
7.50000E-01 8.18225E-28
7.53769E-01 7.91766E-28
7.57519E-01 7.66279E-28
7.61249E-01 7.41721E-28
7.64960E-01 7.18052E-28
7.68650E-01 6.95235E-28
7.72320E-01 6.73233E-28
7.75968E-01 6.52012E-28
7.79596E-01 6.31539E-28
7.83203E-01 6.11783E-28
7.86788E-01 5.92712E-28
7.90351E-01 5.74299E-28
7.93893E-01 5.56516E-28
7.97411E-01 5.39337E-28
8.00908E-01 5.22736E-28
8.04381E-01 5.06690E-28
8.07831E-01 4.91176E-28
8.11257E-01 4.76172E-28
8.14660E-01 4.61657E-28
8.18039E-01 4.47611E-28
8.21394E-01 4.34016E-28
8.24724E-01 4.20853E-28
8.28030E-01 4.08105E-28
8.31310E-01 3.95755E-28
8.34565E-01 3.83788E-28
8.37795E-01 3.72188E-28
8.40999E-01 3.60941E-28
8.44177E-01 3.50034E-28
8.47329E-01 3.39453E-28
8.50455E-01 3.29186E-28
8.53553E-01 3.19220E-28
8.56625E-01 3.09545E-28
8.59670E-01 3.00150E-28
8.62687E-01 2.91023E-28
8.65677E-01 2.82156E-28
8.68639E-01 2.73539E-28
8.71572E-01 2.65163E-28
8.74478E-01 2.57018E-28
8.77355E-01 2.49098E-28
8.80203E-01 2.41394E-28
8.83022E-01 2.33898E-28
8.85812E-01 2.26603E-28
8.88573E-01 2.19504E-28
8.91304E-01 2.12592E-28
8.94005E-01 2.05862E-28
8.96677E-01 1.99309E-28
8.99318E-01 1.92925E-28
9.01928E-01 1.86707E-28
9.04508E-01 1.80648E-28
9.07058E-01 1.74744E-28
9.09576E-01 1.68991E-28
9.12063E-01 1.63383E-28
9.14519E-01 1.57916E-28
9.16943E-01 1.52587E-28
9.19335E-01 1.47392E-28
9.21696E-01 1.42326E-28
9.24024E-01 1.37387E-28
9.26320E-01 1.32571E-28
9.28584E-01 1.27874E-28
9.30815E-01 1.23294E-28
9.33013E-01 1.18828E-28
9.35178E-01 1.14473E-28
9.37310E-01 1.10226E-28
9.39409E-01 1.06085E-28
9.41474E-01 1.02048E-28
9.43505E-01 9.81111E-29
9.45503E-01 9.42736E-29
9.47467E-01 9.05329E-29
9.49397E-01 8.68870E-29
9.51293E-01 8.33341E-29
9.53154E-01 7.98723E-29
9.54981E-01 7.64999E-29
9.56773E-01 7.32153E-29
9.58530E-01 7.00169E-29
9.60252E-01 6.69032E-29
9.61940E-01 6.38728E-29
9.63592E-01 6.09244E-29
9.65209E-01 5.80567E-29
9.66790E-01 5.52684E-29
9.68336E-01 5.25584E-29
9.69846E-01 4.99255E-29
9.71321E-01 4.73688E-29
9.72759E-01 4.48871E-29
9.74162E-01 4.24796E-29
9.75528E-01 4.01454E-29
9.76858E-01 3.78835E-29
9.78152E-01 3.56932E-29
9.79410E-01 3.35737E-29
9.80631E-01 3.15242E-29
9.81815E-01 2.95440E-29
9.82963E-01 2.76326E-29
9.84074E-01 2.57891E-29
9.85148E-01 2.40131E-29
9.86185E-01 2.23039E-29
9.87185E-01 2.06611E-29
9.88148E-01 1.90841E-29
9.89074E-01 1.75724E-29
9.89962E-01 1.61256E-29
9.90814E-01 1.47433E-29
9.91627E-01 1.34250E-29
9.92404E-01 1.21704E-29
9.93143E-01 1.09791E-29
9.93844E-01 9.85080E-30
9.94508E-01 8.78517E-30
9.95134E-01 7.78191E-30
9.95722E-01 6.84076E-30
9.96273E-01 5.96147E-30
9.96786E-01 5.14379E-30
9.97261E-01 4.38752E-30
9.97698E-01 3.69246E-30
9.98097E-01 3.05843E-30
9.98459E-01 2.48527E-30
9.98782E-01 1.97282E-30
9.99067E-01 1.52096E-30
9.99315E-01 1.12958E-30
9.99524E-01 7.98579E-31
9.99695E-01 5.27870E-31
9.99829E-01 3.17389E-31
9.99924E-01 1.67082E-31
9.99981E-01 7.69128E-32
1.00000E+00 4.68590E-32
