 #
 # Subroutine ELSEPA. Elastic scattering of electrons and positrons
 #                    by neutral atoms and positive ions
 #
 # Projectile: electron
 # Kinetic energy = 3.00000E+06 eV = 1.10248E+05 a.u.
 #
 # WARNING: High-energy factorization with free-atom DF screening.
 #          Absorption, polarization and exchange corrections are
 #          switched off.
 #          Phase shifts are calculated for the bare nucleus.
 #          Scattering amplitudes are not evaluated.
 #
 # Element: Au,  Z =  79,  atomic weight = 1.96967E+02 g/mol
 #
 # Nuclear model: Fermi distribution
 #                Average radius = 6.22560E-13 cm
 #                Skin thickness = 5.46000E-14 cm
 #
 # Number of electrons = 79
 #
 # Total elastic cross section = 7.85804E-18 cm**2 = 2.80616E-01 a0**2
 # 1st transport cross section = 8.18977E-22 cm**2 = 2.92462E-05 a0**2
 # 2nd transport cross section = 2.17306E-21 cm**2 = 7.76015E-05 a0**2
 #
 #
 # Differential cross section:                       MU=(1-COS(THETA))/2
 #
 #  THETA        MU          DCS          DCS        Sherman      error
 #  (deg)                 (cm**2/sr)   (a0**2/sr)    function
 #----------------------------------------------------------------------
0.00000E+00 4.87270E-13
7.61557E-13 4.87269E-13
1.18994E-12 4.87269E-13
1.71346E-12 4.87268E-13
2.33225E-12 4.87267E-13
3.04617E-12 4.87266E-13
3.85530E-12 4.87265E-13
4.75964E-12 4.87264E-13
5.75917E-12 4.87263E-13
6.85391E-12 4.87262E-13
8.04379E-12 4.87261E-13
9.32893E-12 4.87259E-13
1.07092E-11 4.87258E-13
1.21847E-11 4.87256E-13
1.37554E-11 4.87254E-13
1.54213E-11 4.87252E-13
1.71823E-11 4.87250E-13
1.90386E-11 4.87248E-13
2.09900E-11 4.87245E-13
2.30367E-11 4.87243E-13
2.51785E-11 4.87241E-13
2.74156E-11 4.87238E-13
2.97478E-11 4.87235E-13
3.21752E-11 4.87232E-13
3.46979E-11 4.87229E-13
3.73157E-11 4.87226E-13
4.00286E-11 4.87223E-13
4.28368E-11 4.87220E-13
4.57402E-11 4.87216E-13
4.87388E-11 4.87213E-13
5.18325E-11 4.87209E-13
5.50215E-11 4.87205E-13
5.83057E-11 4.87201E-13
6.16850E-11 4.87197E-13
6.51595E-11 4.87193E-13
6.87293E-11 4.87189E-13
7.23943E-11 4.87185E-13
7.61544E-11 4.87180E-13
1.18991E-10 4.87130E-13
1.71347E-10 4.87068E-13
2.33223E-10 4.86994E-13
3.04617E-10 4.86910E-13
3.85531E-10 4.86814E-13
4.75965E-10 4.86706E-13
5.75917E-10 4.86588E-13
6.85389E-10 4.86458E-13
8.04380E-10 4.86317E-13
9.32891E-10 4.86165E-13
1.07092E-09 4.86001E-13
1.21847E-09 4.85827E-13
1.37554E-09 4.85641E-13
1.54213E-09 4.85444E-13
1.71823E-09 4.85236E-13
1.90386E-09 4.85017E-13
2.09900E-09 4.84787E-13
2.30367E-09 4.84546E-13
2.51785E-09 4.84294E-13
2.74156E-09 4.84031E-13
2.97478E-09 4.83757E-13
3.21752E-09 4.83472E-13
3.46978E-09 4.83176E-13
3.73156E-09 4.82870E-13
4.00286E-09 4.82552E-13
4.28368E-09 4.82224E-13
4.57402E-09 4.81885E-13
4.87388E-09 4.81536E-13
5.18326E-09 4.81176E-13
5.50215E-09 4.80805E-13
5.83057E-09 4.80424E-13
6.16850E-09 4.80033E-13
6.51596E-09 4.79631E-13
6.87293E-09 4.79219E-13
7.23942E-09 4.78796E-13
7.61544E-09 4.78363E-13
1.18991E-08 4.73482E-13
1.71347E-08 4.67642E-13
2.33223E-08 4.60864E-13
3.04617E-08 4.53351E-13
3.85531E-08 4.45034E-13
4.75965E-08 4.36098E-13
5.75917E-08 4.26680E-13
6.85389E-08 4.16651E-13
8.04380E-08 4.06335E-13
9.32891E-08 3.95725E-13
1.07092E-07 3.84802E-13
1.21847E-07 3.73853E-13
1.37554E-07 3.62726E-13
1.54213E-07 3.51579E-13
1.71823E-07 3.40595E-13
1.90386E-07 3.29495E-13
2.09900E-07 3.18619E-13
2.30367E-07 3.07960E-13
2.51785E-07 2.97342E-13
2.74156E-07 2.87061E-13
2.97478E-07 2.76980E-13
3.21752E-07 2.67102E-13
3.46978E-07 2.57597E-13
3.73156E-07 2.48255E-13
4.00286E-07 2.39227E-13
4.28368E-07 2.30568E-13
4.57402E-07 2.22041E-13
4.87388E-07 2.13890E-13
5.18325E-07 2.06033E-13
5.50215E-07 1.98383E-13
5.83057E-07 1.91084E-13
6.16850E-07 1.84011E-13
6.51596E-07 1.77192E-13
6.87293E-07 1.70691E-13
7.23942E-07 1.64359E-13
7.61543E-07 1.58305E-13
1.18991E-06 1.09403E-13
1.71347E-06 7.67899E-14
2.33223E-06 5.41575E-14
3.04617E-06 3.99701E-14
3.85531E-06 2.96085E-14
4.75964E-06 2.25236E-14
5.75916E-06 1.74972E-14
6.85388E-06 1.37202E-14
8.04378E-06 1.09760E-14
9.32888E-06 8.89268E-15
1.07092E-05 7.27543E-15
1.21846E-05 6.02991E-15
1.37553E-05 5.03072E-15
1.54212E-05 4.23071E-15
1.71822E-05 3.58904E-15
1.90385E-05 3.05163E-15
2.09899E-05 2.61644E-15
2.30365E-05 2.25500E-15
2.51783E-05 1.94858E-15
2.74153E-05 1.69292E-15
2.97475E-05 1.47598E-15
3.21749E-05 1.29163E-15
3.46974E-05 1.13572E-15
3.73152E-05 1.00171E-15
4.00281E-05 8.87114E-16
4.28362E-05 7.88757E-16
4.57395E-05 7.03418E-16
4.87380E-05 6.29415E-16
5.18317E-05 5.64661E-16
5.50205E-05 5.08021E-16
5.83045E-05 4.58543E-16
6.16838E-05 4.15042E-16
6.51582E-05 3.76717E-16
6.87277E-05 3.42897E-16
7.23925E-05 3.12813E-16
7.61524E-05 2.86048E-16
9.21439E-05 2.04052E-16
1.09658E-04 1.49580E-16
1.28695E-04 1.12269E-16
1.49255E-04 8.59464E-17
1.71338E-04 6.69218E-17
1.94942E-04 5.28500E-17
2.20070E-04 4.23014E-17
2.46720E-04 3.42678E-17
2.74892E-04 2.80754E-17
3.04586E-04 2.31962E-17
3.35803E-04 1.93445E-17
3.68542E-04 1.62636E-17
4.02802E-04 1.37653E-17
4.38585E-04 1.17340E-17
4.75889E-04 1.00625E-17
5.14715E-04 8.67753E-18
5.55063E-04 7.52493E-18
5.96931E-04 6.55571E-18
6.40321E-04 5.73832E-18
6.85233E-04 5.04540E-18
7.31665E-04 4.45282E-18
7.79618E-04 3.94558E-18
8.29092E-04 3.50876E-18
8.80086E-04 3.13056E-18
9.32601E-04 2.80247E-18
9.86636E-04 2.51621E-18
1.04219E-03 2.26569E-18
1.09927E-03 2.04590E-18
1.15786E-03 1.85200E-18
1.21797E-03 1.68073E-18
1.27961E-03 1.52895E-18
1.34276E-03 1.39385E-18
1.40743E-03 1.27351E-18
1.47362E-03 1.16591E-18
1.54133E-03 1.06945E-18
1.61056E-03 9.82857E-19
1.68131E-03 9.04842E-19
1.75357E-03 8.34452E-19
1.82735E-03 7.70834E-19
1.90265E-03 7.13135E-19
1.97947E-03 6.60780E-19
2.05780E-03 6.13165E-19
2.13765E-03 5.69753E-19
2.21902E-03 5.30150E-19
2.30190E-03 4.93931E-19
2.38630E-03 4.60758E-19
2.47222E-03 4.30347E-19
2.55965E-03 4.02397E-19
2.64859E-03 3.76693E-19
2.73905E-03 3.53023E-19
2.83103E-03 3.31176E-19
2.92452E-03 3.11008E-19
3.01952E-03 2.92357E-19
3.11604E-03 2.75084E-19
3.21407E-03 2.59079E-19
3.31362E-03 2.44222E-19
3.41468E-03 2.30420E-19
3.51725E-03 2.17587E-19
3.62133E-03 2.05633E-19
3.72692E-03 1.94496E-19
3.83403E-03 1.84108E-19
3.94265E-03 1.74405E-19
4.05278E-03 1.65338E-19
4.16442E-03 1.56856E-19
4.27757E-03 1.48913E-19
4.39223E-03 1.41471E-19
4.50840E-03 1.34489E-19
4.62608E-03 1.27936E-19
4.74527E-03 1.21782E-19
4.86597E-03 1.15993E-19
4.98817E-03 1.10548E-19
5.11188E-03 1.05422E-19
5.23711E-03 1.00590E-19
5.36383E-03 9.60356E-20
5.49207E-03 9.17374E-20
5.62181E-03 8.76789E-20
5.75306E-03 8.38450E-20
5.88581E-03 8.02195E-20
6.02007E-03 7.67900E-20
6.15583E-03 7.35437E-20
6.29310E-03 7.04683E-20
6.43187E-03 6.75541E-20
6.57214E-03 6.47904E-20
6.71392E-03 6.21678E-20
6.85720E-03 5.96784E-20
7.00198E-03 5.73134E-20
7.14827E-03 5.50658E-20
7.29605E-03 5.29288E-20
7.44534E-03 5.08953E-20
7.59612E-03 4.89599E-20
7.97965E-03 4.45136E-20
8.37255E-03 4.05666E-20
8.77480E-03 3.70532E-20
9.18641E-03 3.39167E-20
9.60736E-03 3.11098E-20
1.00376E-02 2.85914E-20
1.04773E-02 2.63266E-20
1.09262E-02 2.42851E-20
1.13844E-02 2.24408E-20
1.18520E-02 2.07712E-20
1.23288E-02 1.92567E-20
1.28150E-02 1.78803E-20
1.33104E-02 1.66269E-20
1.38150E-02 1.54835E-20
1.43290E-02 1.44386E-20
1.48521E-02 1.34822E-20
1.53845E-02 1.26054E-20
1.59262E-02 1.18002E-20
1.64770E-02 1.10597E-20
1.70371E-02 1.03777E-20
1.76063E-02 9.74871E-21
1.81848E-02 9.16781E-21
1.87724E-02 8.63058E-21
1.93692E-02 8.13309E-21
1.99751E-02 7.67194E-21
2.05901E-02 7.24382E-21
2.12143E-02 6.84599E-21
2.18476E-02 6.47588E-21
2.24900E-02 6.13111E-21
2.31415E-02 5.80968E-21
2.38021E-02 5.50966E-21
2.44717E-02 5.22934E-21
2.51504E-02 4.96719E-21
2.58382E-02 4.72177E-21
2.65349E-02 4.49181E-21
2.72407E-02 4.27616E-21
2.79555E-02 4.07371E-21
2.86793E-02 3.88352E-21
2.94120E-02 3.70469E-21
3.01537E-02 3.53639E-21
3.09043E-02 3.37791E-21
3.16639E-02 3.22851E-21
3.24324E-02 3.08760E-21
3.32098E-02 2.95459E-21
3.39961E-02 2.82893E-21
3.47912E-02 2.71015E-21
3.55952E-02 2.59779E-21
3.64081E-02 2.49142E-21
3.72297E-02 2.39068E-21
3.80602E-02 2.29518E-21
3.88995E-02 2.20460E-21
3.97476E-02 2.11865E-21
4.06044E-02 2.03702E-21
4.14700E-02 1.95946E-21
4.23443E-02 1.88572E-21
4.32273E-02 1.81557E-21
4.41190E-02 1.74881E-21
4.50194E-02 1.68523E-21
4.59284E-02 1.62465E-21
4.68461E-02 1.56690E-21
4.87074E-02 1.45924E-21
5.06030E-02 1.36110E-21
5.25328E-02 1.27147E-21
5.44967E-02 1.18945E-21
5.64946E-02 1.11427E-21
5.85262E-02 1.04523E-21
6.05914E-02 9.81739E-22
6.26901E-02 9.23245E-22
6.48222E-02 8.69273E-22
6.69873E-02 8.19401E-22
6.91854E-02 7.73251E-22
7.14163E-02 7.30485E-22
7.36799E-02 6.90800E-22
7.59760E-02 6.53926E-22
7.83043E-02 6.19622E-22
8.06647E-02 5.87668E-22
8.30571E-02 5.57868E-22
8.54812E-02 5.30045E-22
8.79369E-02 5.04037E-22
9.04240E-02 4.79701E-22
9.29422E-02 4.56904E-22
9.54915E-02 4.35527E-22
9.80716E-02 4.15461E-22
1.00682E-01 3.96609E-22
1.03323E-01 3.78879E-22
1.05995E-01 3.62189E-22
1.08696E-01 3.46465E-22
1.11427E-01 3.31637E-22
1.14188E-01 3.17643E-22
1.16978E-01 3.04424E-22
1.19797E-01 2.91928E-22
1.22645E-01 2.80105E-22
1.25522E-01 2.68912E-22
1.28428E-01 2.58306E-22
1.31361E-01 2.48250E-22
1.34323E-01 2.38707E-22
1.37313E-01 2.29646E-22
1.40330E-01 2.21037E-22
1.43375E-01 2.12851E-22
1.46447E-01 2.05062E-22
1.49545E-01 1.97648E-22
1.52671E-01 1.90584E-22
1.55823E-01 1.83851E-22
1.59001E-01 1.77430E-22
1.62205E-01 1.71302E-22
1.65435E-01 1.65450E-22
1.68690E-01 1.59860E-22
1.71970E-01 1.54517E-22
1.75276E-01 1.49407E-22
1.78606E-01 1.44517E-22
1.81961E-01 1.39835E-22
1.85340E-01 1.35351E-22
1.88743E-01 1.31054E-22
1.92169E-01 1.26934E-22
1.95619E-01 1.22982E-22
1.99092E-01 1.19190E-22
2.02589E-01 1.15550E-22
2.06107E-01 1.12053E-22
2.09649E-01 1.08693E-22
2.13212E-01 1.05463E-22
2.16797E-01 1.02356E-22
2.20404E-01 9.93681E-23
2.24032E-01 9.64921E-23
2.27680E-01 9.37228E-23
2.31350E-01 9.10555E-23
2.35040E-01 8.84855E-23
2.38751E-01 8.60084E-23
2.42481E-01 8.36197E-23
2.46231E-01 8.13156E-23
2.50000E-01 7.90925E-23
2.53788E-01 7.69466E-23
2.57595E-01 7.48746E-23
2.61421E-01 7.28734E-23
2.65264E-01 7.09398E-23
2.69126E-01 6.90711E-23
2.73005E-01 6.72644E-23
2.76901E-01 6.55172E-23
2.80814E-01 6.38271E-23
2.84744E-01 6.21916E-23
2.88691E-01 6.06086E-23
2.92653E-01 5.90760E-23
2.96632E-01 5.75917E-23
3.00625E-01 5.61538E-23
3.04634E-01 5.47605E-23
3.08658E-01 5.34101E-23
3.12697E-01 5.21009E-23
3.16749E-01 5.08313E-23
3.20816E-01 4.95998E-23
3.24896E-01 4.84051E-23
3.28990E-01 4.72456E-23
3.33097E-01 4.61201E-23
3.37216E-01 4.50274E-23
3.41348E-01 4.39662E-23
3.45492E-01 4.29355E-23
3.49647E-01 4.19340E-23
3.53814E-01 4.09608E-23
3.57992E-01 4.00149E-23
3.62181E-01 3.90953E-23
3.66381E-01 3.82011E-23
3.70590E-01 3.73314E-23
3.74810E-01 3.64854E-23
3.79039E-01 3.56622E-23
3.83277E-01 3.48611E-23
3.87524E-01 3.40814E-23
3.91780E-01 3.33223E-23
3.96044E-01 3.25832E-23
4.00316E-01 3.18634E-23
4.04596E-01 3.11622E-23
4.08882E-01 3.04791E-23
4.13176E-01 2.98135E-23
4.17476E-01 2.91648E-23
4.21783E-01 2.85325E-23
4.26095E-01 2.79160E-23
4.30413E-01 2.73150E-23
4.34737E-01 2.67288E-23
4.39065E-01 2.61570E-23
4.43398E-01 2.55993E-23
4.47736E-01 2.50551E-23
4.52077E-01 2.45241E-23
4.56422E-01 2.40058E-23
4.60770E-01 2.35000E-23
4.65122E-01 2.30061E-23
4.69476E-01 2.25239E-23
4.73832E-01 2.20530E-23
4.78190E-01 2.15931E-23
4.82550E-01 2.11438E-23
4.86912E-01 2.07050E-23
4.91274E-01 2.02762E-23
4.95637E-01 1.98571E-23
5.00000E-01 1.94476E-23
5.04363E-01 1.90474E-23
5.08726E-01 1.86561E-23
5.13088E-01 1.82736E-23
5.17450E-01 1.78995E-23
5.21810E-01 1.75338E-23
5.26168E-01 1.71760E-23
5.30524E-01 1.68261E-23
5.34878E-01 1.64838E-23
5.39230E-01 1.61489E-23
5.43578E-01 1.58213E-23
5.47923E-01 1.55006E-23
5.52264E-01 1.51868E-23
5.56602E-01 1.48797E-23
5.60935E-01 1.45791E-23
5.65263E-01 1.42847E-23
5.69587E-01 1.39966E-23
5.73905E-01 1.37144E-23
5.78217E-01 1.34382E-23
5.82524E-01 1.31676E-23
5.86824E-01 1.29026E-23
5.91118E-01 1.26430E-23
5.95404E-01 1.23887E-23
5.99684E-01 1.21396E-23
6.03956E-01 1.18955E-23
6.08220E-01 1.16563E-23
6.12476E-01 1.14219E-23
6.16723E-01 1.11922E-23
6.20961E-01 1.09671E-23
6.25190E-01 1.07465E-23
6.29410E-01 1.05302E-23
6.33619E-01 1.03181E-23
6.37819E-01 1.01102E-23
6.42008E-01 9.90641E-24
6.46186E-01 9.70656E-24
6.50353E-01 9.51058E-24
6.54508E-01 9.31839E-24
6.58652E-01 9.12990E-24
6.62784E-01 8.94503E-24
6.66903E-01 8.76370E-24
6.71010E-01 8.58582E-24
6.75104E-01 8.41133E-24
6.79184E-01 8.24015E-24
6.83251E-01 8.07220E-24
6.87303E-01 7.90741E-24
6.91342E-01 7.74573E-24
6.95366E-01 7.58707E-24
6.99375E-01 7.43138E-24
7.03368E-01 7.27860E-24
7.07347E-01 7.12865E-24
7.11309E-01 6.98149E-24
7.15256E-01 6.83705E-24
7.19186E-01 6.69527E-24
7.23099E-01 6.55611E-24
7.26995E-01 6.41950E-24
7.30874E-01 6.28540E-24
7.34736E-01 6.15374E-24
7.38579E-01 6.02450E-24
7.42405E-01 5.89761E-24
7.46212E-01 5.77302E-24
7.50000E-01 5.65070E-24
7.53769E-01 5.53060E-24
7.57519E-01 5.41268E-24
7.61249E-01 5.29688E-24
7.64960E-01 5.18318E-24
7.68650E-01 5.07153E-24
7.72320E-01 4.96189E-24
7.75968E-01 4.85422E-24
7.79596E-01 4.74849E-24
7.83203E-01 4.64466E-24
7.86788E-01 4.54270E-24
7.90351E-01 4.44256E-24
7.93893E-01 4.34421E-24
7.97411E-01 4.24763E-24
8.00908E-01 4.15278E-24
8.04381E-01 4.05962E-24
8.07831E-01 3.96813E-24
8.11257E-01 3.87828E-24
8.14660E-01 3.79004E-24
8.18039E-01 3.70337E-24
8.21394E-01 3.61826E-24
8.24724E-01 3.53468E-24
8.28030E-01 3.45259E-24
8.31310E-01 3.37198E-24
8.34565E-01 3.29281E-24
8.37795E-01 3.21508E-24
8.40999E-01 3.13874E-24
8.44177E-01 3.06377E-24
8.47329E-01 2.99016E-24
8.50455E-01 2.91789E-24
8.53553E-01 2.84692E-24
8.56625E-01 2.77723E-24
8.59670E-01 2.70882E-24
8.62687E-01 2.64165E-24
8.65677E-01 2.57570E-24
8.68639E-01 2.51097E-24
8.71572E-01 2.44742E-24
8.74478E-01 2.38504E-24
8.77355E-01 2.32381E-24
8.80203E-01 2.26372E-24
8.83022E-01 2.20474E-24
8.85812E-01 2.14687E-24
8.88573E-01 2.09008E-24
8.91304E-01 2.03436E-24
8.94005E-01 1.97969E-24
8.96677E-01 1.92606E-24
8.99318E-01 1.87346E-24
9.01928E-01 1.82186E-24
9.04508E-01 1.77126E-24
9.07058E-01 1.72163E-24
9.09576E-01 1.67298E-24
9.12063E-01 1.62527E-24
9.14519E-01 1.57851E-24
9.16943E-01 1.53268E-24
9.19335E-01 1.48776E-24
9.21696E-01 1.44374E-24
9.24024E-01 1.40062E-24
9.26320E-01 1.35838E-24
9.28584E-01 1.31701E-24
9.30815E-01 1.27649E-24
9.33013E-01 1.23683E-24
9.35178E-01 1.19800E-24
9.37310E-01 1.16000E-24
9.39409E-01 1.12282E-24
9.41474E-01 1.08645E-24
9.43505E-01 1.05088E-24
9.45503E-01 1.01609E-24
9.47467E-01 9.82094E-25
9.49397E-01 9.48866E-25
9.51293E-01 9.16404E-25
9.53154E-01 8.84697E-25
9.54981E-01 8.53739E-25
9.56773E-01 8.23522E-25
9.58530E-01 7.94038E-25
9.60252E-01 7.65280E-25
9.61940E-01 7.37240E-25
9.63592E-01 7.09913E-25
9.65209E-01 6.83290E-25
9.66790E-01 6.57366E-25
9.68336E-01 6.32135E-25
9.69846E-01 6.07589E-25
9.71321E-01 5.83724E-25
9.72759E-01 5.60533E-25
9.74162E-01 5.38010E-25
9.75528E-01 5.16151E-25
9.76858E-01 4.94950E-25
9.78152E-01 4.74402E-25
9.79410E-01 4.54502E-25
9.80631E-01 4.35244E-25
9.81815E-01 4.16626E-25
9.82963E-01 3.98642E-25
9.84074E-01 3.81287E-25
9.85148E-01 3.64558E-25
9.86185E-01 3.48452E-25
9.87185E-01 3.32963E-25
9.88148E-01 3.18088E-25
9.89074E-01 3.03824E-25
9.89962E-01 2.90168E-25
9.90814E-01 2.77116E-25
9.91627E-01 2.64666E-25
9.92404E-01 2.52813E-25
9.93143E-01 2.41556E-25
9.93844E-01 2.30892E-25
9.94508E-01 2.20819E-25
9.95134E-01 2.11333E-25
9.95722E-01 2.02433E-25
9.96273E-01 1.94117E-25
9.96786E-01 1.86383E-25
9.97261E-01 1.79229E-25
9.97698E-01 1.72654E-25
9.98097E-01 1.66655E-25
9.98459E-01 1.61232E-25
9.98782E-01 1.56383E-25
9.99067E-01 1.52107E-25
9.99315E-01 1.48403E-25
9.99524E-01 1.45270E-25
9.99695E-01 1.42708E-25
9.99829E-01 1.40716E-25
9.99924E-01 1.39294E-25
9.99981E-01 1.38440E-25
1.00000E+00 1.38156E-25
