 #
 # Subroutine ELSEPA. Elastic scattering of electrons and positrons
 #                    by neutral atoms and positive ions
 #
 # Projectile: electron
 # Kinetic energy = 1.50000E+08 eV = 5.51240E+06 a.u.
 #
 # WARNING: High-energy factorization with free-atom DF screening.
 #          Absorption, polarization and exchange corrections are
 #          switched off.
 #          Phase shifts are calculated for the bare nucleus.
 #          Scattering amplitudes are not evaluated.
 #
 # Element: Au,  Z =  79,  atomic weight = 1.96967E+02 g/mol
 #
 # Nuclear model: Fermi distribution
 #                Average radius = 6.22560E-13 cm
 #                Skin thickness = 5.46000E-14 cm
 #
 # Number of electrons = 79
 #
 # Total elastic cross section = 7.67735E-18 cm**2 = 2.74163E-01 a0**2
 # 1st transport cross section = 5.23375E-25 cm**2 = 1.86901E-08 a0**2
 # 2nd transport cross section = 1.56406E-24 cm**2 = 5.58535E-08 a0**2
 #
 #
 # Differential cross section:                       MU=(1-COS(THETA))/2
 #
 #  THETA        MU          DCS          DCS        Sherman      error
 #  (deg)                 (cm**2/sr)   (a0**2/sr)    function
 #----------------------------------------------------------------------
0.00000E+00 8.95457E-10
7.61557E-13 8.92319E-10
1.18994E-12 8.90568E-10
1.71346E-12 8.88438E-10
2.33225E-12 8.85933E-10
3.04617E-12 8.83061E-10
3.85530E-12 8.79827E-10
4.75964E-12 8.76238E-10
5.75917E-12 8.72305E-10
6.85391E-12 8.68035E-10
8.04379E-12 8.63439E-10
9.32893E-12 8.58525E-10
1.07092E-11 8.53273E-10
1.21847E-11 8.47711E-10
1.37554E-11 8.41917E-10
1.54213E-11 8.35910E-10
1.71823E-11 8.29531E-10
1.90386E-11 8.22918E-10
2.09900E-11 8.16147E-10
2.30367E-11 8.09197E-10
2.51785E-11 8.01861E-10
2.74156E-11 7.94420E-10
2.97478E-11 7.86891E-10
3.21752E-11 7.79119E-10
3.46979E-11 7.71107E-10
3.73157E-11 7.63058E-10
4.00286E-11 7.54990E-10
4.28368E-11 7.46575E-10
4.57402E-11 7.38105E-10
4.87388E-11 7.29660E-10
5.18325E-11 7.21170E-10
5.50215E-11 7.12372E-10
5.83057E-11 7.03643E-10
6.16850E-11 6.94992E-10
6.51595E-11 6.86175E-10
6.87293E-11 6.77246E-10
7.23943E-11 6.68430E-10
7.61544E-11 6.59736E-10
1.18991E-10 5.72175E-10
1.71347E-10 4.90671E-10
2.33223E-10 4.18205E-10
3.04617E-10 3.55453E-10
3.85531E-10 3.01875E-10
4.75965E-10 2.56699E-10
5.75917E-10 2.18766E-10
6.85389E-10 1.86930E-10
8.04380E-10 1.60195E-10
9.32891E-10 1.37769E-10
1.07092E-09 1.18212E-10
1.21847E-09 1.01643E-10
1.37554E-09 8.85067E-11
1.54213E-09 7.79580E-11
1.71823E-09 6.80920E-11
1.90386E-09 5.97281E-11
2.09900E-09 5.28701E-11
2.30367E-09 4.70991E-11
2.51785E-09 4.17045E-11
2.74156E-09 3.71966E-11
2.97478E-09 3.34002E-11
3.21752E-09 3.00253E-11
3.46978E-09 2.69995E-11
3.73156E-09 2.44125E-11
4.00286E-09 2.21872E-11
4.28368E-09 2.01297E-11
4.57402E-09 1.83223E-11
4.87388E-09 1.67489E-11
5.18326E-09 1.53543E-11
5.50215E-09 1.40573E-11
5.83057E-09 1.29164E-11
6.16850E-09 1.19089E-11
6.51596E-09 1.09836E-11
6.87293E-09 1.01364E-11
7.23942E-09 9.38202E-12
7.61544E-09 8.70813E-12
1.18991E-08 4.33286E-12
1.71347E-08 2.36377E-12
2.33223E-08 1.38755E-12
3.04617E-08 8.66682E-13
3.85531E-08 5.71149E-13
4.75965E-08 3.93007E-13
5.75917E-08 2.79605E-13
6.85389E-08 2.04529E-13
8.04380E-08 1.53145E-13
9.32891E-08 1.16932E-13
1.07092E-07 9.07397E-14
1.21847E-07 7.15879E-14
1.37554E-07 5.71659E-14
1.54213E-07 4.62285E-14
1.71823E-07 3.77992E-14
1.90386E-07 3.11831E-14
2.09900E-07 2.59602E-14
2.30367E-07 2.17913E-14
2.51785E-07 1.84189E-14
2.74156E-07 1.56747E-14
2.97478E-07 1.34252E-14
3.21752E-07 1.15628E-14
3.46978E-07 1.00116E-14
3.73156E-07 8.71323E-15
4.00286E-07 7.61832E-15
4.28368E-07 6.68941E-15
4.57402E-07 5.89857E-15
4.87388E-07 5.22145E-15
5.18325E-07 4.63826E-15
5.50215E-07 4.13470E-15
5.83057E-07 3.69797E-15
6.16850E-07 3.31704E-15
6.51596E-07 2.98418E-15
6.87293E-07 2.69223E-15
7.23942E-07 2.43498E-15
7.61543E-07 2.20782E-15
1.18991E-06 9.28566E-16
1.71347E-06 4.55556E-16
2.33223E-06 2.48750E-16
3.04617E-06 1.47017E-16
3.85531E-06 9.23583E-17
4.75964E-06 6.09014E-17
5.75916E-06 4.17707E-17
6.85388E-06 2.95983E-17
8.04378E-06 2.15556E-17
9.32888E-06 1.60693E-17
1.07092E-05 1.22231E-17
1.21846E-05 9.46212E-18
1.37553E-05 7.43864E-18
1.54212E-05 5.92838E-18
1.71822E-05 4.78273E-18
1.90385E-05 3.89866E-18
2.09899E-05 3.21373E-18
2.30365E-05 2.67234E-18
2.51783E-05 2.23963E-18
2.74153E-05 1.89053E-18
2.97475E-05 1.60662E-18
3.21749E-05 1.37404E-18
3.46974E-05 1.18219E-18
3.73152E-05 1.02284E-18
4.00281E-05 8.89571E-19
4.28362E-05 7.77367E-19
4.57395E-05 6.82306E-19
4.87380E-05 6.01308E-19
5.18317E-05 5.31943E-19
5.50205E-05 4.72272E-19
5.83045E-05 4.20728E-19
6.16838E-05 3.76034E-19
6.51582E-05 3.37133E-19
6.87277E-05 3.03148E-19
7.23925E-05 2.73349E-19
7.61524E-05 2.47412E-19
9.21439E-05 1.69302E-19
1.09658E-04 1.19745E-19
1.28695E-04 8.70902E-20
1.49255E-04 6.48563E-20
1.71338E-04 4.92982E-20
1.94942E-04 3.81454E-20
2.20070E-04 2.99816E-20
2.46720E-04 2.38942E-20
2.74892E-04 1.92799E-20
3.04586E-04 1.57304E-20
3.35803E-04 1.29637E-20
3.68542E-04 1.07812E-20
4.02802E-04 9.04060E-21
4.38585E-04 7.63870E-21
4.75889E-04 6.49919E-21
5.14715E-04 5.56526E-21
5.55063E-04 4.79380E-21
5.96931E-04 4.15201E-21
6.40321E-04 3.61453E-21
6.85233E-04 3.16161E-21
7.31665E-04 2.77774E-21
7.79618E-04 2.45063E-21
8.29092E-04 2.17048E-21
8.80086E-04 1.92940E-21
9.32601E-04 1.72102E-21
9.86636E-04 1.54014E-21
1.04219E-03 1.38250E-21
1.09927E-03 1.24462E-21
1.15786E-03 1.12358E-21
1.21797E-03 1.01694E-21
1.27961E-03 9.22663E-22
1.34276E-03 8.39096E-22
1.40743E-03 7.64808E-22
1.47362E-03 6.98582E-22
1.54133E-03 6.39389E-22
1.61056E-03 5.86348E-22
1.68131E-03 5.38703E-22
1.75357E-03 4.95809E-22
1.82735E-03 4.57104E-22
1.90265E-03 4.22106E-22
1.97947E-03 3.90395E-22
2.05780E-03 3.61607E-22
2.13765E-03 3.35423E-22
2.21902E-03 3.11565E-22
2.30190E-03 2.89787E-22
2.38630E-03 2.69876E-22
2.47222E-03 2.51642E-22
2.55965E-03 2.34917E-22
2.64859E-03 2.19555E-22
2.73905E-03 2.05423E-22
2.83103E-03 1.92404E-22
2.92452E-03 1.80396E-22
3.01952E-03 1.69304E-22
3.11604E-03 1.59046E-22
3.21407E-03 1.49549E-22
3.31362E-03 1.40744E-22
3.41468E-03 1.32572E-22
3.51725E-03 1.24979E-22
3.62133E-03 1.17917E-22
3.72692E-03 1.11342E-22
3.83403E-03 1.05213E-22
3.94265E-03 9.94954E-23
4.05278E-03 9.41559E-23
4.16442E-03 8.91649E-23
4.27757E-03 8.44955E-23
4.39223E-03 8.01232E-23
4.50840E-03 7.60256E-23
4.62608E-03 7.21822E-23
4.74527E-03 6.85743E-23
4.86597E-03 6.51849E-23
4.98817E-03 6.19983E-23
5.11188E-03 5.90001E-23
5.23711E-03 5.61771E-23
5.36383E-03 5.35173E-23
5.49207E-03 5.10094E-23
5.62181E-03 4.86432E-23
5.75306E-03 4.64093E-23
5.88581E-03 4.42988E-23
6.02007E-03 4.23037E-23
6.15583E-03 4.04167E-23
6.29310E-03 3.86306E-23
6.43187E-03 3.69393E-23
6.57214E-03 3.53367E-23
6.71392E-03 3.38173E-23
6.85720E-03 3.23760E-23
7.00198E-03 3.10082E-23
7.14827E-03 2.97094E-23
7.29605E-03 2.84754E-23
7.44534E-03 2.73025E-23
7.59612E-03 2.61872E-23
7.97965E-03 2.36291E-23
8.37255E-03 2.13641E-23
8.77480E-03 1.93533E-23
9.18641E-03 1.75635E-23
9.60736E-03 1.59666E-23
1.00376E-02 1.45386E-23
1.04773E-02 1.32586E-23
1.09262E-02 1.21091E-23
1.13844E-02 1.10746E-23
1.18520E-02 1.01418E-23
1.23288E-02 9.29933E-24
1.28150E-02 8.53702E-24
1.33104E-02 7.84612E-24
1.38150E-02 7.21897E-24
1.43290E-02 6.64881E-24
1.48521E-02 6.12972E-24
1.53845E-02 5.65647E-24
1.59262E-02 5.22444E-24
1.64770E-02 4.82955E-24
1.70371E-02 4.46815E-24
1.76063E-02 4.13703E-24
1.81848E-02 3.83331E-24
1.87724E-02 3.55442E-24
1.93692E-02 3.29806E-24
1.99751E-02 3.06219E-24
2.05901E-02 2.84496E-24
2.12143E-02 2.64472E-24
2.18476E-02 2.45997E-24
2.24900E-02 2.28937E-24
2.31415E-02 2.13171E-24
2.38021E-02 1.98590E-24
2.44717E-02 1.85095E-24
2.51504E-02 1.72595E-24
2.58382E-02 1.61009E-24
2.65349E-02 1.50264E-24
2.72407E-02 1.40291E-24
2.79555E-02 1.31030E-24
2.86793E-02 1.22425E-24
2.94120E-02 1.14425E-24
3.01537E-02 1.06983E-24
3.09043E-02 1.00057E-24
3.16639E-02 9.36070E-25
3.24324E-02 8.75982E-25
3.32098E-02 8.19977E-25
3.39961E-02 7.67752E-25
3.47912E-02 7.19032E-25
3.55952E-02 6.73563E-25
3.64081E-02 6.31112E-25
3.72297E-02 5.91462E-25
3.80602E-02 5.54416E-25
3.88995E-02 5.19791E-25
3.97476E-02 4.87417E-25
4.06044E-02 4.57138E-25
4.14700E-02 4.28811E-25
4.23443E-02 4.02301E-25
4.32273E-02 3.77485E-25
4.41190E-02 3.54248E-25
4.50194E-02 3.32485E-25
4.59284E-02 3.12097E-25
4.68461E-02 2.92993E-25
4.87074E-02 2.58302E-25
5.06030E-02 2.27803E-25
5.25328E-02 2.00971E-25
5.44967E-02 1.77349E-25
5.64946E-02 1.56540E-25
5.85262E-02 1.38200E-25
6.05914E-02 1.22030E-25
6.26901E-02 1.07766E-25
6.48222E-02 9.51797E-26
6.69873E-02 8.40713E-26
6.91854E-02 7.42649E-26
7.14163E-02 6.56065E-26
7.36799E-02 5.79609E-26
7.59760E-02 5.12092E-26
7.83043E-02 4.52467E-26
8.06647E-02 3.99812E-26
8.30571E-02 3.53316E-26
8.54812E-02 3.12262E-26
8.79369E-02 2.76017E-26
9.04240E-02 2.44022E-26
9.29422E-02 2.15785E-26
9.54915E-02 1.90868E-26
9.80716E-02 1.68887E-26
1.00682E-01 1.49498E-26
1.03323E-01 1.32402E-26
1.05995E-01 1.17329E-26
1.08696E-01 1.04044E-26
1.11427E-01 9.23367E-27
1.14188E-01 8.20222E-27
1.16978E-01 7.29363E-27
1.19797E-01 6.49336E-27
1.22645E-01 5.78857E-27
1.25522E-01 5.16789E-27
1.28428E-01 4.62126E-27
1.31361E-01 4.13979E-27
1.34323E-01 3.71562E-27
1.37313E-01 3.34182E-27
1.40330E-01 3.01225E-27
1.43375E-01 2.72152E-27
1.46447E-01 2.46484E-27
1.49545E-01 2.23803E-27
1.52671E-01 2.03739E-27
1.55823E-01 1.85965E-27
1.59001E-01 1.70197E-27
1.62205E-01 1.56182E-27
1.65435E-01 1.43701E-27
1.68690E-01 1.32561E-27
1.71970E-01 1.22592E-27
1.75276E-01 1.13647E-27
1.78606E-01 1.05596E-27
1.81961E-01 9.83276E-28
1.85340E-01 9.17430E-28
1.88743E-01 8.57572E-28
1.92169E-01 8.02960E-28
1.95619E-01 7.52950E-28
1.99092E-01 7.06986E-28
2.02589E-01 6.64587E-28
2.06107E-01 6.25336E-28
2.09649E-01 5.88873E-28
2.13212E-01 5.54891E-28
2.16797E-01 5.23122E-28
2.20404E-01 4.93337E-28
2.24032E-01 4.65341E-28
2.27680E-01 4.38963E-28
2.31350E-01 4.14059E-28
2.35040E-01 3.90505E-28
2.38751E-01 3.68193E-28
2.42481E-01 3.47032E-28
2.46231E-01 3.26941E-28
2.50000E-01 3.07852E-28
2.53788E-01 2.89705E-28
2.57595E-01 2.72448E-28
2.61421E-01 2.56034E-28
2.65264E-01 2.40423E-28
2.69126E-01 2.25578E-28
2.73005E-01 2.11467E-28
2.76901E-01 1.98058E-28
2.80814E-01 1.85326E-28
2.84744E-01 1.73243E-28
2.88691E-01 1.61785E-28
2.92653E-01 1.50930E-28
2.96632E-01 1.40655E-28
3.00625E-01 1.30939E-28
3.04634E-01 1.21761E-28
3.08658E-01 1.13101E-28
3.12697E-01 1.04940E-28
3.16749E-01 9.72570E-29
3.20816E-01 9.00341E-29
3.24896E-01 8.32523E-29
3.28990E-01 7.68929E-29
3.33097E-01 7.09376E-29
3.37216E-01 6.53685E-29
3.41348E-01 6.01678E-29
3.45492E-01 5.53181E-29
3.49647E-01 5.08024E-29
3.53814E-01 4.66038E-29
3.57992E-01 4.27061E-29
3.62181E-01 3.90932E-29
3.66381E-01 3.57496E-29
3.70590E-01 3.26602E-29
3.74810E-01 2.98102E-29
3.79039E-01 2.71854E-29
3.83277E-01 2.47721E-29
3.87524E-01 2.25571E-29
3.91780E-01 2.05275E-29
3.96044E-01 1.86712E-29
4.00316E-01 1.69764E-29
4.04596E-01 1.54319E-29
4.08882E-01 1.40270E-29
4.13176E-01 1.27515E-29
4.17476E-01 1.15958E-29
4.21783E-01 1.05506E-29
4.26095E-01 9.60723E-30
4.30413E-01 8.75755E-30
4.34737E-01 7.99380E-30
4.39065E-01 7.30871E-30
4.43398E-01 6.69546E-30
4.47736E-01 6.14766E-30
4.52077E-01 5.65936E-30
4.56422E-01 5.22497E-30
4.60770E-01 4.83934E-30
4.65122E-01 4.49764E-30
4.69476E-01 4.19545E-30
4.73832E-01 3.92864E-30
4.78190E-01 3.69342E-30
4.82550E-01 3.48633E-30
4.86912E-01 3.30415E-30
4.91274E-01 3.14399E-30
4.95637E-01 3.00316E-30
5.00000E-01 2.87925E-30
5.04363E-01 2.77007E-30
5.08726E-01 2.67364E-30
5.13088E-01 2.58816E-30
5.17450E-01 2.51203E-30
5.21810E-01 2.44382E-30
5.26168E-01 2.38227E-30
5.30524E-01 2.32623E-30
5.34878E-01 2.27471E-30
5.39230E-01 2.22685E-30
5.43578E-01 2.18187E-30
5.47923E-01 2.13913E-30
5.52264E-01 2.09806E-30
5.56602E-01 2.05818E-30
5.60935E-01 2.01909E-30
5.65263E-01 1.98045E-30
5.69587E-01 1.94199E-30
5.73905E-01 1.90349E-30
5.78217E-01 1.86478E-30
5.82524E-01 1.82573E-30
5.86824E-01 1.78626E-30
5.91118E-01 1.74631E-30
5.95404E-01 1.70586E-30
5.99684E-01 1.66488E-30
6.03956E-01 1.62342E-30
6.08220E-01 1.58149E-30
6.12476E-01 1.53915E-30
6.16723E-01 1.49645E-30
6.20961E-01 1.45347E-30
6.25190E-01 1.41028E-30
6.29410E-01 1.36697E-30
6.33619E-01 1.32360E-30
6.37819E-01 1.28028E-30
6.42008E-01 1.23708E-30
6.46186E-01 1.19408E-30
6.50353E-01 1.15139E-30
6.54508E-01 1.10906E-30
6.58652E-01 1.06718E-30
6.62784E-01 1.02582E-30
6.66903E-01 9.85059E-31
6.71010E-01 9.44950E-31
6.75104E-01 9.05555E-31
6.79184E-01 8.66930E-31
6.83251E-01 8.29123E-31
6.87303E-01 7.92179E-31
6.91342E-01 7.56136E-31
6.95366E-01 7.21029E-31
6.99375E-01 6.86886E-31
7.03368E-01 6.53732E-31
7.07347E-01 6.21585E-31
7.11309E-01 5.90461E-31
7.15256E-01 5.60370E-31
7.19186E-01 5.31319E-31
7.23099E-01 5.03311E-31
7.26995E-01 4.76344E-31
7.30874E-01 4.50414E-31
7.34736E-01 4.25515E-31
7.38579E-01 4.01635E-31
7.42405E-01 3.78762E-31
7.46212E-01 3.56881E-31
7.50000E-01 3.35974E-31
7.53769E-01 3.16023E-31
7.57519E-01 2.97007E-31
7.61249E-01 2.78902E-31
7.64960E-01 2.61686E-31
7.68650E-01 2.45334E-31
7.72320E-01 2.29820E-31
7.75968E-01 2.15119E-31
7.79596E-01 2.01202E-31
7.83203E-01 1.88043E-31
7.86788E-01 1.75615E-31
7.90351E-01 1.63890E-31
7.93893E-01 1.52840E-31
7.97411E-01 1.42437E-31
8.00908E-01 1.32655E-31
8.04381E-01 1.23465E-31
8.07831E-01 1.14842E-31
8.11257E-01 1.06759E-31
8.14660E-01 9.91905E-32
8.18039E-01 9.21108E-32
8.21394E-01 8.54954E-32
8.24724E-01 7.93205E-32
8.28030E-01 7.35626E-32
8.31310E-01 6.81992E-32
8.34565E-01 6.32084E-32
8.37795E-01 5.85690E-32
8.40999E-01 5.42608E-32
8.44177E-01 5.02641E-32
8.47329E-01 4.65601E-32
8.50455E-01 4.31309E-32
8.53553E-01 3.99591E-32
8.56625E-01 3.70282E-32
8.59670E-01 3.43226E-32
8.62687E-01 3.18272E-32
8.65677E-01 2.95277E-32
8.68639E-01 2.74108E-32
8.71572E-01 2.54635E-32
8.74478E-01 2.36737E-32
8.77355E-01 2.20299E-32
8.80203E-01 2.05213E-32
8.83022E-01 1.91377E-32
8.85812E-01 1.78695E-32
8.88573E-01 1.67076E-32
8.91304E-01 1.56436E-32
8.94005E-01 1.46696E-32
8.96677E-01 1.37781E-32
8.99318E-01 1.29622E-32
9.01928E-01 1.22155E-32
9.04508E-01 1.15318E-32
9.07058E-01 1.09058E-32
9.09576E-01 1.03320E-32
9.12063E-01 9.80581E-33
9.14519E-01 9.32268E-33
9.16943E-01 8.87853E-33
9.19335E-01 8.46957E-33
9.21696E-01 8.09230E-33
9.24024E-01 7.74354E-33
9.26320E-01 7.42036E-33
9.28584E-01 7.12007E-33
9.30815E-01 6.84023E-33
9.33013E-01 6.57861E-33
9.35178E-01 6.33320E-33
9.37310E-01 6.10216E-33
9.39409E-01 5.88385E-33
9.41474E-01 5.67677E-33
9.43505E-01 5.47960E-33
9.45503E-01 5.29113E-33
9.47467E-01 5.11032E-33
9.49397E-01 4.93621E-33
9.51293E-01 4.76798E-33
9.53154E-01 4.60491E-33
9.54981E-01 4.44635E-33
9.56773E-01 4.29175E-33
9.58530E-01 4.14065E-33
9.60252E-01 3.99264E-33
9.61940E-01 3.84739E-33
9.63592E-01 3.70462E-33
9.65209E-01 3.56411E-33
9.66790E-01 3.42568E-33
9.68336E-01 3.28919E-33
9.69846E-01 3.15454E-33
9.71321E-01 3.02168E-33
9.72759E-01 2.89057E-33
9.74162E-01 2.76121E-33
9.75528E-01 2.63360E-33
9.76858E-01 2.50779E-33
9.78152E-01 2.38383E-33
9.79410E-01 2.26180E-33
9.80631E-01 2.14177E-33
9.81815E-01 2.02383E-33
9.82963E-01 1.90809E-33
9.84074E-01 1.79465E-33
9.85148E-01 1.68363E-33
9.86185E-01 1.57515E-33
9.87185E-01 1.46932E-33
9.88148E-01 1.36627E-33
9.89074E-01 1.26612E-33
9.89962E-01 1.16899E-33
9.90814E-01 1.07500E-33
9.91627E-01 9.84278E-34
9.92404E-01 8.96932E-34
9.93143E-01 8.13075E-34
9.93844E-01 7.32822E-34
9.94508E-01 6.56275E-34
9.95134E-01 5.83538E-34
9.95722E-01 5.14705E-34
9.96273E-01 4.49872E-34
9.96786E-01 3.89123E-34
9.97261E-01 3.32541E-34
9.97698E-01 2.80201E-34
9.98097E-01 2.32175E-34
9.98459E-01 1.88526E-34
9.98782E-01 1.49313E-34
9.99067E-01 1.14589E-34
9.99315E-01 8.43982E-35
9.99524E-01 5.87869E-35
9.99695E-01 3.77832E-35
9.99829E-01 2.14183E-35
9.99924E-01 9.71331E-36
9.99981E-01 2.68433E-36
1.00000E+00 3.40410E-37
