 #
 # Subroutine ELSEPA. Elastic scattering of electrons and positrons
 #                    by neutral atoms and positive ions
 #
 # Projectile: positron
 # Kinetic energy = 2.50000E+08 eV = 9.18733E+06 a.u.
 #
 # WARNING: High-energy factorization with free-atom DF screening.
 #          Absorption, polarization and exchange corrections are
 #          switched off.
 #          Phase shifts are calculated for the bare nucleus.
 #          Scattering amplitudes are not evaluated.
 #
 # Element: Tl,  Z =  81,  atomic weight = 2.04383E+02 g/mol
 #
 # Nuclear model: Fermi distribution
 #                Average radius = 6.30278E-13 cm
 #                Skin thickness = 5.46000E-14 cm
 #
 # Number of electrons = 81
 #
 # Total elastic cross section = 8.28281E-18 cm**2 = 2.95784E-01 a0**2
 # 1st transport cross section = 1.93825E-25 cm**2 = 6.92163E-09 a0**2
 # 2nd transport cross section = 5.80541E-25 cm**2 = 2.07315E-08 a0**2
 #
 #
 # Differential cross section:                       MU=(1-COS(THETA))/2
 #
 #  THETA        MU          DCS          DCS        Sherman      error
 #  (deg)                 (cm**2/sr)   (a0**2/sr)    function
 #----------------------------------------------------------------------
0.00000E+00 3.54318E-09
7.61557E-13 3.48523E-09
1.18994E-12 3.45350E-09
1.71346E-12 3.41551E-09
2.33225E-12 3.37171E-09
3.04617E-12 3.32256E-09
3.85530E-12 3.26856E-09
4.75964E-12 3.21027E-09
5.75917E-12 3.14840E-09
6.85391E-12 3.08316E-09
8.04379E-12 3.01554E-09
9.32893E-12 2.94560E-09
1.07092E-11 2.87428E-09
1.21847E-11 2.80169E-09
1.37554E-11 2.72854E-09
1.54213E-11 2.65507E-09
1.71823E-11 2.58164E-09
1.90386E-11 2.50875E-09
2.09900E-11 2.43628E-09
2.30367E-11 2.36511E-09
2.51785E-11 2.29455E-09
2.74156E-11 2.22581E-09
2.97478E-11 2.15794E-09
3.21752E-11 2.09206E-09
3.46979E-11 2.02746E-09
3.73157E-11 1.96478E-09
4.00286E-11 1.90371E-09
4.28368E-11 1.84440E-09
4.57402E-11 1.78699E-09
4.87388E-11 1.73109E-09
5.18325E-11 1.67734E-09
5.50215E-11 1.62481E-09
5.83057E-11 1.57459E-09
6.16850E-11 1.52539E-09
6.51595E-11 1.47837E-09
6.87293E-11 1.43255E-09
7.23943E-11 1.38858E-09
7.61544E-11 1.34596E-09
1.18991E-10 9.93622E-10
1.71347E-10 7.44818E-10
2.33223E-10 5.66858E-10
3.04617E-10 4.37131E-10
3.85531E-10 3.39427E-10
4.75965E-10 2.65948E-10
5.75917E-10 2.14924E-10
6.85389E-10 1.71843E-10
8.04380E-10 1.40913E-10
9.32891E-10 1.15394E-10
1.07092E-09 9.59986E-11
1.21847E-09 8.02792E-11
1.37554E-09 6.77746E-11
1.54213E-09 5.76657E-11
1.71823E-09 4.93510E-11
1.90386E-09 4.25990E-11
2.09900E-09 3.68898E-11
2.30367E-09 3.22256E-11
2.51785E-09 2.81829E-11
2.74156E-09 2.48461E-11
2.97478E-09 2.19214E-11
3.21752E-09 1.94604E-11
3.46978E-09 1.73059E-11
3.73156E-09 1.54524E-11
4.00286E-09 1.38328E-11
4.28368E-09 1.24132E-11
4.57402E-09 1.11750E-11
4.87388E-09 1.00731E-11
5.18326E-09 9.11301E-12
5.50215E-09 8.24855E-12
5.83057E-09 7.49403E-12
6.16850E-09 6.81098E-12
6.51596E-09 6.20982E-12
6.87293E-09 5.66800E-12
7.23942E-09 5.18558E-12
7.61544E-09 4.75186E-12
1.18991E-08 2.17157E-12
1.71347E-08 1.13766E-12
2.33223E-08 6.55174E-13
3.04617E-08 4.04433E-13
3.85531E-08 2.62858E-13
4.75965E-08 1.78315E-13
5.75917E-08 1.25224E-13
6.85389E-08 9.05159E-14
8.04380E-08 6.70434E-14
9.32891E-08 5.07049E-14
1.07092E-07 3.90379E-14
1.21847E-07 3.05375E-14
1.37554E-07 2.42281E-14
1.54213E-07 1.94667E-14
1.71823E-07 1.58196E-14
1.90386E-07 1.29885E-14
2.09900E-07 1.07640E-14
2.30367E-07 8.99596E-15
2.51785E-07 7.57691E-15
2.74156E-07 6.42741E-15
2.97478E-07 5.48816E-15
3.21752E-07 4.71459E-15
3.46978E-07 4.07274E-15
3.73156E-07 3.53657E-15
4.00286E-07 3.08571E-15
4.28368E-07 2.70443E-15
4.57402E-07 2.38023E-15
4.87388E-07 2.10316E-15
5.18325E-07 1.86523E-15
5.50215E-07 1.65997E-15
5.83057E-07 1.48215E-15
6.16850E-07 1.32746E-15
6.51596E-07 1.19239E-15
6.87293E-07 1.07406E-15
7.23942E-07 9.70021E-16
7.61543E-07 8.78263E-16
1.18991E-06 3.64832E-16
1.71347E-06 1.77503E-16
2.33223E-06 9.64159E-17
3.04617E-06 5.67882E-17
3.85531E-06 3.55864E-17
4.75964E-06 2.34187E-17
5.75916E-06 1.60343E-17
6.85388E-06 1.13438E-17
8.04378E-06 8.24923E-18
9.32888E-06 6.14120E-18
1.07092E-05 4.66528E-18
1.21846E-05 3.60709E-18
1.37553E-05 2.83248E-18
1.54212E-05 2.25498E-18
1.71822E-05 1.81737E-18
1.90385E-05 1.47996E-18
2.09899E-05 1.21888E-18
2.30365E-05 1.01270E-18
2.51783E-05 8.48034E-19
2.74153E-05 7.15290E-19
2.97475E-05 6.07417E-19
3.21749E-05 5.19117E-19
3.46974E-05 4.46330E-19
3.73152E-05 3.85915E-19
4.00281E-05 3.35422E-19
4.28362E-05 2.92936E-19
4.57395E-05 2.56964E-19
4.87380E-05 2.26330E-19
5.18317E-05 2.00110E-19
5.50205E-05 1.77566E-19
5.83045E-05 1.58103E-19
6.16838E-05 1.41235E-19
6.51582E-05 1.26560E-19
6.87277E-05 1.13746E-19
7.23925E-05 1.02514E-19
7.61524E-05 9.29008E-20
9.21439E-05 6.34691E-20
1.09658E-04 4.48214E-20
1.28695E-04 3.25492E-20
1.49255E-04 2.42032E-20
1.71338E-04 1.83696E-20
1.94942E-04 1.41923E-20
2.20070E-04 1.11378E-20
2.46720E-04 8.86246E-21
2.74892E-04 7.13954E-21
3.04586E-04 5.81553E-21
3.35803E-04 4.78460E-21
3.68542E-04 3.97219E-21
4.02802E-04 3.32505E-21
4.38585E-04 2.80444E-21
4.75889E-04 2.38148E-21
5.14715E-04 2.03520E-21
5.55063E-04 1.74950E-21
5.96931E-04 1.51209E-21
6.40321E-04 1.31351E-21
6.85233E-04 1.14637E-21
7.31665E-04 1.00489E-21
7.79618E-04 8.84475E-22
8.29092E-04 7.81486E-22
8.80086E-04 6.92976E-22
9.32601E-04 6.16574E-22
9.86636E-04 5.50348E-22
1.04219E-03 4.92712E-22
1.09927E-03 4.42368E-22
1.15786E-03 3.98236E-22
1.21797E-03 3.59421E-22
1.27961E-03 3.25174E-22
1.34276E-03 2.94864E-22
1.40743E-03 2.67964E-22
1.47362E-03 2.44023E-22
1.54133E-03 2.22662E-22
1.61056E-03 2.03553E-22
1.68131E-03 1.86420E-22
1.75357E-03 1.71023E-22
1.82735E-03 1.57156E-22
1.90265E-03 1.44641E-22
1.97947E-03 1.33323E-22
2.05780E-03 1.23068E-22
2.13765E-03 1.13760E-22
2.21902E-03 1.05296E-22
2.30190E-03 9.75869E-23
2.38630E-03 9.05529E-23
2.47222E-03 8.41255E-23
2.55965E-03 7.82432E-23
2.64859E-03 7.28520E-23
2.73905E-03 6.79039E-23
2.83103E-03 6.33562E-23
2.92452E-03 5.91712E-23
3.01952E-03 5.53150E-23
3.11604E-03 5.17574E-23
3.21407E-03 4.84714E-23
3.31362E-03 4.54328E-23
3.41468E-03 4.26198E-23
3.51725E-03 4.00128E-23
3.62133E-03 3.75944E-23
3.72692E-03 3.53485E-23
3.83403E-03 3.32609E-23
3.94265E-03 3.13184E-23
4.05278E-03 2.95095E-23
4.16442E-03 2.78233E-23
4.27757E-03 2.62502E-23
4.39223E-03 2.47814E-23
4.50840E-03 2.34089E-23
4.62608E-03 2.21252E-23
4.74527E-03 2.09238E-23
4.86597E-03 1.97985E-23
4.98817E-03 1.87437E-23
5.11188E-03 1.77543E-23
5.23711E-03 1.68257E-23
5.36383E-03 1.59534E-23
5.49207E-03 1.51335E-23
5.62181E-03 1.43624E-23
5.75306E-03 1.36368E-23
5.88581E-03 1.29535E-23
6.02007E-03 1.23097E-23
6.15583E-03 1.17027E-23
6.29310E-03 1.11302E-23
6.43187E-03 1.05899E-23
6.57214E-03 1.00796E-23
6.71392E-03 9.59757E-24
6.85720E-03 9.14188E-24
7.00198E-03 8.71092E-24
7.14827E-03 8.30315E-24
7.29605E-03 7.91713E-24
7.44534E-03 7.55154E-24
7.59612E-03 7.20514E-24
7.97965E-03 6.41573E-24
8.37255E-03 5.72331E-24
8.77480E-03 5.11444E-24
9.18641E-03 4.57778E-24
9.60736E-03 4.10371E-24
1.00376E-02 3.68403E-24
1.04773E-02 3.31178E-24
1.09262E-02 2.98095E-24
1.13844E-02 2.68642E-24
1.18520E-02 2.42375E-24
1.23288E-02 2.18912E-24
1.28150E-02 1.97921E-24
1.33104E-02 1.79115E-24
1.38150E-02 1.62243E-24
1.43290E-02 1.47085E-24
1.48521E-02 1.33451E-24
1.53845E-02 1.21173E-24
1.59262E-02 1.10104E-24
1.64770E-02 1.00114E-24
1.70371E-02 9.10883E-25
1.76063E-02 8.29262E-25
1.81848E-02 7.55383E-25
1.87724E-02 6.88452E-25
1.93692E-02 6.27767E-25
1.99751E-02 5.72701E-25
2.05901E-02 5.22697E-25
2.12143E-02 4.77257E-25
2.18476E-02 4.35937E-25
2.24900E-02 3.98339E-25
2.31415E-02 3.64108E-25
2.38021E-02 3.32924E-25
2.44717E-02 3.04501E-25
2.51504E-02 2.78581E-25
2.58382E-02 2.54933E-25
2.65349E-02 2.33348E-25
2.72407E-02 2.13637E-25
2.79555E-02 1.95630E-25
2.86793E-02 1.79175E-25
2.94120E-02 1.64132E-25
3.01537E-02 1.50376E-25
3.09043E-02 1.37792E-25
3.16639E-02 1.26277E-25
3.24324E-02 1.15739E-25
3.32098E-02 1.06091E-25
3.39961E-02 9.72574E-26
3.47912E-02 8.91668E-26
3.55952E-02 8.17556E-26
3.64081E-02 7.49656E-26
3.72297E-02 6.87439E-26
3.80602E-02 6.30421E-26
3.88995E-02 5.78162E-26
3.97476E-02 5.30259E-26
4.06044E-02 4.86346E-26
4.14700E-02 4.46087E-26
4.23443E-02 4.09176E-26
4.32273E-02 3.75333E-26
4.41190E-02 3.44301E-26
4.50194E-02 3.15847E-26
4.59284E-02 2.89756E-26
4.68461E-02 2.65831E-26
4.87074E-02 2.23777E-26
5.06030E-02 1.88421E-26
5.25328E-02 1.58699E-26
5.44967E-02 1.33718E-26
5.64946E-02 1.12726E-26
5.85262E-02 9.50911E-27
6.05914E-02 8.02791E-27
6.26901E-02 6.78413E-27
6.48222E-02 5.73992E-27
6.69873E-02 4.86339E-27
6.91854E-02 4.12765E-27
7.14163E-02 3.51008E-27
7.36799E-02 2.99161E-27
7.59760E-02 2.55620E-27
7.83043E-02 2.19033E-27
8.06647E-02 1.88267E-27
8.30571E-02 1.62369E-27
8.54812E-02 1.40539E-27
8.79369E-02 1.22105E-27
9.04240E-02 1.06508E-27
9.29422E-02 9.32767E-28
9.54915E-02 8.20198E-28
9.80716E-02 7.24102E-28
1.00682E-01 6.41753E-28
1.03323E-01 5.70886E-28
1.05995E-01 5.09618E-28
1.08696E-01 4.56390E-28
1.11427E-01 4.09908E-28
1.14188E-01 3.69104E-28
1.16978E-01 3.33094E-28
1.19797E-01 3.01150E-28
1.22645E-01 2.72669E-28
1.25522E-01 2.47157E-28
1.28428E-01 2.24203E-28
1.31361E-01 2.03470E-28
1.34323E-01 1.84677E-28
1.37313E-01 1.67594E-28
1.40330E-01 1.52027E-28
1.43375E-01 1.37814E-28
1.46447E-01 1.24818E-28
1.49545E-01 1.12926E-28
1.52671E-01 1.02036E-28
1.55823E-01 9.20650E-29
1.59001E-01 8.29367E-29
1.62205E-01 7.45856E-29
1.65435E-01 6.69525E-29
1.68690E-01 5.99840E-29
1.71970E-01 5.36314E-29
1.75276E-01 4.78501E-29
1.78606E-01 4.25983E-29
1.81961E-01 3.78374E-29
1.85340E-01 3.35309E-29
1.88743E-01 2.96447E-29
1.92169E-01 2.61463E-29
1.95619E-01 2.30055E-29
1.99092E-01 2.01934E-29
2.02589E-01 1.76827E-29
2.06107E-01 1.54479E-29
2.09649E-01 1.34649E-29
2.13212E-01 1.17109E-29
2.16797E-01 1.01646E-29
2.20404E-01 8.80624E-30
2.24032E-01 7.61721E-30
2.27680E-01 6.58030E-30
2.31350E-01 5.67953E-30
2.35040E-01 4.90016E-30
2.38751E-01 4.22863E-30
2.42481E-01 3.65250E-30
2.46231E-01 3.16041E-30
2.50000E-01 2.74202E-30
2.53788E-01 2.38795E-30
2.57595E-01 2.08976E-30
2.61421E-01 1.83984E-30
2.65264E-01 1.63137E-30
2.69126E-01 1.45829E-30
2.73005E-01 1.31522E-30
2.76901E-01 1.19741E-30
2.80814E-01 1.10070E-30
2.84744E-01 1.02143E-30
2.88691E-01 9.56462E-31
2.92653E-01 9.03064E-31
2.96632E-01 8.58904E-31
3.00625E-01 8.22003E-31
3.04634E-01 7.90692E-31
3.08658E-01 7.63581E-31
3.12697E-01 7.39521E-31
3.16749E-01 7.17581E-31
3.20816E-01 6.97013E-31
3.24896E-01 6.77232E-31
3.28990E-01 6.57788E-31
3.33097E-01 6.38351E-31
3.37216E-01 6.18689E-31
3.41348E-01 5.98650E-31
3.45492E-01 5.78152E-31
3.49647E-01 5.57166E-31
3.53814E-01 5.35707E-31
3.57992E-01 5.13823E-31
3.62181E-01 4.91587E-31
3.66381E-01 4.69089E-31
3.70590E-01 4.46432E-31
3.74810E-01 4.23725E-31
3.79039E-01 4.01078E-31
3.83277E-01 3.78601E-31
3.87524E-01 3.56400E-31
3.91780E-01 3.34574E-31
3.96044E-01 3.13217E-31
4.00316E-01 2.92410E-31
4.04596E-01 2.72230E-31
4.08882E-01 2.52738E-31
4.13176E-01 2.33990E-31
4.17476E-01 2.16030E-31
4.21783E-01 1.98891E-31
4.26095E-01 1.82600E-31
4.30413E-01 1.67173E-31
4.34737E-01 1.52618E-31
4.39065E-01 1.38937E-31
4.43398E-01 1.26123E-31
4.47736E-01 1.14165E-31
4.52077E-01 1.03046E-31
4.56422E-01 9.27433E-32
4.60770E-01 8.32325E-32
4.65122E-01 7.44843E-32
4.69476E-01 6.64671E-32
4.73832E-01 5.91474E-32
4.78190E-01 5.24900E-32
4.82550E-01 4.64586E-32
4.86912E-01 4.10165E-32
4.91274E-01 3.61265E-32
4.95637E-01 3.17518E-32
5.00000E-01 2.78559E-32
5.04363E-01 2.44029E-32
5.08726E-01 2.13581E-32
5.13088E-01 1.86878E-32
5.17450E-01 1.63595E-32
5.21810E-01 1.43423E-32
5.26168E-01 1.26065E-32
5.30524E-01 1.11243E-32
5.34878E-01 9.86945E-33
5.39230E-01 8.81715E-33
5.43578E-01 7.94441E-33
5.47923E-01 7.22987E-33
5.52264E-01 6.65372E-33
5.56602E-01 6.19779E-33
5.60935E-01 5.84539E-33
5.65263E-01 5.58131E-33
5.69587E-01 5.39178E-33
5.73905E-01 5.26433E-33
5.78217E-01 5.18780E-33
5.82524E-01 5.15221E-33
5.86824E-01 5.14872E-33
5.91118E-01 5.16952E-33
5.95404E-01 5.20779E-33
5.99684E-01 5.25762E-33
6.03956E-01 5.31390E-33
6.08220E-01 5.37232E-33
6.12476E-01 5.42922E-33
6.16723E-01 5.48161E-33
6.20961E-01 5.52703E-33
6.25190E-01 5.56354E-33
6.29410E-01 5.58966E-33
6.33619E-01 5.60430E-33
6.37819E-01 5.60673E-33
6.42008E-01 5.59652E-33
6.46186E-01 5.57350E-33
6.50353E-01 5.53774E-33
6.54508E-01 5.48950E-33
6.58652E-01 5.42919E-33
6.62784E-01 5.35736E-33
6.66903E-01 5.27467E-33
6.71010E-01 5.18184E-33
6.75104E-01 5.07969E-33
6.79184E-01 4.96903E-33
6.83251E-01 4.85075E-33
6.87303E-01 4.72572E-33
6.91342E-01 4.59482E-33
6.95366E-01 4.45892E-33
6.99375E-01 4.31887E-33
7.03368E-01 4.17549E-33
7.07347E-01 4.02957E-33
7.11309E-01 3.88188E-33
7.15256E-01 3.73311E-33
7.19186E-01 3.58395E-33
7.23099E-01 3.43501E-33
7.26995E-01 3.28687E-33
7.30874E-01 3.14006E-33
7.34736E-01 2.99507E-33
7.38579E-01 2.85232E-33
7.42405E-01 2.71221E-33
7.46212E-01 2.57507E-33
7.50000E-01 2.44123E-33
7.53769E-01 2.31092E-33
7.57519E-01 2.18437E-33
7.61249E-01 2.06177E-33
7.64960E-01 1.94326E-33
7.68650E-01 1.82896E-33
7.72320E-01 1.71896E-33
7.75968E-01 1.61330E-33
7.79596E-01 1.51201E-33
7.83203E-01 1.41512E-33
7.86788E-01 1.32260E-33
7.90351E-01 1.23441E-33
7.93893E-01 1.15051E-33
7.97411E-01 1.07083E-33
8.00908E-01 9.95282E-34
8.04381E-01 9.23779E-34
8.07831E-01 8.56221E-34
8.11257E-01 7.92491E-34
8.14660E-01 7.32473E-34
8.18039E-01 6.76043E-34
8.21394E-01 6.23074E-34
8.24724E-01 5.73432E-34
8.28030E-01 5.26982E-34
8.31310E-01 4.83591E-34
8.34565E-01 4.43120E-34
8.37795E-01 4.05435E-34
8.40999E-01 3.70400E-34
8.44177E-01 3.37881E-34
8.47329E-01 3.07745E-34
8.50455E-01 2.79868E-34
8.53553E-01 2.54120E-34
8.56625E-01 2.30380E-34
8.59670E-01 2.08528E-34
8.62687E-01 1.88450E-34
8.65677E-01 1.70034E-34
8.68639E-01 1.53174E-34
8.71572E-01 1.37767E-34
8.74478E-01 1.23713E-34
8.77355E-01 1.10921E-34
8.80203E-01 9.92984E-35
8.83022E-01 8.87622E-35
8.85812E-01 7.92310E-35
8.88573E-01 7.06271E-35
8.91304E-01 6.28796E-35
8.94005E-01 5.59187E-35
8.96677E-01 4.96810E-35
8.99318E-01 4.41061E-35
9.01928E-01 3.91369E-35
9.04508E-01 3.47201E-35
9.07058E-01 3.08063E-35
9.09576E-01 2.73495E-35
9.12063E-01 2.43062E-35
9.14519E-01 2.16367E-35
9.16943E-01 1.93037E-35
9.19335E-01 1.72732E-35
9.21696E-01 1.55133E-35
9.24024E-01 1.39948E-35
9.26320E-01 1.26908E-35
9.28584E-01 1.15770E-35
9.30815E-01 1.06305E-35
9.33013E-01 9.83109E-36
9.35178E-01 9.15978E-36
9.37310E-01 8.59976E-36
9.39409E-01 8.13556E-36
9.41474E-01 7.75325E-36
9.43505E-01 7.44029E-36
9.45503E-01 7.18552E-36
9.47467E-01 6.97901E-36
9.49397E-01 6.81177E-36
9.51293E-01 6.67576E-36
9.53154E-01 6.56426E-36
9.54981E-01 6.47098E-36
9.56773E-01 6.39067E-36
9.58530E-01 6.31875E-36
9.60252E-01 6.25150E-36
9.61940E-01 6.18508E-36
9.63592E-01 6.11728E-36
9.65209E-01 6.04539E-36
9.66790E-01 5.96781E-36
9.68336E-01 5.88284E-36
9.69846E-01 5.78947E-36
9.71321E-01 5.68744E-36
9.72759E-01 5.57516E-36
9.74162E-01 5.45332E-36
9.75528E-01 5.32164E-36
9.76858E-01 5.18010E-36
9.78152E-01 5.02907E-36
9.79410E-01 4.86925E-36
9.80631E-01 4.70057E-36
9.81815E-01 4.52455E-36
9.82963E-01 4.34139E-36
9.84074E-01 4.15241E-36
9.85148E-01 3.95815E-36
9.86185E-01 3.75943E-36
9.87185E-01 3.55754E-36
9.88148E-01 3.35324E-36
9.89074E-01 3.14759E-36
9.89962E-01 2.94156E-36
9.90814E-01 2.73613E-36
9.91627E-01 2.53230E-36
9.92404E-01 2.33113E-36
9.93143E-01 2.13334E-36
9.93844E-01 1.94008E-36
9.94508E-01 1.75184E-36
9.95134E-01 1.56977E-36
9.95722E-01 1.39469E-36
9.96273E-01 1.22715E-36
9.96786E-01 1.06802E-36
9.97261E-01 9.17881E-37
9.97698E-01 7.77550E-37
9.98097E-01 6.47502E-37
9.98459E-01 5.28042E-37
9.98782E-01 4.19888E-37
9.99067E-01 3.23546E-37
9.99315E-01 2.39156E-37
9.99524E-01 1.67106E-37
9.99695E-01 1.07918E-37
9.99829E-01 6.15853E-38
9.99924E-01 2.83628E-38
9.99981E-01 8.40290E-39
1.00000E+00 1.72397E-39
