 #
 # Subroutine ELSEPA. Elastic scattering of electrons and positrons
 #                    by neutral atoms and positive ions
 #
 # Projectile: positron
 # Kinetic energy = 5.00000E+08 eV = 1.83747E+07 a.u.
 #
 # WARNING: High-energy factorization with free-atom DF screening.
 #          Absorption, polarization and exchange corrections are
 #          switched off.
 #          Phase shifts are calculated for the bare nucleus.
 #          Scattering amplitudes are not evaluated.
 #
 # Element: Tl,  Z =  81,  atomic weight = 2.04383E+02 g/mol
 #
 # Nuclear model: Fermi distribution
 #                Average radius = 6.30278E-13 cm
 #                Skin thickness = 5.46000E-14 cm
 #
 # Number of electrons = 81
 #
 # Total elastic cross section = 8.27480E-18 cm**2 = 2.95498E-01 a0**2
 # 1st transport cross section = 4.87884E-26 cm**2 = 1.74227E-09 a0**2
 # 2nd transport cross section = 1.46307E-25 cm**2 = 5.22470E-09 a0**2
 #
 #
 # Differential cross section:                       MU=(1-COS(THETA))/2
 #
 #  THETA        MU          DCS          DCS        Sherman      error
 #  (deg)                 (cm**2/sr)   (a0**2/sr)    function
 #----------------------------------------------------------------------
0.00000E+00 1.41438E-08
7.61557E-13 1.32648E-08
1.18994E-12 1.28173E-08
1.71346E-12 1.23108E-08
2.33225E-12 1.17624E-08
3.04617E-12 1.11887E-08
3.85530E-12 1.06041E-08
4.75964E-12 1.00205E-08
5.75917E-12 9.44755E-09
6.85391E-12 8.89170E-09
8.04379E-12 8.35806E-09
9.32893E-12 7.85010E-09
1.07092E-11 7.36966E-09
1.21847E-11 6.91737E-09
1.37554E-11 6.49311E-09
1.54213E-11 6.09618E-09
1.71823E-11 5.72551E-09
1.90386E-11 5.37975E-09
2.09900E-11 5.05750E-09
2.30367E-11 4.75725E-09
2.51785E-11 4.47733E-09
2.74156E-11 4.21593E-09
2.97478E-11 3.97232E-09
3.21752E-11 3.74521E-09
3.46979E-11 3.53335E-09
3.73157E-11 3.33561E-09
4.00286E-11 3.15093E-09
4.28368E-11 2.97833E-09
4.57402E-11 2.81691E-09
4.87388E-11 2.66584E-09
5.18325E-11 2.52435E-09
5.50215E-11 2.39174E-09
5.83057E-11 2.26707E-09
6.16850E-11 2.15004E-09
6.51595E-11 2.04016E-09
6.87293E-11 1.93693E-09
7.23943E-11 1.83988E-09
7.61544E-11 1.74858E-09
1.18991E-10 1.06409E-09
1.71347E-10 6.87745E-10
2.33223E-10 4.61915E-10
3.04617E-10 3.21392E-10
3.85531E-10 2.30881E-10
4.75965E-10 1.70569E-10
5.75917E-10 1.29041E-10
6.85389E-10 9.94807E-11
8.04380E-10 7.79235E-11
9.32891E-10 6.18801E-11
1.07092E-09 4.97136E-11
1.21847E-09 4.03450E-11
1.37554E-09 3.30397E-11
1.54213E-09 2.72832E-11
1.71823E-09 2.27059E-11
1.90386E-09 1.90367E-11
2.09900E-09 1.60748E-11
2.30367E-09 1.36706E-11
2.51785E-09 1.16867E-11
2.74156E-09 1.00529E-11
2.97478E-09 8.70021E-12
3.21752E-09 7.57241E-12
3.46978E-09 6.62527E-12
3.73156E-09 5.82421E-12
4.00286E-09 5.14222E-12
4.28368E-09 4.55814E-12
4.57402E-09 4.05527E-12
4.87388E-09 3.62034E-12
5.18326E-09 3.24263E-12
5.50215E-09 2.91336E-12
5.83057E-09 2.62509E-12
6.16850E-09 2.37195E-12
6.51596E-09 2.14885E-12
6.87293E-09 1.95153E-12
7.23942E-09 1.77642E-12
7.61544E-09 1.62054E-12
1.18991E-08 7.14560E-13
1.71347E-08 3.62742E-13
2.33223E-08 2.03209E-13
3.04617E-08 1.22394E-13
3.85531E-08 7.80248E-14
4.75965E-08 5.20612E-14
5.75917E-08 3.60595E-14
6.85389E-08 2.57642E-14
8.04380E-08 1.88988E-14
9.32891E-08 1.41770E-14
1.07092E-07 1.08416E-14
1.21847E-07 8.43140E-15
1.37554E-07 6.65483E-15
1.54213E-07 5.32195E-15
1.71823E-07 4.30613E-15
1.90386E-07 3.52123E-15
2.09900E-07 2.90707E-15
2.30367E-07 2.42098E-15
2.51785E-07 2.03225E-15
2.74156E-07 1.71844E-15
2.97478E-07 1.46289E-15
3.21752E-07 1.25309E-15
3.46978E-07 1.07957E-15
3.73156E-07 9.35068E-16
4.00286E-07 8.13948E-16
4.28368E-07 7.11816E-16
4.57402E-07 6.25215E-16
4.87388E-07 5.51394E-16
5.18325E-07 4.88153E-16
5.50215E-07 4.33727E-16
5.83057E-07 3.86682E-16
6.16850E-07 3.45846E-16
6.51596E-07 3.10263E-16
6.87293E-07 2.79142E-16
7.23942E-07 2.51828E-16
7.61543E-07 2.27775E-16
1.18991E-06 9.39489E-17
1.71347E-06 4.55165E-17
2.33223E-06 2.46460E-17
3.04617E-06 1.44787E-17
3.85531E-06 9.05310E-18
4.75964E-06 5.94643E-18
5.75916E-06 4.06482E-18
6.85388E-06 2.87176E-18
8.04378E-06 2.08588E-18
9.32888E-06 1.55128E-18
1.07092E-05 1.17743E-18
1.21846E-05 9.09672E-19
1.37553E-05 7.13857E-19
1.54212E-05 5.67988E-19
1.71822E-05 4.57532E-19
1.90385E-05 3.72423E-19
2.09899E-05 3.06607E-19
2.30365E-05 2.54655E-19
2.51783E-05 2.13183E-19
2.74153E-05 1.79764E-19
2.97475E-05 1.52617E-19
3.21749E-05 1.30402E-19
3.46974E-05 1.12096E-19
3.73152E-05 9.69053E-20
4.00281E-05 8.42124E-20
4.28362E-05 7.35351E-20
4.57395E-05 6.44964E-20
4.87380E-05 5.68007E-20
5.18317E-05 5.02149E-20
5.50205E-05 4.45533E-20
5.83045E-05 3.96662E-20
6.16838E-05 3.54311E-20
6.51582E-05 3.17472E-20
6.87277E-05 2.85307E-20
7.23925E-05 2.57120E-20
7.61524E-05 2.35190E-20
9.21439E-05 1.60811E-20
1.09658E-04 1.13647E-20
1.28695E-04 8.25617E-21
1.49255E-04 6.14009E-21
1.71338E-04 4.65961E-21
1.94942E-04 3.59854E-21
2.20070E-04 2.82203E-21
2.46720E-04 2.24320E-21
2.74892E-04 1.80464E-21
3.04586E-04 1.46747E-21
3.35803E-04 1.20485E-21
3.68542E-04 9.97854E-22
4.02802E-04 8.32957E-22
4.38585E-04 7.00310E-22
4.75889E-04 5.92648E-22
5.14715E-04 5.04555E-22
5.55063E-04 4.31926E-22
5.96931E-04 3.71634E-22
6.40321E-04 3.21260E-22
6.85233E-04 2.78921E-22
7.31665E-04 2.43139E-22
7.79618E-04 2.12743E-22
8.29092E-04 1.86797E-22
8.80086E-04 1.64550E-22
9.32601E-04 1.45395E-22
9.86636E-04 1.28836E-22
1.04219E-03 1.14468E-22
1.09927E-03 1.01958E-22
1.15786E-03 9.10299E-23
1.21797E-03 8.14533E-23
1.27961E-03 7.30367E-23
1.34276E-03 6.56189E-23
1.40743E-03 5.90644E-23
1.47362E-03 5.32581E-23
1.54133E-03 4.81025E-23
1.61056E-03 4.35143E-23
1.68131E-03 3.94224E-23
1.75357E-03 3.57658E-23
1.82735E-03 3.24918E-23
1.90265E-03 2.95550E-23
1.97947E-03 2.69160E-23
2.05780E-03 2.45408E-23
2.13765E-03 2.23994E-23
2.21902E-03 2.04661E-23
2.30190E-03 1.87180E-23
2.38630E-03 1.71351E-23
2.47222E-03 1.57001E-23
2.55965E-03 1.43974E-23
2.64859E-03 1.32134E-23
2.73905E-03 1.21360E-23
2.83103E-03 1.11546E-23
2.92452E-03 1.02597E-23
3.01952E-03 9.44275E-24
3.11604E-03 8.69632E-24
3.21407E-03 8.01366E-24
3.31362E-03 7.38878E-24
3.41468E-03 6.81631E-24
3.51725E-03 6.29141E-24
3.62133E-03 5.80976E-24
3.72692E-03 5.36747E-24
3.83403E-03 4.96103E-24
3.94265E-03 4.58728E-24
4.05278E-03 4.24336E-24
4.16442E-03 3.92671E-24
4.27757E-03 3.63498E-24
4.39223E-03 3.36605E-24
4.50840E-03 3.11802E-24
4.62608E-03 2.88913E-24
4.74527E-03 2.67781E-24
4.86597E-03 2.48261E-24
4.98817E-03 2.30222E-24
5.11188E-03 2.13545E-24
5.23711E-03 1.98120E-24
5.36383E-03 1.83848E-24
5.49207E-03 1.70638E-24
5.62181E-03 1.58406E-24
5.75306E-03 1.47076E-24
5.88581E-03 1.36579E-24
6.02007E-03 1.26849E-24
6.15583E-03 1.17829E-24
6.29310E-03 1.09465E-24
6.43187E-03 1.01706E-24
6.57214E-03 9.45079E-25
6.71392E-03 8.78278E-25
6.85720E-03 8.16273E-25
7.00198E-03 7.58709E-25
7.14827E-03 7.05258E-25
7.29605E-03 6.55618E-25
7.44534E-03 6.09509E-25
7.59612E-03 5.66674E-25
7.97965E-03 4.72396E-25
8.37255E-03 3.93892E-25
8.77480E-03 3.28489E-25
9.18641E-03 2.73978E-25
9.60736E-03 2.28535E-25
1.00376E-02 1.90646E-25
1.04773E-02 1.59057E-25
1.09262E-02 1.32722E-25
1.13844E-02 1.10772E-25
1.18520E-02 9.24822E-26
1.23288E-02 7.72478E-26
1.28150E-02 6.45633E-26
1.33104E-02 5.40063E-26
1.38150E-02 4.52236E-26
1.43290E-02 3.79201E-26
1.48521E-02 3.18487E-26
1.53845E-02 2.68029E-26
1.59262E-02 2.26099E-26
1.64770E-02 1.91256E-26
1.70371E-02 1.62294E-26
1.76063E-02 1.38207E-26
1.81848E-02 1.18158E-26
1.87724E-02 1.01449E-26
1.93692E-02 8.74997E-27
1.99751E-02 7.58279E-27
2.05901E-02 6.60344E-27
2.12143E-02 5.77889E-27
2.18476E-02 5.08183E-27
2.24900E-02 4.48978E-27
2.31415E-02 3.98425E-27
2.38021E-02 3.55006E-27
2.44717E-02 3.17479E-27
2.51504E-02 2.84830E-27
2.58382E-02 2.56233E-27
2.65349E-02 2.31016E-27
2.72407E-02 2.08635E-27
2.79555E-02 1.88649E-27
2.86793E-02 1.70702E-27
2.94120E-02 1.54503E-27
3.01537E-02 1.39821E-27
3.09043E-02 1.26467E-27
3.16639E-02 1.14286E-27
3.24324E-02 1.03154E-27
3.32098E-02 9.29662E-28
3.39961E-02 8.36370E-28
3.47912E-02 7.50938E-28
3.55952E-02 6.72745E-28
3.64081E-02 6.01250E-28
3.72297E-02 5.35977E-28
3.80602E-02 4.76494E-28
3.88995E-02 4.22407E-28
3.97476E-02 3.73350E-28
4.06044E-02 3.28980E-28
4.14700E-02 2.88972E-28
4.23443E-02 2.53016E-28
4.32273E-02 2.20813E-28
4.41190E-02 1.92080E-28
4.50194E-02 1.66543E-28
4.59284E-02 1.43939E-28
4.68461E-02 1.24018E-28
4.87074E-02 9.12791E-29
5.06030E-02 6.65561E-29
5.25328E-02 4.82763E-29
5.44967E-02 3.50687E-29
5.64946E-02 2.57626E-29
5.85262E-02 1.93798E-29
6.05914E-02 1.51220E-29
6.26901E-02 1.23543E-29
6.48222E-02 1.05853E-29
6.69873E-02 9.44717E-30
6.91854E-02 8.67490E-30
7.14163E-02 8.08660E-30
7.36799E-02 7.56560E-30
7.59760E-02 7.04452E-30
7.83043E-02 6.49156E-30
8.06647E-02 5.89925E-30
8.30571E-02 5.27534E-30
8.54812E-02 4.63592E-30
8.79369E-02 4.00026E-30
9.04240E-02 3.38729E-30
9.29422E-02 2.81338E-30
9.54915E-02 2.29109E-30
9.80716E-02 1.82873E-30
1.00682E-01 1.43047E-30
1.03323E-01 1.09677E-30
1.05995E-01 8.25067E-31
1.08696E-01 6.10475E-31
1.11427E-01 4.46578E-31
1.14188E-01 3.26089E-31
1.16978E-01 2.41448E-31
1.19797E-01 1.85286E-31
1.22645E-01 1.50783E-31
1.25522E-01 1.31899E-31
1.28428E-01 1.23507E-31
1.31361E-01 1.21440E-31
1.34323E-01 1.22475E-31
1.37313E-01 1.24255E-31
1.40330E-01 1.25189E-31
1.43375E-01 1.24330E-31
1.46447E-01 1.21247E-31
1.49545E-01 1.15897E-31
1.52671E-01 1.08511E-31
1.55823E-01 9.94945E-32
1.59001E-01 8.93407E-32
1.62205E-01 7.85658E-32
1.65435E-01 6.76589E-32
1.68690E-01 5.70487E-32
1.71970E-01 4.70829E-32
1.75276E-01 3.80200E-32
1.78606E-01 3.00291E-32
1.81961E-01 2.31965E-32
1.85340E-01 1.75366E-32
1.88743E-01 1.30052E-32
1.92169E-01 9.51355E-33
1.95619E-01 6.94275E-33
1.99092E-01 5.15609E-33
2.02589E-01 4.01042E-33
2.06107E-01 3.36512E-33
2.09649E-01 3.08906E-33
2.13212E-01 3.06545E-33
2.16797E-01 3.19481E-33
2.20404E-01 3.39625E-33
2.24032E-01 3.60747E-33
2.27680E-01 3.78370E-33
2.31350E-01 3.89588E-33
2.35040E-01 3.92836E-33
2.38751E-01 3.87647E-33
2.42481E-01 3.74393E-33
2.46231E-01 3.54049E-33
2.50000E-01 3.27972E-33
2.53788E-01 2.97719E-33
2.57595E-01 2.64885E-33
2.61421E-01 2.30992E-33
2.65264E-01 1.97399E-33
2.69126E-01 1.65250E-33
2.73005E-01 1.35439E-33
2.76901E-01 1.08611E-33
2.80814E-01 8.51659E-34
2.84744E-01 6.52853E-34
2.88691E-01 4.89606E-34
2.92653E-01 3.60299E-34
2.96632E-01 2.62152E-34
3.00625E-01 1.91574E-34
3.04634E-01 1.44505E-34
3.08658E-01 1.16697E-34
3.12697E-01 1.03961E-34
3.16749E-01 1.02353E-34
3.20816E-01 1.08312E-34
3.24896E-01 1.18754E-34
3.28990E-01 1.31117E-34
3.33097E-01 1.43374E-34
3.37216E-01 1.54016E-34
3.41348E-01 1.62012E-34
3.45492E-01 1.66756E-34
3.49647E-01 1.68000E-34
3.53814E-01 1.65790E-34
3.57992E-01 1.60391E-34
3.62181E-01 1.52231E-34
3.66381E-01 1.41835E-34
3.70590E-01 1.29776E-34
3.74810E-01 1.16635E-34
3.79039E-01 1.02964E-34
3.83277E-01 8.92649E-35
3.87524E-01 7.59677E-35
3.91780E-01 6.34246E-35
3.96044E-01 5.19043E-35
4.00316E-01 4.15949E-35
4.04596E-01 3.26066E-35
4.08882E-01 2.49830E-35
4.13176E-01 1.87077E-35
4.17476E-01 1.37174E-35
4.21783E-01 9.91156E-36
4.26095E-01 7.16392E-36
4.30413E-01 5.33182E-36
4.34737E-01 4.26501E-36
4.39065E-01 3.81361E-36
4.43398E-01 3.83352E-36
4.47736E-01 4.19155E-36
4.52077E-01 4.76868E-36
4.56422E-01 5.46201E-36
4.60770E-01 6.18603E-36
4.65122E-01 6.87260E-36
4.69476E-01 7.47033E-36
4.73832E-01 7.94342E-36
4.78190E-01 8.27005E-36
4.82550E-01 8.44042E-36
4.86912E-01 8.45483E-36
4.91274E-01 8.32164E-36
4.95637E-01 8.05523E-36
5.00000E-01 7.67421E-36
5.04363E-01 7.19968E-36
5.08726E-01 6.65407E-36
5.13088E-01 6.05955E-36
5.17450E-01 5.43740E-36
5.21810E-01 4.80703E-36
5.26168E-01 4.18561E-36
5.30524E-01 3.58769E-36
5.34878E-01 3.02505E-36
5.39230E-01 2.50676E-36
5.43578E-01 2.03908E-36
5.47923E-01 1.62592E-36
5.52264E-01 1.26882E-36
5.56602E-01 9.67510E-37
5.60935E-01 7.20020E-37
5.65263E-01 5.23156E-37
5.69587E-01 3.72640E-37
5.73905E-01 2.63633E-37
5.78217E-01 1.90834E-37
5.82524E-01 1.48755E-37
5.86824E-01 1.31964E-37
5.91118E-01 1.35233E-37
5.95404E-01 1.53661E-37
5.99684E-01 1.82778E-37
6.03956E-01 2.18615E-37
6.08220E-01 2.57742E-37
6.12476E-01 2.97276E-37
6.16723E-01 3.34879E-37
6.20961E-01 3.68741E-37
6.25190E-01 3.97528E-37
6.29410E-01 4.20349E-37
6.33619E-01 4.36725E-37
6.37819E-01 4.46469E-37
6.42008E-01 4.49703E-37
6.46186E-01 4.46767E-37
6.50353E-01 4.38168E-37
6.54508E-01 4.24540E-37
6.58652E-01 4.06595E-37
6.62784E-01 3.85112E-37
6.66903E-01 3.60841E-37
6.71010E-01 3.34566E-37
6.75104E-01 3.06982E-37
6.79184E-01 2.78764E-37
6.83251E-01 2.50496E-37
6.87303E-01 2.22744E-37
6.91342E-01 1.95889E-37
6.95366E-01 1.70364E-37
6.99375E-01 1.46417E-37
7.03368E-01 1.24277E-37
7.07347E-01 1.04088E-37
7.11309E-01 8.59335E-38
7.15256E-01 6.98481E-38
7.19186E-01 5.57982E-38
7.23099E-01 4.37358E-38
7.26995E-01 3.35665E-38
7.30874E-01 2.51640E-38
7.34736E-01 1.83951E-38
7.38579E-01 1.31133E-38
7.42405E-01 9.16045E-39
7.46212E-01 6.37366E-39
7.50000E-01 1.00000E-45
7.53769E-01 1.00000E-45
7.57519E-01 1.00000E-45
7.61249E-01 1.00000E-45
7.64960E-01 1.00000E-45
7.68650E-01 1.00000E-45
7.72320E-01 1.00000E-45
7.75968E-01 1.00000E-45
7.79596E-01 1.00000E-45
7.83203E-01 1.00000E-45
7.86788E-01 1.00000E-45
7.90351E-01 1.00000E-45
7.93893E-01 1.00000E-45
7.97411E-01 1.00000E-45
8.00908E-01 1.00000E-45
8.04381E-01 1.00000E-45
8.07831E-01 1.00000E-45
8.11257E-01 1.00000E-45
8.14660E-01 1.00000E-45
8.18039E-01 1.00000E-45
8.21394E-01 1.00000E-45
8.24724E-01 1.00000E-45
8.28030E-01 1.00000E-45
8.31310E-01 1.00000E-45
8.34565E-01 1.00000E-45
8.37795E-01 1.00000E-45
8.40999E-01 1.00000E-45
8.44177E-01 1.00000E-45
8.47329E-01 1.00000E-45
8.50455E-01 1.00000E-45
8.53553E-01 1.00000E-45
8.56625E-01 1.00000E-45
8.59670E-01 1.00000E-45
8.62687E-01 1.00000E-45
8.65677E-01 1.00000E-45
8.68639E-01 1.00000E-45
8.71572E-01 1.00000E-45
8.74478E-01 1.00000E-45
8.77355E-01 1.00000E-45
8.80203E-01 1.00000E-45
8.83022E-01 1.00000E-45
8.85812E-01 1.00000E-45
8.88573E-01 1.00000E-45
8.91304E-01 1.00000E-45
8.94005E-01 1.00000E-45
8.96677E-01 1.00000E-45
8.99318E-01 1.00000E-45
9.01928E-01 1.00000E-45
9.04508E-01 1.00000E-45
9.07058E-01 1.00000E-45
9.09576E-01 1.00000E-45
9.12063E-01 1.00000E-45
9.14519E-01 1.00000E-45
9.16943E-01 1.00000E-45
9.19335E-01 1.00000E-45
9.21696E-01 1.00000E-45
9.24024E-01 1.00000E-45
9.26320E-01 1.00000E-45
9.28584E-01 1.00000E-45
9.30815E-01 1.00000E-45
9.33013E-01 1.00000E-45
9.35178E-01 1.00000E-45
9.37310E-01 1.00000E-45
9.39409E-01 1.00000E-45
9.41474E-01 1.00000E-45
9.43505E-01 1.00000E-45
9.45503E-01 1.00000E-45
9.47467E-01 1.00000E-45
9.49397E-01 1.00000E-45
9.51293E-01 1.00000E-45
9.53154E-01 1.00000E-45
9.54981E-01 1.00000E-45
9.56773E-01 1.00000E-45
9.58530E-01 1.00000E-45
9.60252E-01 1.00000E-45
9.61940E-01 1.00000E-45
9.63592E-01 1.00000E-45
9.65209E-01 1.00000E-45
9.66790E-01 1.00000E-45
9.68336E-01 1.00000E-45
9.69846E-01 1.00000E-45
9.71321E-01 1.00000E-45
9.72759E-01 1.00000E-45
9.74162E-01 1.00000E-45
9.75528E-01 1.00000E-45
9.76858E-01 1.00000E-45
9.78152E-01 1.00000E-45
9.79410E-01 1.00000E-45
9.80631E-01 1.00000E-45
9.81815E-01 1.00000E-45
9.82963E-01 1.00000E-45
9.84074E-01 1.00000E-45
9.85148E-01 1.00000E-45
9.86185E-01 1.00000E-45
9.87185E-01 1.00000E-45
9.88148E-01 1.00000E-45
9.89074E-01 1.00000E-45
9.89962E-01 1.00000E-45
9.90814E-01 1.00000E-45
9.91627E-01 1.00000E-45
9.92404E-01 1.00000E-45
9.93143E-01 1.00000E-45
9.93844E-01 1.00000E-45
9.94508E-01 1.00000E-45
9.95134E-01 1.00000E-45
9.95722E-01 1.00000E-45
9.96273E-01 1.00000E-45
9.96786E-01 1.00000E-45
9.97261E-01 1.00000E-45
9.97698E-01 1.00000E-45
9.98097E-01 1.00000E-45
9.98459E-01 1.00000E-45
9.98782E-01 1.00000E-45
9.99067E-01 1.00000E-45
9.99315E-01 1.00000E-45
9.99524E-01 1.00000E-45
9.99695E-01 1.00000E-45
9.99829E-01 1.00000E-45
9.99924E-01 1.00000E-45
9.99981E-01 1.00000E-45
1.00000E+00 1.00000E-45
