 #
 # Subroutine ELSEPA. Elastic scattering of electrons and positrons
 #                    by neutral atoms and positive ions
 #
 # Projectile: positron
 # Kinetic energy = 1.25000E+07 eV = 4.59367E+05 a.u.
 #
 # WARNING: High-energy factorization with free-atom DF screening.
 #          Absorption, polarization and exchange corrections are
 #          switched off.
 #          Phase shifts are calculated for the bare nucleus.
 #          Scattering amplitudes are not evaluated.
 #
 # Element: Tl,  Z =  81,  atomic weight = 2.04383E+02 g/mol
 #
 # Nuclear model: Fermi distribution
 #                Average radius = 6.30278E-13 cm
 #                Skin thickness = 5.46000E-14 cm
 #
 # Number of electrons = 81
 #
 # Total elastic cross section = 8.29240E-18 cm**2 = 2.96127E-01 a0**2
 # 1st transport cross section = 5.44425E-23 cm**2 = 1.94418E-06 a0**2
 # 2nd transport cross section = 1.57711E-22 cm**2 = 5.63197E-06 a0**2
 #
 #
 # Differential cross section:                       MU=(1-COS(THETA))/2
 #
 #  THETA        MU          DCS          DCS        Sherman      error
 #  (deg)                 (cm**2/sr)   (a0**2/sr)    function
 #----------------------------------------------------------------------
0.00000E+00 9.55786E-12
7.61557E-13 9.55741E-12
1.18994E-12 9.55717E-12
1.71346E-12 9.55687E-12
2.33225E-12 9.55651E-12
3.04617E-12 9.55611E-12
3.85530E-12 9.55565E-12
4.75964E-12 9.55513E-12
5.75917E-12 9.55457E-12
6.85391E-12 9.55395E-12
8.04379E-12 9.55328E-12
9.32893E-12 9.55255E-12
1.07092E-11 9.55177E-12
1.21847E-11 9.55094E-12
1.37554E-11 9.55005E-12
1.54213E-11 9.54911E-12
1.71823E-11 9.54812E-12
1.90386E-11 9.54708E-12
2.09900E-11 9.54598E-12
2.30367E-11 9.54483E-12
2.51785E-11 9.54362E-12
2.74156E-11 9.54237E-12
2.97478E-11 9.54106E-12
3.21752E-11 9.53969E-12
3.46979E-11 9.53828E-12
3.73157E-11 9.53681E-12
4.00286E-11 9.53529E-12
4.28368E-11 9.53371E-12
4.57402E-11 9.53209E-12
4.87388E-11 9.53041E-12
5.18325E-11 9.52868E-12
5.50215E-11 9.52689E-12
5.83057E-11 9.52506E-12
6.16850E-11 9.52317E-12
6.51595E-11 9.52123E-12
6.87293E-11 9.51924E-12
7.23943E-11 9.51719E-12
7.61544E-11 9.51510E-12
1.18991E-10 9.49128E-12
1.71347E-10 9.46235E-12
2.33223E-10 9.42840E-12
3.04617E-10 9.38954E-12
3.85531E-10 9.34589E-12
4.75965E-10 9.29760E-12
5.75917E-10 9.24482E-12
6.85389E-10 9.18771E-12
8.04380E-10 9.12645E-12
9.32891E-10 9.06121E-12
1.07092E-09 8.99220E-12
1.21847E-09 8.91959E-12
1.37554E-09 8.84359E-12
1.54213E-09 8.76426E-12
1.71823E-09 8.68206E-12
1.90386E-09 8.59723E-12
2.09900E-09 8.50999E-12
2.30367E-09 8.42001E-12
2.51785E-09 8.32800E-12
2.74156E-09 8.23422E-12
2.97478E-09 8.13891E-12
3.21752E-09 8.04171E-12
3.46978E-09 7.94312E-12
3.73156E-09 7.84360E-12
4.00286E-09 7.74334E-12
4.28368E-09 7.64206E-12
4.57402E-09 7.53985E-12
4.87388E-09 7.43744E-12
5.18326E-09 7.33499E-12
5.50215E-09 7.23236E-12
5.83057E-09 7.12907E-12
6.16850E-09 7.02618E-12
6.51596E-09 6.92381E-12
6.87293E-09 6.82208E-12
7.23942E-09 6.71973E-12
7.61544E-09 6.61827E-12
1.18991E-08 5.65186E-12
1.71347E-08 4.79868E-12
2.33223E-08 4.07198E-12
3.04617E-08 3.46406E-12
3.85531E-08 2.95641E-12
4.75965E-08 2.53404E-12
5.75917E-08 2.18153E-12
6.85389E-08 1.88518E-12
8.04380E-08 1.63596E-12
9.32891E-08 1.42490E-12
1.07092E-07 1.24533E-12
1.21847E-07 1.09228E-12
1.37554E-07 9.59503E-13
1.54213E-07 8.38751E-13
1.71823E-07 7.40427E-13
1.90386E-07 6.59572E-13
2.09900E-07 5.92465E-13
2.30367E-07 5.26124E-13
2.51785E-07 4.69625E-13
2.74156E-07 4.22078E-13
2.97478E-07 3.81773E-13
3.21752E-07 3.44058E-13
3.46978E-07 3.10388E-13
3.73156E-07 2.81496E-13
4.00286E-07 2.56563E-13
4.28368E-07 2.33914E-13
4.57402E-07 2.13097E-13
4.87388E-07 1.94943E-13
5.18325E-07 1.79037E-13
5.50215E-07 1.64781E-13
5.83057E-07 1.51409E-13
6.16850E-07 1.39589E-13
6.51596E-07 1.29101E-13
6.87293E-07 1.19755E-13
7.23942E-07 1.10832E-13
7.61543E-07 1.02856E-13
1.18991E-06 5.27611E-14
1.71347E-06 2.96752E-14
2.33223E-06 1.77955E-14
3.04617E-06 1.12523E-14
3.85531E-06 7.44204E-15
4.75964E-06 5.12514E-15
5.75916E-06 3.65620E-15
6.85388E-06 2.68143E-15
8.04378E-06 2.01291E-15
9.32888E-06 1.54172E-15
1.07092E-05 1.20134E-15
1.21846E-05 9.50062E-16
1.37553E-05 7.60898E-16
1.54212E-05 6.16374E-16
1.71822E-05 5.05033E-16
1.90385E-05 4.17470E-16
2.09899E-05 3.48410E-16
2.30365E-05 2.93215E-16
2.51783E-05 2.48237E-16
2.74153E-05 2.11611E-16
2.97475E-05 1.81436E-16
3.21749E-05 1.56427E-16
3.46974E-05 1.35644E-16
3.73152E-05 1.18144E-16
4.00281E-05 1.03425E-16
4.28362E-05 9.09150E-17
4.57395E-05 8.02366E-17
4.87380E-05 7.10861E-17
5.18317E-05 6.31794E-17
5.50205E-05 5.63499E-17
5.83045E-05 5.04097E-17
6.16838E-05 4.52341E-17
6.51582E-05 4.07099E-17
6.87277E-05 3.67340E-17
7.23925E-05 3.32374E-17
7.61524E-05 3.01443E-17
9.21439E-05 2.08566E-17
1.09658E-04 1.48858E-17
1.28695E-04 1.09085E-17
1.49255E-04 8.17429E-18
1.71338E-04 6.24482E-18
1.94942E-04 4.85179E-18
2.20070E-04 3.82559E-18
2.46720E-04 3.05637E-18
2.74892E-04 2.47073E-18
3.04586E-04 2.01849E-18
3.35803E-04 1.66494E-18
3.68542E-04 1.38535E-18
4.02802E-04 1.16192E-18
4.38585E-04 9.81697E-19
4.75889E-04 8.35023E-19
5.14715E-04 7.14702E-19
5.55063E-04 6.15255E-19
5.96931E-04 5.32488E-19
6.40321E-04 4.63160E-19
6.85233E-04 4.04739E-19
7.31665E-04 3.55230E-19
7.79618E-04 3.13053E-19
8.29092E-04 2.76943E-19
8.80086E-04 2.45884E-19
9.32601E-04 2.19052E-19
9.86636E-04 1.95776E-19
1.04219E-03 1.75505E-19
1.09927E-03 1.57786E-19
1.15786E-03 1.42243E-19
1.21797E-03 1.28564E-19
1.27961E-03 1.16486E-19
1.34276E-03 1.05791E-19
1.40743E-03 9.62924E-20
1.47362E-03 8.78339E-20
1.54133E-03 8.02817E-20
1.61056E-03 7.35219E-20
1.68131E-03 6.74569E-20
1.75357E-03 6.20028E-20
1.82735E-03 5.70873E-20
1.90265E-03 5.26479E-20
1.97947E-03 4.86305E-20
2.05780E-03 4.49878E-20
2.13765E-03 4.16788E-20
2.21902E-03 3.86674E-20
2.30190E-03 3.59223E-20
2.38630E-03 3.34156E-20
2.47222E-03 3.11230E-20
2.55965E-03 2.90230E-20
2.64859E-03 2.70964E-20
2.73905E-03 2.53265E-20
2.83103E-03 2.36982E-20
2.92452E-03 2.21981E-20
3.01952E-03 2.08143E-20
3.11604E-03 1.95363E-20
3.21407E-03 1.83545E-20
3.31362E-03 1.72603E-20
3.41468E-03 1.62461E-20
3.51725E-03 1.53049E-20
3.62133E-03 1.44307E-20
3.72692E-03 1.36176E-20
3.83403E-03 1.28608E-20
3.94265E-03 1.21556E-20
4.05278E-03 1.14978E-20
4.16442E-03 1.08837E-20
4.27757E-03 1.03099E-20
4.39223E-03 9.77319E-21
4.50840E-03 9.27078E-21
4.62608E-03 8.80008E-21
4.74527E-03 8.35872E-21
4.86597E-03 7.94454E-21
4.98817E-03 7.55556E-21
5.11188E-03 7.18997E-21
5.23711E-03 6.84611E-21
5.36383E-03 6.52244E-21
5.49207E-03 6.21758E-21
5.62181E-03 5.93022E-21
5.75306E-03 5.65917E-21
5.88581E-03 5.40335E-21
6.02007E-03 5.16173E-21
6.15583E-03 4.93339E-21
6.29310E-03 4.71746E-21
6.43187E-03 4.51315E-21
6.57214E-03 4.31971E-21
6.71392E-03 4.13646E-21
6.85720E-03 3.96277E-21
7.00198E-03 3.79804E-21
7.14827E-03 3.64173E-21
7.29605E-03 3.49333E-21
7.44534E-03 3.35236E-21
7.59612E-03 3.21839E-21
7.97965E-03 2.91142E-21
8.37255E-03 2.63997E-21
8.77480E-03 2.39922E-21
9.18641E-03 2.18514E-21
9.60736E-03 1.99425E-21
1.00376E-02 1.82362E-21
1.04773E-02 1.67073E-21
1.09262E-02 1.53342E-21
1.13844E-02 1.40982E-21
1.18520E-02 1.29835E-21
1.23288E-02 1.19759E-21
1.28150E-02 1.10635E-21
1.33104E-02 1.02357E-21
1.38150E-02 9.48327E-22
1.43290E-02 8.79817E-22
1.48521E-02 8.17333E-22
1.53845E-02 7.60254E-22
1.59262E-02 7.08030E-22
1.64770E-02 6.60175E-22
1.70371E-02 6.16262E-22
1.76063E-02 5.75907E-22
1.81848E-02 5.38772E-22
1.87724E-02 5.04556E-22
1.93692E-02 4.72988E-22
1.99751E-02 4.43828E-22
2.05901E-02 4.16859E-22
2.12143E-02 3.91889E-22
2.18476E-02 3.68742E-22
2.24900E-02 3.47262E-22
2.31415E-02 3.27307E-22
2.38021E-02 3.08751E-22
2.44717E-02 2.91479E-22
2.51504E-02 2.75384E-22
2.58382E-02 2.60374E-22
2.65349E-02 2.46361E-22
2.72407E-02 2.33268E-22
2.79555E-02 2.21024E-22
2.86793E-02 2.09564E-22
2.94120E-02 1.98829E-22
3.01537E-02 1.88764E-22
3.09043E-02 1.79321E-22
3.16639E-02 1.70454E-22
3.24324E-02 1.62122E-22
3.32098E-02 1.54287E-22
3.39961E-02 1.46914E-22
3.47912E-02 1.39970E-22
3.55952E-02 1.33427E-22
3.64081E-02 1.27257E-22
3.72297E-02 1.21435E-22
3.80602E-02 1.15938E-22
3.88995E-02 1.10744E-22
3.97476E-02 1.05834E-22
4.06044E-02 1.01190E-22
4.14700E-02 9.67944E-23
4.23443E-02 9.26316E-23
4.32273E-02 8.86870E-23
4.41190E-02 8.49472E-23
4.50194E-02 8.13998E-23
4.59284E-02 7.80330E-23
4.68461E-02 7.48361E-23
4.87074E-02 6.89118E-23
5.06030E-02 6.35542E-23
5.25328E-02 5.87000E-23
5.44967E-02 5.42936E-23
5.64946E-02 5.02872E-23
5.85262E-02 4.66379E-23
6.05914E-02 4.33087E-23
6.26901E-02 4.02668E-23
6.48222E-02 3.74829E-23
6.69873E-02 3.49318E-23
6.91854E-02 3.25903E-23
7.14163E-02 3.04386E-23
7.36799E-02 2.84585E-23
7.59760E-02 2.66340E-23
7.83043E-02 2.49508E-23
8.06647E-02 2.33961E-23
8.30571E-02 2.19584E-23
8.54812E-02 2.06274E-23
8.79369E-02 1.93939E-23
9.04240E-02 1.82493E-23
9.29422E-02 1.71864E-23
9.54915E-02 1.61982E-23
9.80716E-02 1.52785E-23
1.00682E-01 1.44218E-23
1.03323E-01 1.36231E-23
1.05995E-01 1.28778E-23
1.08696E-01 1.21816E-23
1.11427E-01 1.15308E-23
1.14188E-01 1.09220E-23
1.16978E-01 1.03518E-23
1.19797E-01 9.81758E-24
1.22645E-01 9.31655E-24
1.25522E-01 8.84631E-24
1.28428E-01 8.40465E-24
1.31361E-01 7.98955E-24
1.34323E-01 7.59912E-24
1.37313E-01 7.23166E-24
1.40330E-01 6.88557E-24
1.43375E-01 6.55941E-24
1.46447E-01 6.25184E-24
1.49545E-01 5.96161E-24
1.52671E-01 5.68759E-24
1.55823E-01 5.42872E-24
1.59001E-01 5.18404E-24
1.62205E-01 4.95250E-24
1.65435E-01 4.73330E-24
1.68690E-01 4.52574E-24
1.71970E-01 4.32909E-24
1.75276E-01 4.14268E-24
1.78606E-01 3.96588E-24
1.81961E-01 3.79812E-24
1.85340E-01 3.63886E-24
1.88743E-01 3.48758E-24
1.92169E-01 3.34383E-24
1.95619E-01 3.20716E-24
1.99092E-01 3.07716E-24
2.02589E-01 2.95346E-24
2.06107E-01 2.83570E-24
2.09649E-01 2.72354E-24
2.13212E-01 2.61667E-24
2.16797E-01 2.51480E-24
2.20404E-01 2.41766E-24
2.24032E-01 2.32498E-24
2.27680E-01 2.23653E-24
2.31350E-01 2.15209E-24
2.35040E-01 2.07144E-24
2.38751E-01 1.99438E-24
2.42481E-01 1.92072E-24
2.46231E-01 1.85030E-24
2.50000E-01 1.78293E-24
2.53788E-01 1.71848E-24
2.57595E-01 1.65678E-24
2.61421E-01 1.59771E-24
2.65264E-01 1.54113E-24
2.69126E-01 1.48693E-24
2.73005E-01 1.43497E-24
2.76901E-01 1.38516E-24
2.80814E-01 1.33739E-24
2.84744E-01 1.29156E-24
2.88691E-01 1.24758E-24
2.92653E-01 1.20537E-24
2.96632E-01 1.16484E-24
3.00625E-01 1.12591E-24
3.04634E-01 1.08851E-24
3.08658E-01 1.05257E-24
3.12697E-01 1.01802E-24
3.16749E-01 9.84801E-25
3.20816E-01 9.52851E-25
3.24896E-01 9.22114E-25
3.28990E-01 8.92537E-25
3.33097E-01 8.64069E-25
3.37216E-01 8.36660E-25
3.41348E-01 8.10266E-25
3.45492E-01 7.84841E-25
3.49647E-01 7.60346E-25
3.53814E-01 7.36739E-25
3.57992E-01 7.13984E-25
3.62181E-01 6.92045E-25
3.66381E-01 6.70888E-25
3.70590E-01 6.50480E-25
3.74810E-01 6.30791E-25
3.79039E-01 6.11790E-25
3.83277E-01 5.93451E-25
3.87524E-01 5.75745E-25
3.91780E-01 5.58648E-25
3.96044E-01 5.42136E-25
4.00316E-01 5.26185E-25
4.04596E-01 5.10772E-25
4.08882E-01 4.95878E-25
4.13176E-01 4.81481E-25
4.17476E-01 4.67562E-25
4.21783E-01 4.54103E-25
4.26095E-01 4.41086E-25
4.30413E-01 4.28495E-25
4.34737E-01 4.16312E-25
4.39065E-01 4.04524E-25
4.43398E-01 3.93114E-25
4.47736E-01 3.82069E-25
4.52077E-01 3.71376E-25
4.56422E-01 3.61021E-25
4.60770E-01 3.50992E-25
4.65122E-01 3.41276E-25
4.69476E-01 3.31864E-25
4.73832E-01 3.22743E-25
4.78190E-01 3.13904E-25
4.82550E-01 3.05335E-25
4.86912E-01 2.97029E-25
4.91274E-01 2.88975E-25
4.95637E-01 2.81164E-25
5.00000E-01 2.73588E-25
5.04363E-01 2.66239E-25
5.08726E-01 2.59109E-25
5.13088E-01 2.52190E-25
5.17450E-01 2.45476E-25
5.21810E-01 2.38959E-25
5.26168E-01 2.32632E-25
5.30524E-01 2.26489E-25
5.34878E-01 2.20525E-25
5.39230E-01 2.14732E-25
5.43578E-01 2.09106E-25
5.47923E-01 2.03640E-25
5.52264E-01 1.98330E-25
5.56602E-01 1.93171E-25
5.60935E-01 1.88156E-25
5.65263E-01 1.83283E-25
5.69587E-01 1.78546E-25
5.73905E-01 1.73941E-25
5.78217E-01 1.69463E-25
5.82524E-01 1.65109E-25
5.86824E-01 1.60875E-25
5.91118E-01 1.56756E-25
5.95404E-01 1.52750E-25
5.99684E-01 1.48853E-25
6.03956E-01 1.45061E-25
6.08220E-01 1.41371E-25
6.12476E-01 1.37780E-25
6.16723E-01 1.34285E-25
6.20961E-01 1.30883E-25
6.25190E-01 1.27571E-25
6.29410E-01 1.24346E-25
6.33619E-01 1.21207E-25
6.37819E-01 1.18150E-25
6.42008E-01 1.15172E-25
6.46186E-01 1.12272E-25
6.50353E-01 1.09447E-25
6.54508E-01 1.06695E-25
6.58652E-01 1.04014E-25
6.62784E-01 1.01402E-25
6.66903E-01 9.88562E-26
6.71010E-01 9.63754E-26
6.75104E-01 9.39575E-26
6.79184E-01 9.16008E-26
6.83251E-01 8.93034E-26
6.87303E-01 8.70638E-26
6.91342E-01 8.48802E-26
6.95366E-01 8.27511E-26
6.99375E-01 8.06750E-26
7.03368E-01 7.86504E-26
7.07347E-01 7.66758E-26
7.11309E-01 7.47498E-26
7.15256E-01 7.28712E-26
7.19186E-01 7.10385E-26
7.23099E-01 6.92506E-26
7.26995E-01 6.75063E-26
7.30874E-01 6.58043E-26
7.34736E-01 6.41435E-26
7.38579E-01 6.25228E-26
7.42405E-01 6.09412E-26
7.46212E-01 5.93975E-26
7.50000E-01 5.78908E-26
7.53769E-01 5.64200E-26
7.57519E-01 5.49844E-26
7.61249E-01 5.35828E-26
7.64960E-01 5.22145E-26
7.68650E-01 5.08786E-26
7.72320E-01 4.95742E-26
7.75968E-01 4.83005E-26
7.79596E-01 4.70567E-26
7.83203E-01 4.58421E-26
7.86788E-01 4.46560E-26
7.90351E-01 4.34975E-26
7.93893E-01 4.23661E-26
7.97411E-01 4.12610E-26
8.00908E-01 4.01815E-26
8.04381E-01 3.91271E-26
8.07831E-01 3.80970E-26
8.11257E-01 3.70908E-26
8.14660E-01 3.61078E-26
8.18039E-01 3.51475E-26
8.21394E-01 3.42093E-26
8.24724E-01 3.32926E-26
8.28030E-01 3.23970E-26
8.31310E-01 3.15219E-26
8.34565E-01 3.06669E-26
8.37795E-01 2.98314E-26
8.40999E-01 2.90151E-26
8.44177E-01 2.82174E-26
8.47329E-01 2.74380E-26
8.50455E-01 2.66763E-26
8.53553E-01 2.59321E-26
8.56625E-01 2.52048E-26
8.59670E-01 2.44941E-26
8.62687E-01 2.37997E-26
8.65677E-01 2.31210E-26
8.68639E-01 2.24579E-26
8.71572E-01 2.18100E-26
8.74478E-01 2.11768E-26
8.77355E-01 2.05581E-26
8.80203E-01 1.99536E-26
8.83022E-01 1.93629E-26
8.85812E-01 1.87857E-26
8.88573E-01 1.82218E-26
8.91304E-01 1.76709E-26
8.94005E-01 1.71327E-26
8.96677E-01 1.66069E-26
8.99318E-01 1.60932E-26
9.01928E-01 1.55914E-26
9.04508E-01 1.51013E-26
9.07058E-01 1.46226E-26
9.09576E-01 1.41551E-26
9.12063E-01 1.36985E-26
9.14519E-01 1.32526E-26
9.16943E-01 1.28173E-26
9.19335E-01 1.23923E-26
9.21696E-01 1.19773E-26
9.24024E-01 1.15723E-26
9.26320E-01 1.11769E-26
9.28584E-01 1.07911E-26
9.30815E-01 1.04146E-26
9.33013E-01 1.00473E-26
9.35178E-01 9.68899E-27
9.37310E-01 9.33948E-27
9.39409E-01 8.99864E-27
9.41474E-01 8.66629E-27
9.43505E-01 8.34229E-27
9.45503E-01 8.02650E-27
9.47467E-01 7.71876E-27
9.49397E-01 7.41894E-27
9.51293E-01 7.12689E-27
9.53154E-01 6.84250E-27
9.54981E-01 6.56562E-27
9.56773E-01 6.29614E-27
9.58530E-01 6.03393E-27
9.60252E-01 5.77888E-27
9.61940E-01 5.53087E-27
9.63592E-01 5.28979E-27
9.65209E-01 5.05554E-27
9.66790E-01 4.82802E-27
9.68336E-01 4.60711E-27
9.69846E-01 4.39274E-27
9.71321E-01 4.18479E-27
9.72759E-01 3.98319E-27
9.74162E-01 3.78784E-27
9.75528E-01 3.59866E-27
9.76858E-01 3.41556E-27
9.78152E-01 3.23847E-27
9.79410E-01 3.06732E-27
9.80631E-01 2.90202E-27
9.81815E-01 2.74251E-27
9.82963E-01 2.58872E-27
9.84074E-01 2.44058E-27
9.85148E-01 2.29803E-27
9.86185E-01 2.16101E-27
9.87185E-01 2.02946E-27
9.88148E-01 1.90333E-27
9.89074E-01 1.78255E-27
9.89962E-01 1.66709E-27
9.90814E-01 1.55689E-27
9.91627E-01 1.45191E-27
9.92404E-01 1.35210E-27
9.93143E-01 1.25742E-27
9.93844E-01 1.16782E-27
9.94508E-01 1.08328E-27
9.95134E-01 1.00376E-27
9.95722E-01 9.29221E-28
9.96273E-01 8.59635E-28
9.96786E-01 7.94973E-28
9.97261E-01 7.35207E-28
9.97698E-01 6.80314E-28
9.98097E-01 6.30270E-28
9.98459E-01 5.85054E-28
9.98782E-01 5.44648E-28
9.99067E-01 5.09035E-28
9.99315E-01 4.78201E-28
9.99524E-01 4.52131E-28
9.99695E-01 4.30816E-28
9.99829E-01 4.14247E-28
9.99924E-01 4.02417E-28
9.99981E-01 3.95321E-28
1.00000E+00 3.92956E-28
