 #
 # Subroutine ELSEPA. Elastic scattering of electrons and positrons
 #                    by neutral atoms and positive ions
 #
 # Projectile: positron
 # Kinetic energy = 9.00000E+07 eV = 3.30744E+06 a.u.
 #
 # WARNING: High-energy factorization with free-atom DF screening.
 #          Absorption, polarization and exchange corrections are
 #          switched off.
 #          Phase shifts are calculated for the bare nucleus.
 #          Scattering amplitudes are not evaluated.
 #
 # Element: Tl,  Z =  81,  atomic weight = 2.04383E+02 g/mol
 #
 # Nuclear model: Fermi distribution
 #                Average radius = 6.30278E-13 cm
 #                Skin thickness = 5.46000E-14 cm
 #
 # Number of electrons = 81
 #
 # Total elastic cross section = 8.28421E-18 cm**2 = 2.95834E-01 a0**2
 # 1st transport cross section = 1.44567E-24 cm**2 = 5.16258E-08 a0**2
 # 2nd transport cross section = 4.28852E-24 cm**2 = 1.53146E-07 a0**2
 #
 #
 # Differential cross section:                       MU=(1-COS(THETA))/2
 #
 #  THETA        MU          DCS          DCS        Sherman      error
 #  (deg)                 (cm**2/sr)   (a0**2/sr)    function
 #----------------------------------------------------------------------
0.00000E+00 4.62532E-10
7.61557E-13 4.61527E-10
1.18994E-12 4.60965E-10
1.71346E-12 4.60280E-10
2.33225E-12 4.59474E-10
3.04617E-12 4.58547E-10
3.85530E-12 4.57502E-10
4.75964E-12 4.56340E-10
5.75917E-12 4.55062E-10
6.85391E-12 4.53671E-10
8.04379E-12 4.52169E-10
9.32893E-12 4.50558E-10
1.07092E-11 4.48841E-10
1.21847E-11 4.47020E-10
1.37554E-11 4.45098E-10
1.54213E-11 4.43078E-10
1.71823E-11 4.40963E-10
1.90386E-11 4.38756E-10
2.09900E-11 4.36459E-10
2.30367E-11 4.34077E-10
2.51785E-11 4.31612E-10
2.74156E-11 4.29068E-10
2.97478E-11 4.26443E-10
3.21752E-11 4.23746E-10
3.46979E-11 4.20982E-10
3.73157E-11 4.18155E-10
4.00286E-11 4.15268E-10
4.28368E-11 4.12326E-10
4.57402E-11 4.09319E-10
4.87388E-11 4.06256E-10
5.18325E-11 4.03148E-10
5.50215E-11 3.99999E-10
5.83057E-11 3.96812E-10
6.16850E-11 3.93591E-10
6.51595E-11 3.90322E-10
6.87293E-11 3.87014E-10
7.23943E-11 3.83683E-10
7.61544E-11 3.80330E-10
1.18991E-10 3.45970E-10
1.71347E-10 3.11722E-10
2.33223E-10 2.79167E-10
3.04617E-10 2.49271E-10
3.85531E-10 2.22324E-10
4.75965E-10 1.98310E-10
5.75917E-10 1.77123E-10
6.85389E-10 1.58428E-10
8.04380E-10 1.41966E-10
9.32891E-10 1.27503E-10
1.07092E-09 1.14717E-10
1.21847E-09 1.03430E-10
1.37554E-09 9.34610E-11
1.54213E-09 8.45859E-11
1.71823E-09 7.67080E-11
1.90386E-09 6.97012E-11
2.09900E-09 6.34204E-11
2.30367E-09 5.78131E-11
2.51785E-09 5.27903E-11
2.74156E-09 4.82673E-11
2.97478E-09 4.39328E-11
3.21752E-09 4.00779E-11
3.46978E-09 3.67341E-11
3.73156E-09 3.38198E-11
4.00286E-09 3.12681E-11
4.28368E-09 2.90241E-11
4.57402E-09 2.67672E-11
4.87388E-09 2.46611E-11
5.18326E-09 2.28004E-11
5.50215E-09 2.11504E-11
5.83057E-09 1.96820E-11
6.16850E-09 1.83708E-11
6.51596E-09 1.70903E-11
6.87293E-09 1.58841E-11
7.23942E-09 1.48022E-11
7.61544E-09 1.38290E-11
1.18991E-08 7.44875E-12
1.71347E-08 4.39165E-12
2.33223E-08 2.76207E-12
3.04617E-08 1.82492E-12
3.85531E-08 1.24820E-12
4.75965E-08 8.78231E-13
5.75917E-08 6.34296E-13
6.85389E-08 4.68866E-13
8.04380E-08 3.53604E-13
9.32891E-08 2.72071E-13
1.07092E-07 2.13099E-13
1.21847E-07 1.69499E-13
1.37554E-07 1.36612E-13
1.54213E-07 1.11349E-13
1.71823E-07 9.17152E-14
1.90386E-07 7.62672E-14
2.09900E-07 6.39495E-14
2.30367E-07 5.40325E-14
2.51785E-07 4.59659E-14
2.74156E-07 3.93444E-14
2.97478E-07 3.38509E-14
3.21752E-07 2.93079E-14
3.46978E-07 2.55117E-14
3.73156E-07 2.22944E-14
4.00286E-07 1.95886E-14
4.28368E-07 1.72630E-14
4.57402E-07 1.52817E-14
4.87388E-07 1.35760E-14
5.18325E-07 1.20992E-14
5.50215E-07 1.08240E-14
5.83057E-07 9.70472E-15
6.16850E-07 8.73109E-15
6.51596E-07 7.87455E-15
6.87293E-07 7.12050E-15
7.23942E-07 6.45603E-15
7.61543E-07 5.86479E-15
1.18991E-06 2.50487E-15
1.71347E-06 1.24217E-15
2.33223E-06 6.84488E-16
3.04617E-06 4.07660E-16
3.85531E-06 2.57642E-16
4.75964E-06 1.70658E-16
5.75916E-06 1.17436E-16
6.85388E-06 8.34129E-17
8.04378E-06 6.08535E-17
9.32888E-06 4.54245E-17
1.07092E-05 3.45870E-17
1.21846E-05 2.67960E-17
1.37553E-05 2.10797E-17
1.54212E-05 1.68095E-17
1.71822E-05 1.35678E-17
1.90385E-05 1.10642E-17
2.09899E-05 9.12430E-18
2.30365E-05 7.59004E-18
2.51783E-05 6.36309E-18
2.74153E-05 5.37275E-18
2.97475E-05 4.56699E-18
3.21749E-05 3.90674E-18
3.46974E-05 3.36189E-18
3.73152E-05 2.90921E-18
4.00281E-05 2.53052E-18
4.28362E-05 2.21159E-18
4.57395E-05 1.94132E-18
4.87380E-05 1.71099E-18
5.18317E-05 1.51368E-18
5.50205E-05 1.34392E-18
5.83045E-05 1.19725E-18
6.16838E-05 1.07005E-18
6.51582E-05 9.59320E-19
6.87277E-05 8.62573E-19
7.23925E-05 7.77732E-19
7.61524E-05 7.03135E-19
9.21439E-05 4.80732E-19
1.09658E-04 3.39639E-19
1.28695E-04 2.46698E-19
1.49255E-04 1.83450E-19
1.71338E-04 1.39221E-19
1.94942E-04 1.07542E-19
2.20070E-04 8.43744E-20
2.46720E-04 6.71175E-20
2.74892E-04 5.40514E-20
3.04586E-04 4.40125E-20
3.35803E-04 3.61975E-20
3.68542E-04 3.00407E-20
4.02802E-04 2.51376E-20
4.38585E-04 2.11942E-20
4.75889E-04 1.79936E-20
5.14715E-04 1.53744E-20
5.55063E-04 1.32142E-20
5.96931E-04 1.14200E-20
6.40321E-04 9.91979E-21
6.85233E-04 8.65770E-21
7.31665E-04 7.58981E-21
7.79618E-04 6.68135E-21
8.29092E-04 5.90463E-21
8.80086E-04 5.23739E-21
9.32601E-04 4.66163E-21
9.86636E-04 4.16273E-21
1.04219E-03 3.72868E-21
1.09927E-03 3.34967E-21
1.15786E-03 3.01751E-21
1.21797E-03 2.72544E-21
1.27961E-03 2.46780E-21
1.34276E-03 2.23982E-21
1.40743E-03 2.03751E-21
1.47362E-03 1.85749E-21
1.54133E-03 1.69686E-21
1.61056E-03 1.55319E-21
1.68131E-03 1.42436E-21
1.75357E-03 1.30859E-21
1.82735E-03 1.20430E-21
1.90265E-03 1.11017E-21
1.97947E-03 1.02503E-21
2.05780E-03 9.47879E-22
2.13765E-03 8.77824E-22
2.21902E-03 8.14102E-22
2.30190E-03 7.56039E-22
2.38630E-03 7.03042E-22
2.47222E-03 6.54592E-22
2.55965E-03 6.10229E-22
2.64859E-03 5.69547E-22
2.73905E-03 5.32187E-22
2.83103E-03 4.97828E-22
2.92452E-03 4.66186E-22
3.01952E-03 4.37010E-22
3.11604E-03 4.10072E-22
3.21407E-03 3.85172E-22
3.31362E-03 3.62129E-22
3.41468E-03 3.40758E-22
3.51725E-03 3.20933E-22
3.62133E-03 3.02520E-22
3.72692E-03 2.85402E-22
3.83403E-03 2.69471E-22
3.94265E-03 2.54630E-22
4.05278E-03 2.40790E-22
4.16442E-03 2.27872E-22
4.27757E-03 2.15803E-22
4.39223E-03 2.04517E-22
4.50840E-03 1.93955E-22
4.62608E-03 1.84061E-22
4.74527E-03 1.74785E-22
4.86597E-03 1.66082E-22
4.98817E-03 1.57910E-22
5.11188E-03 1.50231E-22
5.23711E-03 1.43009E-22
5.36383E-03 1.36212E-22
5.49207E-03 1.29811E-22
5.62181E-03 1.23778E-22
5.75306E-03 1.18089E-22
5.88581E-03 1.12720E-22
6.02007E-03 1.07650E-22
6.15583E-03 1.02859E-22
6.29310E-03 9.83292E-23
6.43187E-03 9.40435E-23
6.57214E-03 8.99865E-23
6.71392E-03 8.61436E-23
6.85720E-03 8.25016E-23
7.00198E-03 7.90479E-23
7.14827E-03 7.57711E-23
7.29605E-03 7.26605E-23
7.44534E-03 6.97061E-23
7.59612E-03 6.68986E-23
7.97965E-03 6.04672E-23
8.37255E-03 5.47816E-23
8.77480E-03 4.97408E-23
9.18641E-03 4.52595E-23
9.60736E-03 4.12649E-23
1.00376E-02 3.76955E-23
1.04773E-02 3.44982E-23
1.09262E-02 3.16277E-23
1.13844E-02 2.90450E-23
1.18520E-02 2.67162E-23
1.23288E-02 2.46123E-23
1.28150E-02 2.27078E-23
1.33104E-02 2.09806E-23
1.38150E-02 1.94114E-23
1.43290E-02 1.79833E-23
1.48521E-02 1.66815E-23
1.53845E-02 1.54928E-23
1.59262E-02 1.44058E-23
1.64770E-02 1.34104E-23
1.70371E-02 1.24974E-23
1.76063E-02 1.16589E-23
1.81848E-02 1.08879E-23
1.87724E-02 1.01778E-23
1.93692E-02 9.52324E-24
1.99751E-02 8.91899E-24
2.05901E-02 8.36057E-24
2.12143E-02 7.84391E-24
2.18476E-02 7.36537E-24
2.24900E-02 6.92166E-24
2.31415E-02 6.50982E-24
2.38021E-02 6.12717E-24
2.44717E-02 5.77131E-24
2.51504E-02 5.44003E-24
2.58382E-02 5.13137E-24
2.65349E-02 4.84352E-24
2.72407E-02 4.57484E-24
2.79555E-02 4.32385E-24
2.86793E-02 4.08918E-24
2.94120E-02 3.86961E-24
3.01537E-02 3.66399E-24
3.09043E-02 3.47130E-24
3.16639E-02 3.29059E-24
3.24324E-02 3.12099E-24
3.32098E-02 2.96171E-24
3.39961E-02 2.81202E-24
3.47912E-02 2.67125E-24
3.55952E-02 2.53877E-24
3.64081E-02 2.41403E-24
3.72297E-02 2.29649E-24
3.80602E-02 2.18568E-24
3.88995E-02 2.08114E-24
3.97476E-02 1.98247E-24
4.06044E-02 1.88929E-24
4.14700E-02 1.80123E-24
4.23443E-02 1.71798E-24
4.32273E-02 1.63922E-24
4.41190E-02 1.56468E-24
4.50194E-02 1.49410E-24
4.59284E-02 1.42724E-24
4.68461E-02 1.36386E-24
4.87074E-02 1.24674E-24
5.06030E-02 1.14123E-24
5.25328E-02 1.04601E-24
5.44967E-02 9.59932E-25
5.64946E-02 8.81996E-25
5.85262E-02 8.11320E-25
6.05914E-02 7.47134E-25
6.26901E-02 6.88757E-25
6.48222E-02 6.35591E-25
6.69873E-02 5.87106E-25
6.91854E-02 5.42833E-25
7.14163E-02 5.02357E-25
7.36799E-02 4.65308E-25
7.59760E-02 4.31357E-25
7.83043E-02 4.00210E-25
8.06647E-02 3.71606E-25
8.30571E-02 3.45309E-25
8.54812E-02 3.21110E-25
8.79369E-02 2.98819E-25
9.04240E-02 2.78267E-25
9.29422E-02 2.59302E-25
9.54915E-02 2.41784E-25
9.80716E-02 2.25591E-25
1.00682E-01 2.10610E-25
1.03323E-01 1.96738E-25
1.05995E-01 1.83884E-25
1.08696E-01 1.71965E-25
1.11427E-01 1.60904E-25
1.14188E-01 1.50632E-25
1.16978E-01 1.41087E-25
1.19797E-01 1.32212E-25
1.22645E-01 1.23953E-25
1.25522E-01 1.16263E-25
1.28428E-01 1.09099E-25
1.31361E-01 1.02421E-25
1.34323E-01 9.61929E-26
1.37313E-01 9.03801E-26
1.40330E-01 8.49525E-26
1.43375E-01 7.98819E-26
1.46447E-01 7.51423E-26
1.49545E-01 7.07100E-26
1.52671E-01 6.65629E-26
1.55823E-01 6.26809E-26
1.59001E-01 5.90454E-26
1.62205E-01 5.56392E-26
1.65435E-01 5.24465E-26
1.68690E-01 4.94525E-26
1.71970E-01 4.66438E-26
1.75276E-01 4.40077E-26
1.78606E-01 4.15328E-26
1.81961E-01 3.92083E-26
1.85340E-01 3.70242E-26
1.88743E-01 3.49712E-26
1.92169E-01 3.30409E-26
1.95619E-01 3.12252E-26
1.99092E-01 2.95168E-26
2.02589E-01 2.79088E-26
2.06107E-01 2.63948E-26
2.09649E-01 2.49688E-26
2.13212E-01 2.36253E-26
2.16797E-01 2.23592E-26
2.20404E-01 2.11657E-26
2.24032E-01 2.00402E-26
2.27680E-01 1.89785E-26
2.31350E-01 1.79769E-26
2.35040E-01 1.70316E-26
2.38751E-01 1.61392E-26
2.42481E-01 1.52966E-26
2.46231E-01 1.45007E-26
2.50000E-01 1.37489E-26
2.53788E-01 1.30384E-26
2.57595E-01 1.23669E-26
2.61421E-01 1.17320E-26
2.65264E-01 1.11317E-26
2.69126E-01 1.05638E-26
2.73005E-01 1.00267E-26
2.76901E-01 9.51837E-27
2.80814E-01 9.03730E-27
2.84744E-01 8.58190E-27
2.88691E-01 8.15072E-27
2.92653E-01 7.74238E-27
2.96632E-01 7.35561E-27
3.00625E-01 6.98919E-27
3.04634E-01 6.64198E-27
3.08658E-01 6.31292E-27
3.12697E-01 6.00101E-27
3.16749E-01 5.70530E-27
3.20816E-01 5.42489E-27
3.24896E-01 5.15896E-27
3.28990E-01 4.90670E-27
3.33097E-01 4.66739E-27
3.37216E-01 4.44031E-27
3.41348E-01 4.22481E-27
3.45492E-01 4.02026E-27
3.49647E-01 3.82609E-27
3.53814E-01 3.64173E-27
3.57992E-01 3.46666E-27
3.62181E-01 3.30039E-27
3.66381E-01 3.14245E-27
3.70590E-01 2.99242E-27
3.74810E-01 2.84986E-27
3.79039E-01 2.71439E-27
3.83277E-01 2.58565E-27
3.87524E-01 2.46327E-27
3.91780E-01 2.34694E-27
3.96044E-01 2.23633E-27
4.00316E-01 2.13115E-27
4.04596E-01 2.03112E-27
4.08882E-01 1.93599E-27
4.13176E-01 1.84549E-27
4.17476E-01 1.75939E-27
4.21783E-01 1.67748E-27
4.26095E-01 1.59953E-27
4.30413E-01 1.52534E-27
4.34737E-01 1.45473E-27
4.39065E-01 1.38752E-27
4.43398E-01 1.32353E-27
4.47736E-01 1.26261E-27
4.52077E-01 1.20460E-27
4.56422E-01 1.14935E-27
4.60770E-01 1.09673E-27
4.65122E-01 1.04661E-27
4.69476E-01 9.98867E-28
4.73832E-01 9.53380E-28
4.78190E-01 9.10040E-28
4.82550E-01 8.68741E-28
4.86912E-01 8.29384E-28
4.91274E-01 7.91873E-28
4.95637E-01 7.56118E-28
5.00000E-01 7.22034E-28
5.04363E-01 6.89540E-28
5.08726E-01 6.58558E-28
5.13088E-01 6.29016E-28
5.17450E-01 6.00844E-28
5.21810E-01 5.73977E-28
5.26168E-01 5.48351E-28
5.30524E-01 5.23907E-28
5.34878E-01 5.00589E-28
5.39230E-01 4.78342E-28
5.43578E-01 4.57116E-28
5.47923E-01 4.36862E-28
5.52264E-01 4.17535E-28
5.56602E-01 3.99089E-28
5.60935E-01 3.81484E-28
5.65263E-01 3.64679E-28
5.69587E-01 3.48638E-28
5.73905E-01 3.33324E-28
5.78217E-01 3.18703E-28
5.82524E-01 3.04742E-28
5.86824E-01 2.91412E-28
5.91118E-01 2.78682E-28
5.95404E-01 2.66524E-28
5.99684E-01 2.54912E-28
6.03956E-01 2.43820E-28
6.08220E-01 2.33224E-28
6.12476E-01 2.23103E-28
6.16723E-01 2.13432E-28
6.20961E-01 2.04192E-28
6.25190E-01 1.95364E-28
6.29410E-01 1.86927E-28
6.33619E-01 1.78864E-28
6.37819E-01 1.71158E-28
6.42008E-01 1.63793E-28
6.46186E-01 1.56753E-28
6.50353E-01 1.50023E-28
6.54508E-01 1.43589E-28
6.58652E-01 1.37438E-28
6.62784E-01 1.31557E-28
6.66903E-01 1.25933E-28
6.71010E-01 1.20556E-28
6.75104E-01 1.15413E-28
6.79184E-01 1.10495E-28
6.83251E-01 1.05791E-28
6.87303E-01 1.01291E-28
6.91342E-01 9.69872E-29
6.95366E-01 9.28700E-29
6.99375E-01 8.89311E-29
7.03368E-01 8.51626E-29
7.07347E-01 8.15568E-29
7.11309E-01 7.81067E-29
7.15256E-01 7.48051E-29
7.19186E-01 7.16456E-29
7.23099E-01 6.86219E-29
7.26995E-01 6.57278E-29
7.30874E-01 6.29578E-29
7.34736E-01 6.03064E-29
7.38579E-01 5.77682E-29
7.42405E-01 5.53384E-29
7.46212E-01 5.30122E-29
7.50000E-01 5.07849E-29
7.53769E-01 4.86524E-29
7.57519E-01 4.66104E-29
7.61249E-01 4.46550E-29
7.64960E-01 4.27824E-29
7.68650E-01 4.09890E-29
7.72320E-01 3.92714E-29
7.75968E-01 3.76263E-29
7.79596E-01 3.60505E-29
7.83203E-01 3.45409E-29
7.86788E-01 3.30949E-29
7.90351E-01 3.17096E-29
7.93893E-01 3.03823E-29
7.97411E-01 2.91106E-29
8.00908E-01 2.78922E-29
8.04381E-01 2.67246E-29
8.07831E-01 2.56058E-29
8.11257E-01 2.45336E-29
8.14660E-01 2.35060E-29
8.18039E-01 2.25211E-29
8.21394E-01 2.15772E-29
8.24724E-01 2.06724E-29
8.28030E-01 1.98052E-29
8.31310E-01 1.89738E-29
8.34565E-01 1.81768E-29
8.37795E-01 1.74127E-29
8.40999E-01 1.66801E-29
8.44177E-01 1.59777E-29
8.47329E-01 1.53043E-29
8.50455E-01 1.46585E-29
8.53553E-01 1.40392E-29
8.56625E-01 1.34454E-29
8.59670E-01 1.28759E-29
8.62687E-01 1.23297E-29
8.65677E-01 1.18059E-29
8.68639E-01 1.13035E-29
8.71572E-01 1.08216E-29
8.74478E-01 1.03593E-29
8.77355E-01 9.91590E-30
8.80203E-01 9.49054E-30
8.83022E-01 9.08248E-30
8.85812E-01 8.69101E-30
8.88573E-01 8.31544E-30
8.91304E-01 7.95511E-30
8.94005E-01 7.60939E-30
8.96677E-01 7.27768E-30
8.99318E-01 6.95940E-30
9.01928E-01 6.65400E-30
9.04508E-01 6.36095E-30
9.07058E-01 6.07975E-30
9.09576E-01 5.80990E-30
9.12063E-01 5.55095E-30
9.14519E-01 5.30245E-30
9.16943E-01 5.06397E-30
9.19335E-01 4.83512E-30
9.21696E-01 4.61549E-30
9.24024E-01 4.40471E-30
9.26320E-01 4.20244E-30
9.28584E-01 4.00832E-30
9.30815E-01 3.82203E-30
9.33013E-01 3.64324E-30
9.35178E-01 3.47168E-30
9.37310E-01 3.30703E-30
9.39409E-01 3.14904E-30
9.41474E-01 2.99743E-30
9.43505E-01 2.85195E-30
9.45503E-01 2.71236E-30
9.47467E-01 2.57843E-30
9.49397E-01 2.44994E-30
9.51293E-01 2.32667E-30
9.53154E-01 2.20842E-30
9.54981E-01 2.09500E-30
9.56773E-01 1.98622E-30
9.58530E-01 1.88189E-30
9.60252E-01 1.78186E-30
9.61940E-01 1.68596E-30
9.63592E-01 1.59402E-30
9.65209E-01 1.50591E-30
9.66790E-01 1.42147E-30
9.68336E-01 1.34057E-30
9.69846E-01 1.26309E-30
9.71321E-01 1.18889E-30
9.72759E-01 1.11785E-30
9.74162E-01 1.04987E-30
9.75528E-01 9.84825E-31
9.76858E-01 9.22619E-31
9.78152E-01 8.63152E-31
9.79410E-01 8.06326E-31
9.80631E-01 7.52054E-31
9.81815E-01 7.00247E-31
9.82963E-01 6.50823E-31
9.84074E-01 6.03703E-31
9.85148E-01 5.58814E-31
9.86185E-01 5.16084E-31
9.87185E-01 4.75445E-31
9.88148E-01 4.36834E-31
9.89074E-01 4.00189E-31
9.89962E-01 3.65452E-31
9.90814E-01 3.32570E-31
9.91627E-01 3.01490E-31
9.92404E-01 2.72164E-31
9.93143E-01 2.44545E-31
9.93844E-01 2.18591E-31
9.94508E-01 1.94261E-31
9.95134E-01 1.71517E-31
9.95722E-01 1.50323E-31
9.96273E-01 1.30646E-31
9.96786E-01 1.12457E-31
9.97261E-01 9.57253E-32
9.97698E-01 8.04263E-32
9.98097E-01 6.65358E-32
9.98459E-01 5.40325E-32
9.98782E-01 4.28968E-32
9.99067E-01 3.31114E-32
9.99315E-01 2.46612E-32
9.99524E-01 1.75331E-32
9.99695E-01 1.17160E-32
9.99829E-01 7.20086E-33
9.99924E-01 3.98077E-33
9.99981E-01 2.05068E-33
1.00000E+00 1.40768E-33
