 #
 # Subroutine ELSEPA. Elastic scattering of electrons and positrons
 #                    by neutral atoms and positive ions
 #
 # Projectile: positron
 # Kinetic energy = 7.00000E+06 eV = 2.57245E+05 a.u.
 #
 # WARNING: High-energy factorization with free-atom DF screening.
 #          Absorption, polarization and exchange corrections are
 #          switched off.
 #          Phase shifts are calculated for the bare nucleus.
 #          Scattering amplitudes are not evaluated.
 #
 # Element: Tl,  Z =  81,  atomic weight = 2.04383E+02 g/mol
 #
 # Nuclear model: Fermi distribution
 #                Average radius = 6.30278E-13 cm
 #                Skin thickness = 5.46000E-14 cm
 #
 # Number of electrons = 81
 #
 # Total elastic cross section = 8.31470E-18 cm**2 = 2.96923E-01 a0**2
 # 1st transport cross section = 1.47910E-22 cm**2 = 5.28195E-06 a0**2
 # 2nd transport cross section = 4.26479E-22 cm**2 = 1.52298E-05 a0**2
 #
 #
 # Differential cross section:                       MU=(1-COS(THETA))/2
 #
 #  THETA        MU          DCS          DCS        Sherman      error
 #  (deg)                 (cm**2/sr)   (a0**2/sr)    function
 #----------------------------------------------------------------------
0.00000E+00 3.18519E-12
7.61557E-13 3.18513E-12
1.18994E-12 3.18511E-12
1.71346E-12 3.18507E-12
2.33225E-12 3.18503E-12
3.04617E-12 3.18499E-12
3.85530E-12 3.18493E-12
4.75964E-12 3.18488E-12
5.75917E-12 3.18481E-12
6.85391E-12 3.18474E-12
8.04379E-12 3.18467E-12
9.32893E-12 3.18459E-12
1.07092E-11 3.18450E-12
1.21847E-11 3.18441E-12
1.37554E-11 3.18431E-12
1.54213E-11 3.18420E-12
1.71823E-11 3.18409E-12
1.90386E-11 3.18398E-12
2.09900E-11 3.18385E-12
2.30367E-11 3.18373E-12
2.51785E-11 3.18359E-12
2.74156E-11 3.18345E-12
2.97478E-11 3.18331E-12
3.21752E-11 3.18315E-12
3.46979E-11 3.18300E-12
3.73157E-11 3.18283E-12
4.00286E-11 3.18266E-12
4.28368E-11 3.18249E-12
4.57402E-11 3.18231E-12
4.87388E-11 3.18212E-12
5.18325E-11 3.18193E-12
5.50215E-11 3.18173E-12
5.83057E-11 3.18152E-12
6.16850E-11 3.18131E-12
6.51595E-11 3.18109E-12
6.87293E-11 3.18087E-12
7.23943E-11 3.18064E-12
7.61544E-11 3.18041E-12
1.18991E-10 3.17774E-12
1.71347E-10 3.17450E-12
2.33223E-10 3.17067E-12
3.04617E-10 3.16627E-12
3.85531E-10 3.16130E-12
4.75965E-10 3.15576E-12
5.75917E-10 3.14967E-12
6.85389E-10 3.14302E-12
8.04380E-10 3.13583E-12
9.32891E-10 3.12810E-12
1.07092E-09 3.11984E-12
1.21847E-09 3.11106E-12
1.37554E-09 3.10178E-12
1.54213E-09 3.09199E-12
1.71823E-09 3.08171E-12
1.90386E-09 3.07095E-12
2.09900E-09 3.05972E-12
2.30367E-09 3.04803E-12
2.51785E-09 3.03590E-12
2.74156E-09 3.02333E-12
2.97478E-09 3.01034E-12
3.21752E-09 2.99694E-12
3.46978E-09 2.98315E-12
3.73156E-09 2.96897E-12
4.00286E-09 2.95441E-12
4.28368E-09 2.93948E-12
4.57402E-09 2.92419E-12
4.87388E-09 2.90858E-12
5.18326E-09 2.89267E-12
5.50215E-09 2.87647E-12
5.83057E-09 2.85999E-12
6.16850E-09 2.84324E-12
6.51596E-09 2.82620E-12
6.87293E-09 2.80886E-12
7.23942E-09 2.79130E-12
7.61544E-09 2.77353E-12
1.18991E-08 2.58644E-12
1.71347E-08 2.39000E-12
2.33223E-08 2.19378E-12
3.04617E-08 2.00486E-12
3.85531E-08 1.82680E-12
4.75965E-08 1.66229E-12
5.75917E-08 1.51219E-12
6.85389E-08 1.37549E-12
8.04380E-08 1.25235E-12
9.32891E-08 1.14145E-12
1.07092E-07 1.04142E-12
1.21847E-07 9.51679E-13
1.37554E-07 8.70738E-13
1.54213E-07 7.97777E-13
1.71823E-07 7.32149E-13
1.90386E-07 6.72606E-13
2.09900E-07 6.18832E-13
2.30367E-07 5.70194E-13
2.51785E-07 5.25863E-13
2.74156E-07 4.85687E-13
2.97478E-07 4.49106E-13
3.21752E-07 4.15695E-13
3.46978E-07 3.85279E-13
3.73156E-07 3.57421E-13
4.00286E-07 3.31930E-13
4.28368E-07 3.07060E-13
4.57402E-07 2.84289E-13
4.87388E-07 2.64076E-13
5.18325E-07 2.46072E-13
5.50215E-07 2.29985E-13
5.83057E-07 2.15565E-13
6.16850E-07 2.02602E-13
6.51596E-07 1.90004E-13
6.87293E-07 1.77296E-13
7.23942E-07 1.65847E-13
7.61543E-07 1.55504E-13
1.18991E-06 8.68805E-14
1.71347E-06 5.22228E-14
2.33223E-06 3.34026E-14
3.04617E-06 2.24943E-14
3.85531E-06 1.56742E-14
4.75964E-06 1.12421E-14
5.75916E-06 8.25605E-15
6.85388E-06 6.16998E-15
8.04378E-06 4.69710E-15
9.32888E-06 3.63468E-15
1.07092E-05 2.85463E-15
1.21846E-05 2.27236E-15
1.37553E-05 1.83321E-15
1.54212E-05 1.49708E-15
1.71822E-05 1.23596E-15
1.90385E-05 1.02902E-15
2.09899E-05 8.65117E-16
2.30365E-05 7.32708E-16
2.51783E-05 6.24568E-16
2.74153E-05 5.35739E-16
2.97475E-05 4.62189E-16
3.21749E-05 4.00851E-16
3.46974E-05 3.49432E-16
3.73152E-05 3.06010E-16
4.00281E-05 2.69155E-16
4.28362E-05 2.37556E-16
4.57395E-05 2.10549E-16
4.87380E-05 1.87428E-16
5.18317E-05 1.67223E-16
5.50205E-05 1.49692E-16
5.83045E-05 1.34489E-16
6.16838E-05 1.21058E-16
6.51582E-05 1.09297E-16
6.87277E-05 9.89891E-17
7.23925E-05 8.97962E-17
7.61524E-05 8.16742E-17
9.21439E-05 5.70926E-17
1.09658E-04 4.10630E-17
1.28695E-04 3.02859E-17
1.49255E-04 2.28164E-17
1.71338E-04 1.75084E-17
1.94942E-04 1.36585E-17
2.20070E-04 1.08098E-17
2.46720E-04 8.66644E-18
2.74892E-04 7.02961E-18
3.04586E-04 5.76116E-18
3.35803E-04 4.76654E-18
3.68542E-04 3.97767E-18
4.02802E-04 3.34511E-18
4.38585E-04 2.83343E-18
4.75889E-04 2.41579E-18
5.14715E-04 2.07215E-18
5.55063E-04 1.78740E-18
5.96931E-04 1.54976E-18
6.40321E-04 1.35023E-18
6.85233E-04 1.18172E-18
7.31665E-04 1.03858E-18
7.79618E-04 9.16414E-19
8.29092E-04 8.11640E-19
8.80086E-04 7.21353E-19
9.32601E-04 6.43244E-19
9.86636E-04 5.75390E-19
1.04219E-03 5.16217E-19
1.09927E-03 4.64439E-19
1.15786E-03 4.18967E-19
1.21797E-03 3.78909E-19
1.27961E-03 3.43513E-19
1.34276E-03 3.12138E-19
1.40743E-03 2.84256E-19
1.47362E-03 2.59409E-19
1.54133E-03 2.37209E-19
1.61056E-03 2.17328E-19
1.68131E-03 1.99479E-19
1.75357E-03 1.83421E-19
1.82735E-03 1.68942E-19
1.90265E-03 1.55859E-19
1.97947E-03 1.44014E-19
2.05780E-03 1.33271E-19
2.13765E-03 1.23507E-19
2.21902E-03 1.14619E-19
2.30190E-03 1.06514E-19
2.38630E-03 9.91100E-20
2.47222E-03 9.23367E-20
2.55965E-03 8.61301E-20
2.64859E-03 8.04347E-20
2.73905E-03 7.52009E-20
2.83103E-03 7.03843E-20
2.92452E-03 6.59460E-20
3.01952E-03 6.18508E-20
3.11604E-03 5.80674E-20
3.21407E-03 5.45680E-20
3.31362E-03 5.13272E-20
3.41468E-03 4.83225E-20
3.51725E-03 4.55337E-20
3.62133E-03 4.29423E-20
3.72692E-03 4.05320E-20
3.83403E-03 3.82878E-20
3.94265E-03 3.61960E-20
4.05278E-03 3.42446E-20
4.16442E-03 3.24222E-20
4.27757E-03 3.07192E-20
4.39223E-03 2.91258E-20
4.50840E-03 2.76341E-20
4.62608E-03 2.62361E-20
4.74527E-03 2.49250E-20
4.86597E-03 2.36944E-20
4.98817E-03 2.25385E-20
5.11188E-03 2.14518E-20
5.23711E-03 2.04295E-20
5.36383E-03 1.94672E-20
5.49207E-03 1.85604E-20
5.62181E-03 1.77057E-20
5.75306E-03 1.68992E-20
5.88581E-03 1.61380E-20
6.02007E-03 1.54188E-20
6.15583E-03 1.47391E-20
6.29310E-03 1.40962E-20
6.43187E-03 1.34877E-20
6.57214E-03 1.29116E-20
6.71392E-03 1.23657E-20
6.85720E-03 1.18482E-20
7.00198E-03 1.13573E-20
7.14827E-03 1.08915E-20
7.29605E-03 1.04490E-20
7.44534E-03 1.00288E-20
7.59612E-03 9.62926E-21
7.97965E-03 8.71368E-21
8.37255E-03 7.90370E-21
8.77480E-03 7.18512E-21
9.18641E-03 6.54586E-21
9.60736E-03 5.97567E-21
1.00376E-02 5.46583E-21
1.04773E-02 5.00885E-21
1.09262E-02 4.59832E-21
1.13844E-02 4.22870E-21
1.18520E-02 3.89521E-21
1.23288E-02 3.59372E-21
1.28150E-02 3.32062E-21
1.33104E-02 3.07277E-21
1.38150E-02 2.84745E-21
1.43290E-02 2.64224E-21
1.48521E-02 2.45504E-21
1.53845E-02 2.28399E-21
1.59262E-02 2.12745E-21
1.64770E-02 1.98399E-21
1.70371E-02 1.85231E-21
1.76063E-02 1.73129E-21
1.81848E-02 1.61990E-21
1.87724E-02 1.51724E-21
1.93692E-02 1.42251E-21
1.99751E-02 1.33500E-21
2.05901E-02 1.25404E-21
2.12143E-02 1.17908E-21
2.18476E-02 1.10957E-21
2.24900E-02 1.04507E-21
2.31415E-02 9.85136E-22
2.38021E-02 9.29395E-22
2.44717E-02 8.77501E-22
2.51504E-02 8.29142E-22
2.58382E-02 7.84032E-22
2.65349E-02 7.41917E-22
2.72407E-02 7.02563E-22
2.79555E-02 6.65754E-22
2.86793E-02 6.31298E-22
2.94120E-02 5.99019E-22
3.01537E-02 5.68752E-22
3.09043E-02 5.40352E-22
3.16639E-02 5.13682E-22
3.24324E-02 4.88619E-22
3.32098E-02 4.65047E-22
3.39961E-02 4.42862E-22
3.47912E-02 4.21970E-22
3.55952E-02 4.02279E-22
3.64081E-02 3.83710E-22
3.72297E-02 3.66187E-22
3.80602E-02 3.49640E-22
3.88995E-02 3.34005E-22
3.97476E-02 3.19224E-22
4.06044E-02 3.05240E-22
4.14700E-02 2.92004E-22
4.23443E-02 2.79468E-22
4.32273E-02 2.67589E-22
4.41190E-02 2.56326E-22
4.50194E-02 2.45641E-22
4.59284E-02 2.35499E-22
4.68461E-02 2.25868E-22
4.87074E-02 2.08020E-22
5.06030E-02 1.91877E-22
5.25328E-02 1.77248E-22
5.44967E-02 1.63968E-22
5.64946E-02 1.51891E-22
5.85262E-02 1.40889E-22
6.05914E-02 1.30851E-22
6.26901E-02 1.21678E-22
6.48222E-02 1.13283E-22
6.69873E-02 1.05588E-22
6.91854E-02 9.85251E-23
7.14163E-02 9.20335E-23
7.36799E-02 8.60592E-23
7.59760E-02 8.05538E-23
7.83043E-02 7.54742E-23
8.06647E-02 7.07818E-23
8.30571E-02 6.64421E-23
8.54812E-02 6.24241E-23
8.79369E-02 5.86998E-23
9.04240E-02 5.52440E-23
9.29422E-02 5.20340E-23
9.54915E-02 4.90495E-23
9.80716E-02 4.62718E-23
1.00682E-01 4.36841E-23
1.03323E-01 4.12711E-23
1.05995E-01 3.90191E-23
1.08696E-01 3.69155E-23
1.11427E-01 3.49489E-23
1.14188E-01 3.31087E-23
1.16978E-01 3.13854E-23
1.19797E-01 2.97703E-23
1.22645E-01 2.82555E-23
1.25522E-01 2.68337E-23
1.28428E-01 2.54981E-23
1.31361E-01 2.42427E-23
1.34323E-01 2.30617E-23
1.37313E-01 2.19502E-23
1.40330E-01 2.09031E-23
1.43375E-01 1.99162E-23
1.46447E-01 1.89854E-23
1.49545E-01 1.81069E-23
1.52671E-01 1.72774E-23
1.55823E-01 1.64936E-23
1.59001E-01 1.57526E-23
1.62205E-01 1.50516E-23
1.65435E-01 1.43880E-23
1.68690E-01 1.37597E-23
1.71970E-01 1.31643E-23
1.75276E-01 1.25998E-23
1.78606E-01 1.20643E-23
1.81961E-01 1.15562E-23
1.85340E-01 1.10738E-23
1.88743E-01 1.06155E-23
1.92169E-01 1.01799E-23
1.95619E-01 9.76576E-24
1.99092E-01 9.37180E-24
2.02589E-01 8.99683E-24
2.06107E-01 8.63981E-24
2.09649E-01 8.29975E-24
2.13212E-01 7.97569E-24
2.16797E-01 7.66675E-24
2.20404E-01 7.37209E-24
2.24032E-01 7.09096E-24
2.27680E-01 6.82262E-24
2.31350E-01 6.56639E-24
2.35040E-01 6.32163E-24
2.38751E-01 6.08773E-24
2.42481E-01 5.86415E-24
2.46231E-01 5.65034E-24
2.50000E-01 5.44579E-24
2.53788E-01 5.25005E-24
2.57595E-01 5.06267E-24
2.61421E-01 4.88323E-24
2.65264E-01 4.71134E-24
2.69126E-01 4.54662E-24
2.73005E-01 4.38872E-24
2.76901E-01 4.23732E-24
2.80814E-01 4.09211E-24
2.84744E-01 3.95278E-24
2.88691E-01 3.81905E-24
2.92653E-01 3.69067E-24
2.96632E-01 3.56738E-24
3.00625E-01 3.44896E-24
3.04634E-01 3.33516E-24
3.08658E-01 3.22579E-24
3.12697E-01 3.12063E-24
3.16749E-01 3.01951E-24
3.20816E-01 2.92224E-24
3.24896E-01 2.82865E-24
3.28990E-01 2.73857E-24
3.33097E-01 2.65186E-24
3.37216E-01 2.56836E-24
3.41348E-01 2.48794E-24
3.45492E-01 2.41046E-24
3.49647E-01 2.33580E-24
3.53814E-01 2.26384E-24
3.57992E-01 2.19446E-24
3.62181E-01 2.12756E-24
3.66381E-01 2.06303E-24
3.70590E-01 2.00078E-24
3.74810E-01 1.94070E-24
3.79039E-01 1.88273E-24
3.83277E-01 1.82675E-24
3.87524E-01 1.77271E-24
3.91780E-01 1.72051E-24
3.96044E-01 1.67009E-24
4.00316E-01 1.62138E-24
4.04596E-01 1.57430E-24
4.08882E-01 1.52879E-24
4.13176E-01 1.48480E-24
4.17476E-01 1.44226E-24
4.21783E-01 1.40112E-24
4.26095E-01 1.36133E-24
4.30413E-01 1.32283E-24
4.34737E-01 1.28557E-24
4.39065E-01 1.24951E-24
4.43398E-01 1.21460E-24
4.47736E-01 1.18081E-24
4.52077E-01 1.14808E-24
4.56422E-01 1.11639E-24
4.60770E-01 1.08569E-24
4.65122E-01 1.05594E-24
4.69476E-01 1.02711E-24
4.73832E-01 9.99181E-25
4.78190E-01 9.72103E-25
4.82550E-01 9.45850E-25
4.86912E-01 9.20380E-25
4.91274E-01 8.95679E-25
4.95637E-01 8.71720E-25
5.00000E-01 8.48477E-25
5.04363E-01 8.25926E-25
5.08726E-01 8.04042E-25
5.13088E-01 7.82804E-25
5.17450E-01 7.62188E-25
5.21810E-01 7.42173E-25
5.26168E-01 7.22740E-25
5.30524E-01 7.03869E-25
5.34878E-01 6.85540E-25
5.39230E-01 6.67737E-25
5.43578E-01 6.50441E-25
5.47923E-01 6.33636E-25
5.52264E-01 6.17306E-25
5.56602E-01 6.01435E-25
5.60935E-01 5.86009E-25
5.65263E-01 5.71013E-25
5.69587E-01 5.56432E-25
5.73905E-01 5.42255E-25
5.78217E-01 5.28468E-25
5.82524E-01 5.15059E-25
5.86824E-01 5.02015E-25
5.91118E-01 4.89326E-25
5.95404E-01 4.76980E-25
5.99684E-01 4.64967E-25
6.03956E-01 4.53276E-25
6.08220E-01 4.41897E-25
6.12476E-01 4.30822E-25
6.16723E-01 4.20040E-25
6.20961E-01 4.09542E-25
6.25190E-01 3.99321E-25
6.29410E-01 3.89367E-25
6.33619E-01 3.79673E-25
6.37819E-01 3.70231E-25
6.42008E-01 3.61034E-25
6.46186E-01 3.52074E-25
6.50353E-01 3.43344E-25
6.54508E-01 3.34838E-25
6.58652E-01 3.26549E-25
6.62784E-01 3.18471E-25
6.66903E-01 3.10597E-25
6.71010E-01 3.02922E-25
6.75104E-01 2.95440E-25
6.79184E-01 2.88146E-25
6.83251E-01 2.81034E-25
6.87303E-01 2.74099E-25
6.91342E-01 2.67336E-25
6.95366E-01 2.60740E-25
6.99375E-01 2.54307E-25
7.03368E-01 2.48032E-25
7.07347E-01 2.41911E-25
7.11309E-01 2.35939E-25
7.15256E-01 2.30113E-25
7.19186E-01 2.24428E-25
7.23099E-01 2.18881E-25
7.26995E-01 2.13467E-25
7.30874E-01 2.08184E-25
7.34736E-01 2.03028E-25
7.38579E-01 1.97994E-25
7.42405E-01 1.93081E-25
7.46212E-01 1.88285E-25
7.50000E-01 1.83603E-25
7.53769E-01 1.79031E-25
7.57519E-01 1.74568E-25
7.61249E-01 1.70209E-25
7.64960E-01 1.65953E-25
7.68650E-01 1.61797E-25
7.72320E-01 1.57738E-25
7.75968E-01 1.53773E-25
7.79596E-01 1.49901E-25
7.83203E-01 1.46119E-25
7.86788E-01 1.42424E-25
7.90351E-01 1.38815E-25
7.93893E-01 1.35290E-25
7.97411E-01 1.31845E-25
8.00908E-01 1.28480E-25
8.04381E-01 1.25192E-25
8.07831E-01 1.21979E-25
8.11257E-01 1.18840E-25
8.14660E-01 1.15773E-25
8.18039E-01 1.12776E-25
8.21394E-01 1.09847E-25
8.24724E-01 1.06985E-25
8.28030E-01 1.04188E-25
8.31310E-01 1.01454E-25
8.34565E-01 9.87830E-26
8.37795E-01 9.61721E-26
8.40999E-01 9.36204E-26
8.44177E-01 9.11264E-26
8.47329E-01 8.86889E-26
8.50455E-01 8.63066E-26
8.53553E-01 8.39782E-26
8.56625E-01 8.17024E-26
8.59670E-01 7.94781E-26
8.62687E-01 7.73040E-26
8.65677E-01 7.51791E-26
8.68639E-01 7.31023E-26
8.71572E-01 7.10725E-26
8.74478E-01 6.90887E-26
8.77355E-01 6.71498E-26
8.80203E-01 6.52549E-26
8.83022E-01 6.34030E-26
8.85812E-01 6.15932E-26
8.88573E-01 5.98246E-26
8.91304E-01 5.80964E-26
8.94005E-01 5.64075E-26
8.96677E-01 5.47573E-26
8.99318E-01 5.31450E-26
9.01928E-01 5.15697E-26
9.04508E-01 5.00306E-26
9.07058E-01 4.85271E-26
9.09576E-01 4.70584E-26
9.12063E-01 4.56239E-26
9.14519E-01 4.42227E-26
9.16943E-01 4.28544E-26
9.19335E-01 4.15182E-26
9.21696E-01 4.02134E-26
9.24024E-01 3.89396E-26
9.26320E-01 3.76961E-26
9.28584E-01 3.64823E-26
9.30815E-01 3.52977E-26
9.33013E-01 3.41416E-26
9.35178E-01 3.30137E-26
9.37310E-01 3.19134E-26
9.39409E-01 3.08401E-26
9.41474E-01 2.97935E-26
9.43505E-01 2.87730E-26
9.45503E-01 2.77781E-26
9.47467E-01 2.68085E-26
9.49397E-01 2.58636E-26
9.51293E-01 2.49431E-26
9.53154E-01 2.40466E-26
9.54981E-01 2.31737E-26
9.56773E-01 2.23239E-26
9.58530E-01 2.14970E-26
9.60252E-01 2.06925E-26
9.61940E-01 1.99101E-26
9.63592E-01 1.91495E-26
9.65209E-01 1.84103E-26
9.66790E-01 1.76923E-26
9.68336E-01 1.69950E-26
9.69846E-01 1.63183E-26
9.71321E-01 1.56618E-26
9.72759E-01 1.50252E-26
9.74162E-01 1.44083E-26
9.75528E-01 1.38108E-26
9.76858E-01 1.32325E-26
9.78152E-01 1.26730E-26
9.79410E-01 1.21323E-26
9.80631E-01 1.16100E-26
9.81815E-01 1.11059E-26
9.82963E-01 1.06199E-26
9.84074E-01 1.01517E-26
9.85148E-01 9.70108E-27
9.86185E-01 9.26792E-27
9.87185E-01 8.85202E-27
9.88148E-01 8.45320E-27
9.89074E-01 8.07131E-27
9.89962E-01 7.70618E-27
9.90814E-01 7.35766E-27
9.91627E-01 7.02562E-27
9.92404E-01 6.70991E-27
9.93143E-01 6.41040E-27
9.93844E-01 6.12698E-27
9.94508E-01 5.85953E-27
9.95134E-01 5.60793E-27
9.95722E-01 5.37209E-27
9.96273E-01 5.15191E-27
9.96786E-01 4.94729E-27
9.97261E-01 4.75817E-27
9.97698E-01 4.58445E-27
9.98097E-01 4.42608E-27
9.98459E-01 4.28298E-27
9.98782E-01 4.15510E-27
9.99067E-01 4.04238E-27
9.99315E-01 3.94479E-27
9.99524E-01 3.86228E-27
9.99695E-01 3.79481E-27
9.99829E-01 3.74237E-27
9.99924E-01 3.70492E-27
9.99981E-01 3.68246E-27
1.00000E+00 3.67497E-27
