 #
 # Subroutine ELSEPA. Elastic scattering of electrons and positrons
 #                    by neutral atoms and positive ions
 #
 # Projectile: positron
 # Kinetic energy = 2.50000E+07 eV = 9.18733E+05 a.u.
 #
 # WARNING: High-energy factorization with free-atom DF screening.
 #          Absorption, polarization and exchange corrections are
 #          switched off.
 #          Phase shifts are calculated for the bare nucleus.
 #          Scattering amplitudes are not evaluated.
 #
 # Element: Tl,  Z =  81,  atomic weight = 2.04383E+02 g/mol
 #
 # Nuclear model: Fermi distribution
 #                Average radius = 6.30278E-13 cm
 #                Skin thickness = 5.46000E-14 cm
 #
 # Number of electrons = 81
 #
 # Total elastic cross section = 8.28349E-18 cm**2 = 2.95809E-01 a0**2
 # 1st transport cross section = 1.58278E-23 cm**2 = 5.65222E-07 a0**2
 # 2nd transport cross section = 4.60995E-23 cm**2 = 1.64624E-06 a0**2
 #
 #
 # Differential cross section:                       MU=(1-COS(THETA))/2
 #
 #  THETA        MU          DCS          DCS        Sherman      error
 #  (deg)                 (cm**2/sr)   (a0**2/sr)    function
 #----------------------------------------------------------------------
0.00000E+00 3.67447E-11
7.61557E-13 3.67382E-11
1.18994E-12 3.67346E-11
1.71346E-12 3.67302E-11
2.33225E-12 3.67251E-11
3.04617E-12 3.67191E-11
3.85530E-12 3.67124E-11
4.75964E-12 3.67048E-11
5.75917E-12 3.66965E-11
6.85391E-12 3.66874E-11
8.04379E-12 3.66775E-11
9.32893E-12 3.66669E-11
1.07092E-11 3.66554E-11
1.21847E-11 3.66432E-11
1.37554E-11 3.66302E-11
1.54213E-11 3.66164E-11
1.71823E-11 3.66019E-11
1.90386E-11 3.65866E-11
2.09900E-11 3.65705E-11
2.30367E-11 3.65536E-11
2.51785E-11 3.65360E-11
2.74156E-11 3.65176E-11
2.97478E-11 3.64985E-11
3.21752E-11 3.64785E-11
3.46979E-11 3.64579E-11
3.73157E-11 3.64365E-11
4.00286E-11 3.64143E-11
4.28368E-11 3.63914E-11
4.57402E-11 3.63677E-11
4.87388E-11 3.63433E-11
5.18325E-11 3.63182E-11
5.50215E-11 3.62923E-11
5.83057E-11 3.62657E-11
6.16850E-11 3.62384E-11
6.51595E-11 3.62103E-11
6.87293E-11 3.61815E-11
7.23943E-11 3.61520E-11
7.61544E-11 3.61218E-11
1.18991E-10 3.57812E-11
1.71347E-10 3.53737E-11
2.33223E-10 3.49042E-11
3.04617E-10 3.43780E-11
3.85531E-10 3.38002E-11
4.75965E-10 3.31777E-11
5.75917E-10 3.25172E-11
6.85389E-10 3.18225E-11
8.04380E-10 3.11031E-11
9.32891E-10 3.03598E-11
1.07092E-09 2.96041E-11
1.21847E-09 2.88341E-11
1.37554E-09 2.80615E-11
1.54213E-09 2.72841E-11
1.71823E-09 2.65113E-11
1.90386E-09 2.57418E-11
2.09900E-09 2.49819E-11
2.30367E-09 2.42321E-11
2.51785E-09 2.34948E-11
2.74156E-09 2.27733E-11
2.97478E-09 2.20652E-11
3.21752E-09 2.13777E-11
3.46978E-09 2.07033E-11
3.73156E-09 2.00531E-11
4.00286E-09 1.94147E-11
4.28368E-09 1.88017E-11
4.57402E-09 1.82018E-11
4.87388E-09 1.76258E-11
5.18326E-09 1.70647E-11
5.50215E-09 1.65249E-11
5.83057E-09 1.60017E-11
6.16850E-09 1.54969E-11
6.51596E-09 1.50099E-11
6.87293E-09 1.45384E-11
7.23942E-09 1.40858E-11
7.61544E-09 1.36459E-11
1.18991E-08 1.00307E-11
1.71347E-08 7.49267E-12
2.33223E-08 5.68200E-12
3.04617E-08 4.36976E-12
3.85531E-08 3.37362E-12
4.75965E-08 2.64783E-12
5.75917E-08 2.12644E-12
6.85389E-08 1.70289E-12
8.04380E-08 1.39524E-12
9.32891E-08 1.13973E-12
1.07092E-07 9.49602E-13
1.21847E-07 7.91154E-13
1.37554E-07 6.68818E-13
1.54213E-07 5.67431E-13
1.71823E-07 4.86197E-13
1.90386E-07 4.18662E-13
2.09900E-07 3.62943E-13
2.30367E-07 3.16340E-13
2.51785E-07 2.76924E-13
2.74156E-07 2.43768E-13
2.97478E-07 2.15110E-13
3.21752E-07 1.90898E-13
3.46978E-07 1.69580E-13
3.73156E-07 1.51508E-13
4.00286E-07 1.35355E-13
4.28368E-07 1.21547E-13
4.57402E-07 1.09199E-13
4.87388E-07 9.84898E-14
5.18325E-07 8.89392E-14
5.50215E-07 8.05436E-14
5.83057E-07 7.30708E-14
6.16850E-07 6.64300E-14
6.51596E-07 6.05236E-14
6.87293E-07 5.52294E-14
7.23942E-07 5.05186E-14
7.61543E-07 4.62674E-14
1.18991E-06 2.11131E-14
1.71347E-06 1.10553E-14
2.33223E-06 6.36068E-15
3.04617E-06 3.92356E-15
3.85531E-06 2.54744E-15
4.75964E-06 1.72732E-15
5.75916E-06 1.21250E-15
6.85388E-06 8.76071E-16
8.04378E-06 6.48401E-16
9.32888E-06 4.90004E-16
1.07092E-05 3.77110E-16
1.21846E-05 2.94900E-16
1.37553E-05 2.33901E-16
1.54212E-05 1.87880E-16
1.71822E-05 1.52630E-16
1.90385E-05 1.25191E-16
2.09899E-05 1.03792E-16
2.30365E-05 8.67655E-17
2.51783E-05 7.30728E-17
2.74153E-05 6.19629E-17
2.97475E-05 5.28787E-17
3.21749E-05 4.53988E-17
3.46974E-05 3.92006E-17
3.73152E-05 3.40302E-17
4.00281E-05 2.96884E-17
4.28362E-05 2.60188E-17
4.57395E-05 2.28981E-17
4.87380E-05 2.02292E-17
5.18317E-05 1.79362E-17
5.50205E-05 1.59576E-17
5.83045E-05 1.42436E-17
6.16838E-05 1.27534E-17
6.51582E-05 1.14531E-17
6.87277E-05 1.03142E-17
7.23925E-05 9.31343E-18
7.61524E-05 8.43100E-18
9.21439E-05 5.79170E-18
1.09658E-04 4.10748E-18
1.28695E-04 2.99290E-18
1.49255E-04 2.23158E-18
1.71338E-04 1.69753E-18
1.94942E-04 1.31398E-18
2.20070E-04 1.03283E-18
2.46720E-04 8.22967E-19
2.74892E-04 6.63764E-19
3.04586E-04 5.41233E-19
3.35803E-04 4.45693E-19
3.68542E-04 3.70313E-19
4.02802E-04 3.10199E-19
4.38585E-04 2.61790E-19
4.75889E-04 2.22452E-19
5.14715E-04 1.90225E-19
5.55063E-04 1.63618E-19
5.96931E-04 1.41498E-19
6.40321E-04 1.22986E-19
6.85233E-04 1.07399E-19
7.31665E-04 9.42003E-20
7.79618E-04 8.29639E-20
8.29092E-04 7.33509E-20
8.80086E-04 6.50875E-20
9.32601E-04 5.79531E-20
9.86636E-04 5.17677E-20
1.04219E-03 4.63839E-20
1.09927E-03 4.16804E-20
1.15786E-03 3.75567E-20
1.21797E-03 3.39292E-20
1.27961E-03 3.07282E-20
1.34276E-03 2.78948E-20
1.40743E-03 2.53797E-20
1.47362E-03 2.31409E-20
1.54133E-03 2.11430E-20
1.61056E-03 1.93554E-20
1.68131E-03 1.77522E-20
1.75357E-03 1.63110E-20
1.82735E-03 1.50127E-20
1.90265E-03 1.38407E-20
1.97947E-03 1.27804E-20
2.05780E-03 1.18194E-20
2.13765E-03 1.09468E-20
2.21902E-03 1.01529E-20
2.30190E-03 9.42940E-21
2.38630E-03 8.76900E-21
2.47222E-03 8.16521E-21
2.55965E-03 7.61231E-21
2.64859E-03 7.10524E-21
2.73905E-03 6.63954E-21
2.83103E-03 6.21122E-21
2.92452E-03 5.81675E-21
3.01952E-03 5.45297E-21
3.11604E-03 5.11707E-21
3.21407E-03 4.80654E-21
3.31362E-03 4.51911E-21
3.41468E-03 4.25275E-21
3.51725E-03 4.00564E-21
3.62133E-03 3.77614E-21
3.72692E-03 3.56277E-21
3.83403E-03 3.36419E-21
3.94265E-03 3.17920E-21
4.05278E-03 3.00668E-21
4.16442E-03 2.84566E-21
4.27757E-03 2.69521E-21
4.39223E-03 2.55453E-21
4.50840E-03 2.42287E-21
4.62608E-03 2.29954E-21
4.74527E-03 2.18391E-21
4.86597E-03 2.07543E-21
4.98817E-03 1.97356E-21
5.11188E-03 1.87783E-21
5.23711E-03 1.78781E-21
5.36383E-03 1.70309E-21
5.49207E-03 1.62330E-21
5.62181E-03 1.54810E-21
5.75306E-03 1.47719E-21
5.88581E-03 1.41026E-21
6.02007E-03 1.34706E-21
6.15583E-03 1.28734E-21
6.29310E-03 1.23088E-21
6.43187E-03 1.17745E-21
6.57214E-03 1.12688E-21
6.71392E-03 1.07898E-21
6.85720E-03 1.03358E-21
7.00198E-03 9.90530E-22
7.14827E-03 9.49683E-22
7.29605E-03 9.10908E-22
7.44534E-03 8.74078E-22
7.59612E-03 8.39079E-22
7.97965E-03 7.58901E-22
8.37255E-03 6.88018E-22
8.77480E-03 6.25168E-22
9.18641E-03 5.69288E-22
9.60736E-03 5.19473E-22
1.00376E-02 4.74953E-22
1.04773E-02 4.35068E-22
1.09262E-02 3.99255E-22
1.13844E-02 3.67024E-22
1.18520E-02 3.37958E-22
1.23288E-02 3.11691E-22
1.28150E-02 2.87907E-22
1.33104E-02 2.66331E-22
1.38150E-02 2.46723E-22
1.43290E-02 2.28871E-22
1.48521E-02 2.12593E-22
1.53845E-02 1.97722E-22
1.59262E-02 1.84120E-22
1.64770E-02 1.71655E-22
1.70371E-02 1.60219E-22
1.76063E-02 1.49711E-22
1.81848E-02 1.40042E-22
1.87724E-02 1.31133E-22
1.93692E-02 1.22915E-22
1.99751E-02 1.15325E-22
2.05901E-02 1.08305E-22
2.12143E-02 1.01806E-22
2.18476E-02 9.57824E-23
2.24900E-02 9.01929E-23
2.31415E-02 8.50008E-23
2.38021E-02 8.01729E-23
2.44717E-02 7.56792E-23
2.51504E-02 7.14923E-23
2.58382E-02 6.75878E-23
2.65349E-02 6.39430E-23
2.72407E-02 6.05378E-23
2.79555E-02 5.73535E-23
2.86793E-02 5.43734E-23
2.94120E-02 5.15819E-23
3.01537E-02 4.89651E-23
3.09043E-02 4.65100E-23
3.16639E-02 4.42049E-23
3.24324E-02 4.20390E-23
3.32098E-02 4.00024E-23
3.39961E-02 3.80860E-23
3.47912E-02 3.62814E-23
3.55952E-02 3.45811E-23
3.64081E-02 3.29779E-23
3.72297E-02 3.14652E-23
3.80602E-02 3.00371E-23
3.88995E-02 2.86880E-23
3.97476E-02 2.74128E-23
4.06044E-02 2.62067E-23
4.14700E-02 2.50655E-23
4.23443E-02 2.39841E-23
4.32273E-02 2.29593E-23
4.41190E-02 2.19878E-23
4.50194E-02 2.10664E-23
4.59284E-02 2.01919E-23
4.68461E-02 1.93616E-23
4.87074E-02 1.78232E-23
5.06030E-02 1.64322E-23
5.25328E-02 1.51720E-23
5.44967E-02 1.40284E-23
5.64946E-02 1.29887E-23
5.85262E-02 1.20419E-23
6.05914E-02 1.11783E-23
6.26901E-02 1.03893E-23
6.48222E-02 9.66742E-24
6.69873E-02 9.00598E-24
6.91854E-02 8.39907E-24
7.14163E-02 7.84142E-24
7.36799E-02 7.32836E-24
7.59760E-02 6.85573E-24
7.83043E-02 6.41979E-24
8.06647E-02 6.01721E-24
8.30571E-02 5.64502E-24
8.54812E-02 5.30053E-24
8.79369E-02 4.98133E-24
9.04240E-02 4.68524E-24
9.29422E-02 4.41031E-24
9.54915E-02 4.15478E-24
9.80716E-02 3.91704E-24
1.00682E-01 3.69564E-24
1.03323E-01 3.48927E-24
1.05995E-01 3.29674E-24
1.08696E-01 3.11696E-24
1.11427E-01 2.94895E-24
1.14188E-01 2.79180E-24
1.16978E-01 2.64470E-24
1.19797E-01 2.50688E-24
1.22645E-01 2.37768E-24
1.25522E-01 2.25645E-24
1.28428E-01 2.14263E-24
1.31361E-01 2.03568E-24
1.34323E-01 1.93512E-24
1.37313E-01 1.84050E-24
1.40330E-01 1.75141E-24
1.43375E-01 1.66748E-24
1.46447E-01 1.58836E-24
1.49545E-01 1.51372E-24
1.52671E-01 1.44327E-24
1.55823E-01 1.37674E-24
1.59001E-01 1.31386E-24
1.62205E-01 1.25441E-24
1.65435E-01 1.19816E-24
1.68690E-01 1.14492E-24
1.71970E-01 1.09450E-24
1.75276E-01 1.04672E-24
1.78606E-01 1.00142E-24
1.81961E-01 9.58457E-25
1.85340E-01 9.17683E-25
1.88743E-01 8.78970E-25
1.92169E-01 8.42196E-25
1.95619E-01 8.07249E-25
1.99092E-01 7.74022E-25
2.02589E-01 7.42417E-25
2.06107E-01 7.12342E-25
2.09649E-01 6.83709E-25
2.13212E-01 6.56440E-25
2.16797E-01 6.30457E-25
2.20404E-01 6.05690E-25
2.24032E-01 5.82074E-25
2.27680E-01 5.59545E-25
2.31350E-01 5.38045E-25
2.35040E-01 5.17521E-25
2.38751E-01 4.97919E-25
2.42481E-01 4.79193E-25
2.46231E-01 4.61295E-25
2.50000E-01 4.44185E-25
2.53788E-01 4.27821E-25
2.57595E-01 4.12166E-25
2.61421E-01 3.97183E-25
2.65264E-01 3.82840E-25
2.69126E-01 3.69105E-25
2.73005E-01 3.55947E-25
2.76901E-01 3.43339E-25
2.80814E-01 3.31253E-25
2.84744E-01 3.19665E-25
2.88691E-01 3.08551E-25
2.92653E-01 2.97889E-25
2.96632E-01 2.87656E-25
3.00625E-01 2.77834E-25
3.04634E-01 2.68402E-25
3.08658E-01 2.59343E-25
3.12697E-01 2.50640E-25
3.16749E-01 2.42276E-25
3.20816E-01 2.34237E-25
3.24896E-01 2.26507E-25
3.28990E-01 2.19073E-25
3.33097E-01 2.11922E-25
3.37216E-01 2.05041E-25
3.41348E-01 1.98418E-25
3.45492E-01 1.92043E-25
3.49647E-01 1.85904E-25
3.53814E-01 1.79991E-25
3.57992E-01 1.74296E-25
3.62181E-01 1.68807E-25
3.66381E-01 1.63518E-25
3.70590E-01 1.58419E-25
3.74810E-01 1.53502E-25
3.79039E-01 1.48760E-25
3.83277E-01 1.44187E-25
3.87524E-01 1.39774E-25
3.91780E-01 1.35515E-25
3.96044E-01 1.31405E-25
4.00316E-01 1.27437E-25
4.04596E-01 1.23605E-25
4.08882E-01 1.19905E-25
4.13176E-01 1.16330E-25
4.17476E-01 1.12876E-25
4.21783E-01 1.09539E-25
4.26095E-01 1.06314E-25
4.30413E-01 1.03196E-25
4.34737E-01 1.00181E-25
4.39065E-01 9.72655E-26
4.43398E-01 9.44458E-26
4.47736E-01 9.17181E-26
4.52077E-01 8.90790E-26
4.56422E-01 8.65251E-26
4.60770E-01 8.40533E-26
4.65122E-01 8.16605E-26
4.69476E-01 7.93439E-26
4.73832E-01 7.71007E-26
4.78190E-01 7.49282E-26
4.82550E-01 7.28238E-26
4.86912E-01 7.07852E-26
4.91274E-01 6.88098E-26
4.95637E-01 6.68956E-26
5.00000E-01 6.50403E-26
5.04363E-01 6.32418E-26
5.08726E-01 6.14981E-26
5.13088E-01 5.98074E-26
5.17450E-01 5.81678E-26
5.21810E-01 5.65776E-26
5.26168E-01 5.50349E-26
5.30524E-01 5.35383E-26
5.34878E-01 5.20861E-26
5.39230E-01 5.06768E-26
5.43578E-01 4.93090E-26
5.47923E-01 4.79813E-26
5.52264E-01 4.66923E-26
5.56602E-01 4.54408E-26
5.60935E-01 4.42255E-26
5.65263E-01 4.30452E-26
5.69587E-01 4.18988E-26
5.73905E-01 4.07851E-26
5.78217E-01 3.97032E-26
5.82524E-01 3.86519E-26
5.86824E-01 3.76303E-26
5.91118E-01 3.66375E-26
5.95404E-01 3.56724E-26
5.99684E-01 3.47343E-26
6.03956E-01 3.38223E-26
6.08220E-01 3.29355E-26
6.12476E-01 3.20732E-26
6.16723E-01 3.12346E-26
6.20961E-01 3.04190E-26
6.25190E-01 2.96256E-26
6.29410E-01 2.88538E-26
6.33619E-01 2.81029E-26
6.37819E-01 2.73722E-26
6.42008E-01 2.66612E-26
6.46186E-01 2.59692E-26
6.50353E-01 2.52957E-26
6.54508E-01 2.46402E-26
6.58652E-01 2.40020E-26
6.62784E-01 2.33807E-26
6.66903E-01 2.27757E-26
6.71010E-01 2.21867E-26
6.75104E-01 2.16130E-26
6.79184E-01 2.10543E-26
6.83251E-01 2.05102E-26
6.87303E-01 1.99801E-26
6.91342E-01 1.94637E-26
6.95366E-01 1.89606E-26
6.99375E-01 1.84705E-26
7.03368E-01 1.79929E-26
7.07347E-01 1.75274E-26
7.11309E-01 1.70738E-26
7.15256E-01 1.66318E-26
7.19186E-01 1.62009E-26
7.23099E-01 1.57808E-26
7.26995E-01 1.53714E-26
7.30874E-01 1.49722E-26
7.34736E-01 1.45830E-26
7.38579E-01 1.42035E-26
7.42405E-01 1.38334E-26
7.46212E-01 1.34726E-26
7.50000E-01 1.31206E-26
7.53769E-01 1.27774E-26
7.57519E-01 1.24426E-26
7.61249E-01 1.21161E-26
7.64960E-01 1.17975E-26
7.68650E-01 1.14868E-26
7.72320E-01 1.11836E-26
7.75968E-01 1.08878E-26
7.79596E-01 1.05992E-26
7.83203E-01 1.03176E-26
7.86788E-01 1.00428E-26
7.90351E-01 9.77470E-27
7.93893E-01 9.51302E-27
7.97411E-01 9.25764E-27
8.00908E-01 9.00840E-27
8.04381E-01 8.76514E-27
8.07831E-01 8.52770E-27
8.11257E-01 8.29594E-27
8.14660E-01 8.06971E-27
8.18039E-01 7.84888E-27
8.21394E-01 7.63330E-27
8.24724E-01 7.42285E-27
8.28030E-01 7.21739E-27
8.31310E-01 7.01681E-27
8.34565E-01 6.82098E-27
8.37795E-01 6.62979E-27
8.40999E-01 6.44312E-27
8.44177E-01 6.26086E-27
8.47329E-01 6.08291E-27
8.50455E-01 5.90916E-27
8.53553E-01 5.73951E-27
8.56625E-01 5.57386E-27
8.59670E-01 5.41212E-27
8.62687E-01 5.25419E-27
8.65677E-01 5.09998E-27
8.68639E-01 4.94941E-27
8.71572E-01 4.80239E-27
8.74478E-01 4.65884E-27
8.77355E-01 4.51868E-27
8.80203E-01 4.38182E-27
8.83022E-01 4.24821E-27
8.85812E-01 4.11775E-27
8.88573E-01 3.99038E-27
8.91304E-01 3.86604E-27
8.94005E-01 3.74464E-27
8.96677E-01 3.62614E-27
8.99318E-01 3.51045E-27
9.01928E-01 3.39753E-27
9.04508E-01 3.28731E-27
9.07058E-01 3.17972E-27
9.09576E-01 3.07473E-27
9.12063E-01 2.97226E-27
9.14519E-01 2.87227E-27
9.16943E-01 2.77471E-27
9.19335E-01 2.67951E-27
9.21696E-01 2.58664E-27
9.24024E-01 2.49605E-27
9.26320E-01 2.40769E-27
9.28584E-01 2.32151E-27
9.30815E-01 2.23747E-27
9.33013E-01 2.15552E-27
9.35178E-01 2.07563E-27
9.37310E-01 1.99776E-27
9.39409E-01 1.92187E-27
9.41474E-01 1.84791E-27
9.43505E-01 1.77585E-27
9.45503E-01 1.70566E-27
9.47467E-01 1.63730E-27
9.49397E-01 1.57074E-27
9.51293E-01 1.50594E-27
9.53154E-01 1.44287E-27
9.54981E-01 1.38150E-27
9.56773E-01 1.32181E-27
9.58530E-01 1.26375E-27
9.60252E-01 1.20732E-27
9.61940E-01 1.15246E-27
9.63592E-01 1.09917E-27
9.65209E-01 1.04742E-27
9.66790E-01 9.97170E-28
9.68336E-01 9.48410E-28
9.69846E-01 9.01112E-28
9.71321E-01 8.55255E-28
9.72759E-01 8.10816E-28
9.74162E-01 7.67775E-28
9.75528E-01 7.26110E-28
9.76858E-01 6.85803E-28
9.78152E-01 6.46835E-28
9.79410E-01 6.09187E-28
9.80631E-01 5.72842E-28
9.81815E-01 5.37782E-28
9.82963E-01 5.03992E-28
9.84074E-01 4.71455E-28
9.85148E-01 4.40157E-28
9.86185E-01 4.10083E-28
9.87185E-01 3.81219E-28
9.88148E-01 3.53552E-28
9.89074E-01 3.27069E-28
9.89962E-01 3.01758E-28
9.90814E-01 2.77607E-28
9.91627E-01 2.54605E-28
9.92404E-01 2.32742E-28
9.93143E-01 2.12008E-28
9.93844E-01 1.92393E-28
9.94508E-01 1.73888E-28
9.95134E-01 1.56485E-28
9.95722E-01 1.40176E-28
9.96273E-01 1.24954E-28
9.96786E-01 1.10811E-28
9.97261E-01 9.77408E-29
9.97698E-01 8.57381E-29
9.98097E-01 7.47973E-29
9.98459E-01 6.49133E-29
9.98782E-01 5.60816E-29
9.99067E-01 4.82984E-29
9.99315E-01 4.15600E-29
9.99524E-01 3.58634E-29
9.99695E-01 3.12061E-29
9.99829E-01 2.75859E-29
9.99924E-01 2.50012E-29
9.99981E-01 2.34508E-29
1.00000E+00 2.29341E-29
