 #
 # Subroutine ELSEPA. Elastic scattering of electrons and positrons
 #                    by neutral atoms and positive ions
 #
 # Projectile: positron
 # Kinetic energy = 3.50000E+07 eV = 1.28623E+06 a.u.
 #
 # WARNING: High-energy factorization with free-atom DF screening.
 #          Absorption, polarization and exchange corrections are
 #          switched off.
 #          Phase shifts are calculated for the bare nucleus.
 #          Scattering amplitudes are not evaluated.
 #
 # Element: Tl,  Z =  81,  atomic weight = 2.04383E+02 g/mol
 #
 # Nuclear model: Fermi distribution
 #                Average radius = 6.30278E-13 cm
 #                Skin thickness = 5.46000E-14 cm
 #
 # Number of electrons = 81
 #
 # Total elastic cross section = 8.28210E-18 cm**2 = 2.95759E-01 a0**2
 # 1st transport cross section = 8.57026E-24 cm**2 = 3.06050E-07 a0**2
 # 2nd transport cross section = 2.50421E-23 cm**2 = 8.94271E-07 a0**2
 #
 #
 # Differential cross section:                       MU=(1-COS(THETA))/2
 #
 #  THETA        MU          DCS          DCS        Sherman      error
 #  (deg)                 (cm**2/sr)   (a0**2/sr)    function
 #----------------------------------------------------------------------
0.00000E+00 7.11976E-11
7.61557E-13 7.11735E-11
1.18994E-12 7.11600E-11
1.71346E-12 7.11436E-11
2.33225E-12 7.11243E-11
3.04617E-12 7.11020E-11
3.85530E-12 7.10767E-11
4.75964E-12 7.10486E-11
5.75917E-12 7.10174E-11
6.85391E-12 7.09834E-11
8.04379E-12 7.09465E-11
9.32893E-12 7.09066E-11
1.07092E-11 7.08639E-11
1.21847E-11 7.08182E-11
1.37554E-11 7.07697E-11
1.54213E-11 7.07184E-11
1.71823E-11 7.06642E-11
1.90386E-11 7.06071E-11
2.09900E-11 7.05473E-11
2.30367E-11 7.04846E-11
2.51785E-11 7.04191E-11
2.74156E-11 7.03509E-11
2.97478E-11 7.02799E-11
3.21752E-11 7.02062E-11
3.46979E-11 7.01297E-11
3.73157E-11 7.00506E-11
4.00286E-11 6.99688E-11
4.28368E-11 6.98842E-11
4.57402E-11 6.97971E-11
4.87388E-11 6.97073E-11
5.18325E-11 6.96150E-11
5.50215E-11 6.95200E-11
5.83057E-11 6.94225E-11
6.16850E-11 6.93225E-11
6.51595E-11 6.92199E-11
6.87293E-11 6.91149E-11
7.23943E-11 6.90074E-11
7.61544E-11 6.88974E-11
1.18991E-10 6.76697E-11
1.71347E-10 6.62283E-11
2.33223E-10 6.46016E-11
3.04617E-10 6.28255E-11
3.85531E-10 6.09288E-11
4.75965E-10 5.89410E-11
5.75917E-10 5.68963E-11
6.85389E-10 5.48140E-11
8.04380E-10 5.27201E-11
9.32891E-10 5.06403E-11
1.07092E-09 4.85786E-11
1.21847E-09 4.65583E-11
1.37554E-09 4.45944E-11
1.54213E-09 4.26763E-11
1.71823E-09 4.08283E-11
1.90386E-09 3.90520E-11
2.09900E-09 3.73359E-11
2.30367E-09 3.56982E-11
2.51785E-09 3.41322E-11
2.74156E-09 3.26300E-11
2.97478E-09 3.12040E-11
3.21752E-09 2.98422E-11
3.46978E-09 2.85423E-11
3.73156E-09 2.73117E-11
4.00286E-09 2.61350E-11
4.28368E-09 2.50159E-11
4.57402E-09 2.39577E-11
4.87388E-09 2.29430E-11
5.18326E-09 2.19809E-11
5.50215E-09 2.10711E-11
5.83057E-09 2.01959E-11
6.16850E-09 1.93680E-11
6.51596E-09 1.85825E-11
6.87293E-09 1.78282E-11
7.23942E-09 1.71143E-11
7.61544E-09 1.64344E-11
1.18991E-08 1.11277E-11
1.71347E-08 7.74157E-12
2.33223E-08 5.43955E-12
3.04617E-08 3.99046E-12
3.85531E-08 2.96488E-12
4.75965E-08 2.24232E-12
5.75917E-08 1.73603E-12
6.85389E-08 1.35969E-12
8.04380E-08 1.08253E-12
9.32891E-08 8.76092E-13
1.07092E-07 7.14927E-13
1.21847E-07 5.90579E-13
1.37554E-07 4.93334E-13
1.54213E-07 4.13924E-13
1.71823E-07 3.50464E-13
1.90386E-07 2.98801E-13
2.09900E-07 2.55655E-13
2.30367E-07 2.20184E-13
2.51785E-07 1.90506E-13
2.74156E-07 1.65402E-13
2.97478E-07 1.44351E-13
3.21752E-07 1.26418E-13
3.46978E-07 1.11115E-13
3.73156E-07 9.80861E-14
4.00286E-07 8.68463E-14
4.28368E-07 7.71895E-14
4.57402E-07 6.88669E-14
4.87388E-07 6.15600E-14
5.18325E-07 5.52173E-14
5.50215E-07 4.96920E-14
5.83057E-07 4.48383E-14
6.16850E-07 4.05837E-14
6.51596E-07 3.68362E-14
6.87293E-07 3.35128E-14
7.23942E-07 3.05676E-14
7.61543E-07 2.79440E-14
1.18991E-06 1.25822E-14
1.71347E-06 6.49802E-15
2.33223E-06 3.68480E-15
3.04617E-06 2.24529E-15
3.85531E-06 1.44411E-15
4.75964E-06 9.70705E-16
5.75916E-06 6.75996E-16
6.85388E-06 4.84967E-16
8.04378E-06 3.56903E-16
9.32888E-06 2.68399E-16
1.07092E-05 2.05740E-16
1.21846E-05 1.60363E-16
1.37553E-05 1.26839E-16
1.54212E-05 1.01649E-16
1.71822E-05 8.24129E-17
1.90385E-05 6.74781E-17
2.09899E-05 5.58519E-17
2.30365E-05 4.66117E-17
2.51783E-05 3.91926E-17
2.74153E-05 3.31806E-17
2.97475E-05 2.82717E-17
3.21749E-05 2.42366E-17
3.46974E-05 2.08967E-17
3.73152E-05 1.81146E-17
4.00281E-05 1.57818E-17
4.28362E-05 1.38127E-17
4.57395E-05 1.21409E-17
4.87380E-05 1.07134E-17
5.18317E-05 9.48865E-18
5.50205E-05 8.43334E-18
5.83045E-05 7.52028E-18
6.16838E-05 6.72748E-18
6.51582E-05 6.03655E-18
6.87277E-05 5.43219E-18
7.23925E-05 4.90171E-18
7.61524E-05 4.43441E-18
9.21439E-05 3.03973E-18
1.09658E-04 2.15241E-18
1.28695E-04 1.56650E-18
1.49255E-04 1.16693E-18
1.71338E-04 8.86984E-19
1.94942E-04 6.86117E-19
2.20070E-04 5.38992E-19
2.46720E-04 4.29237E-19
2.74892E-04 3.46026E-19
3.04586E-04 2.82015E-19
3.35803E-04 2.32127E-19
3.68542E-04 1.92785E-19
4.02802E-04 1.61424E-19
4.38585E-04 1.36179E-19
4.75889E-04 1.15674E-19
5.14715E-04 9.88813E-20
5.55063E-04 8.50226E-20
5.96931E-04 7.35048E-20
6.40321E-04 6.38693E-20
6.85233E-04 5.57591E-20
7.31665E-04 4.88938E-20
7.79618E-04 4.30509E-20
8.29092E-04 3.80537E-20
8.80086E-04 3.37592E-20
9.32601E-04 3.00525E-20
9.86636E-04 2.68397E-20
1.04219E-03 2.40439E-20
1.09927E-03 2.16020E-20
1.15786E-03 1.94615E-20
1.21797E-03 1.75791E-20
1.27961E-03 1.59182E-20
1.34276E-03 1.44484E-20
1.40743E-03 1.31440E-20
1.47362E-03 1.19830E-20
1.54133E-03 1.09471E-20
1.61056E-03 1.00205E-20
1.68131E-03 9.18950E-21
1.75357E-03 8.44267E-21
1.82735E-03 7.76994E-21
1.90265E-03 7.16269E-21
1.97947E-03 6.61343E-21
2.05780E-03 6.11565E-21
2.13765E-03 5.66368E-21
2.21902E-03 5.25255E-21
2.30190E-03 4.87794E-21
2.38630E-03 4.53601E-21
2.47222E-03 4.22342E-21
2.55965E-03 3.93720E-21
2.64859E-03 3.67473E-21
2.73905E-03 3.43368E-21
2.83103E-03 3.21201E-21
2.92452E-03 3.00787E-21
3.01952E-03 2.81962E-21
3.11604E-03 2.64582E-21
3.21407E-03 2.48515E-21
3.31362E-03 2.33644E-21
3.41468E-03 2.19864E-21
3.51725E-03 2.07081E-21
3.62133E-03 1.95209E-21
3.72692E-03 1.84172E-21
3.83403E-03 1.73901E-21
3.94265E-03 1.64333E-21
4.05278E-03 1.55411E-21
4.16442E-03 1.47083E-21
4.27757E-03 1.39303E-21
4.39223E-03 1.32028E-21
4.50840E-03 1.25220E-21
4.62608E-03 1.18842E-21
4.74527E-03 1.12864E-21
4.86597E-03 1.07255E-21
4.98817E-03 1.01988E-21
5.11188E-03 9.70388E-22
5.23711E-03 9.23845E-22
5.36383E-03 8.80045E-22
5.49207E-03 8.38796E-22
5.62181E-03 7.99924E-22
5.75306E-03 7.63263E-22
5.88581E-03 7.28667E-22
6.02007E-03 6.95997E-22
6.15583E-03 6.65129E-22
6.29310E-03 6.35942E-22
6.43187E-03 6.08329E-22
6.57214E-03 5.82189E-22
6.71392E-03 5.57430E-22
6.85720E-03 5.33966E-22
7.00198E-03 5.11715E-22
7.14827E-03 4.90604E-22
7.29605E-03 4.70562E-22
7.44534E-03 4.51528E-22
7.59612E-03 4.33441E-22
7.97965E-03 3.92004E-22
8.37255E-03 3.55374E-22
8.77480E-03 3.22896E-22
9.18641E-03 2.94019E-22
9.60736E-03 2.68279E-22
1.00376E-02 2.45274E-22
1.04773E-02 2.24666E-22
1.09262E-02 2.06161E-22
1.13844E-02 1.89508E-22
1.18520E-02 1.74490E-22
1.23288E-02 1.60919E-22
1.28150E-02 1.48631E-22
1.33104E-02 1.37485E-22
1.38150E-02 1.27355E-22
1.43290E-02 1.18133E-22
1.48521E-02 1.09723E-22
1.53845E-02 1.02041E-22
1.59262E-02 9.50142E-23
1.64770E-02 8.85761E-23
1.70371E-02 8.26688E-23
1.76063E-02 7.72410E-23
1.81848E-02 7.22471E-23
1.87724E-02 6.76462E-23
1.93692E-02 6.34021E-23
1.99751E-02 5.94824E-23
2.05901E-02 5.58580E-23
2.12143E-02 5.25031E-23
2.18476E-02 4.93923E-23
2.24900E-02 4.65048E-23
2.31415E-02 4.38228E-23
2.38021E-02 4.13290E-23
2.44717E-02 3.90079E-23
2.51504E-02 3.68455E-23
2.58382E-02 3.48289E-23
2.65349E-02 3.29465E-23
2.72407E-02 3.11880E-23
2.79555E-02 2.95436E-23
2.86793E-02 2.80048E-23
2.94120E-02 2.65634E-23
3.01537E-02 2.52122E-23
3.09043E-02 2.39447E-23
3.16639E-02 2.27546E-23
3.24324E-02 2.16364E-23
3.32098E-02 2.05851E-23
3.39961E-02 1.95959E-23
3.47912E-02 1.86644E-23
3.55952E-02 1.77868E-23
3.64081E-02 1.69593E-23
3.72297E-02 1.61786E-23
3.80602E-02 1.54416E-23
3.88995E-02 1.47453E-23
3.97476E-02 1.40872E-23
4.06044E-02 1.34648E-23
4.14700E-02 1.28758E-23
4.23443E-02 1.23180E-23
4.32273E-02 1.17896E-23
4.41190E-02 1.12887E-23
4.50194E-02 1.08136E-23
4.59284E-02 1.03628E-23
4.68461E-02 9.93481E-24
4.87074E-02 9.14187E-24
5.06030E-02 8.42502E-24
5.25328E-02 7.77573E-24
5.44967E-02 7.18658E-24
5.64946E-02 6.65107E-24
5.85262E-02 6.16349E-24
6.05914E-02 5.71885E-24
6.26901E-02 5.31272E-24
6.48222E-02 4.94122E-24
6.69873E-02 4.60089E-24
6.91854E-02 4.28870E-24
7.14163E-02 4.00191E-24
7.36799E-02 3.73812E-24
7.59760E-02 3.49518E-24
7.83043E-02 3.27116E-24
8.06647E-02 3.06434E-24
8.30571E-02 2.87318E-24
8.54812E-02 2.69631E-24
8.79369E-02 2.53246E-24
9.04240E-02 2.38052E-24
9.29422E-02 2.23949E-24
9.54915E-02 2.10845E-24
9.80716E-02 1.98657E-24
1.00682E-01 1.87311E-24
1.03323E-01 1.76739E-24
1.05995E-01 1.66879E-24
1.08696E-01 1.57675E-24
1.11427E-01 1.49077E-24
1.14188E-01 1.41038E-24
1.16978E-01 1.33515E-24
1.19797E-01 1.26470E-24
1.22645E-01 1.19868E-24
1.25522E-01 1.13676E-24
1.28428E-01 1.07865E-24
1.31361E-01 1.02407E-24
1.34323E-01 9.72767E-25
1.37313E-01 9.24521E-25
1.40330E-01 8.79115E-25
1.43375E-01 8.36356E-25
1.46447E-01 7.96064E-25
1.49545E-01 7.58073E-25
1.52671E-01 7.22231E-25
1.55823E-01 6.88395E-25
1.59001E-01 6.56436E-25
1.62205E-01 6.26233E-25
1.65435E-01 5.97673E-25
1.68690E-01 5.70652E-25
1.71970E-01 5.45074E-25
1.75276E-01 5.20850E-25
1.78606E-01 4.97896E-25
1.81961E-01 4.76135E-25
1.85340E-01 4.55495E-25
1.88743E-01 4.35909E-25
1.92169E-01 4.17315E-25
1.95619E-01 3.99654E-25
1.99092E-01 3.82872E-25
2.02589E-01 3.66918E-25
2.06107E-01 3.51744E-25
2.09649E-01 3.37308E-25
2.13212E-01 3.23566E-25
2.16797E-01 3.10481E-25
2.20404E-01 2.98016E-25
2.24032E-01 2.86136E-25
2.27680E-01 2.74811E-25
2.31350E-01 2.64010E-25
2.35040E-01 2.53706E-25
2.38751E-01 2.43871E-25
2.42481E-01 2.34481E-25
2.46231E-01 2.25512E-25
2.50000E-01 2.16944E-25
2.53788E-01 2.08755E-25
2.57595E-01 2.00925E-25
2.61421E-01 1.93437E-25
2.65264E-01 1.86274E-25
2.69126E-01 1.79418E-25
2.73005E-01 1.72856E-25
2.76901E-01 1.66572E-25
2.80814E-01 1.60553E-25
2.84744E-01 1.54785E-25
2.88691E-01 1.49258E-25
2.92653E-01 1.43959E-25
2.96632E-01 1.38877E-25
3.00625E-01 1.34002E-25
3.04634E-01 1.29325E-25
3.08658E-01 1.24836E-25
3.12697E-01 1.20526E-25
3.16749E-01 1.16388E-25
3.20816E-01 1.12413E-25
3.24896E-01 1.08595E-25
3.28990E-01 1.04925E-25
3.33097E-01 1.01397E-25
3.37216E-01 9.80055E-26
3.41348E-01 9.47439E-26
3.45492E-01 9.16064E-26
3.49647E-01 8.85878E-26
3.53814E-01 8.56828E-26
3.57992E-01 8.28865E-26
3.62181E-01 8.01943E-26
3.66381E-01 7.76017E-26
3.70590E-01 7.51045E-26
3.74810E-01 7.26987E-26
3.79039E-01 7.03805E-26
3.83277E-01 6.81461E-26
3.87524E-01 6.59922E-26
3.91780E-01 6.39154E-26
3.96044E-01 6.19125E-26
4.00316E-01 5.99806E-26
4.04596E-01 5.81168E-26
4.08882E-01 5.63183E-26
4.13176E-01 5.45825E-26
4.17476E-01 5.29070E-26
4.21783E-01 5.12893E-26
4.26095E-01 4.97271E-26
4.30413E-01 4.82184E-26
4.34737E-01 4.67609E-26
4.39065E-01 4.53528E-26
4.43398E-01 4.39921E-26
4.47736E-01 4.26769E-26
4.52077E-01 4.14057E-26
4.56422E-01 4.01766E-26
4.60770E-01 3.89881E-26
4.65122E-01 3.78387E-26
4.69476E-01 3.67269E-26
4.73832E-01 3.56514E-26
4.78190E-01 3.46107E-26
4.82550E-01 3.36036E-26
4.86912E-01 3.26288E-26
4.91274E-01 3.16853E-26
4.95637E-01 3.07718E-26
5.00000E-01 2.98872E-26
5.04363E-01 2.90306E-26
5.08726E-01 2.82009E-26
5.13088E-01 2.73972E-26
5.17450E-01 2.66185E-26
5.21810E-01 2.58640E-26
5.26168E-01 2.51328E-26
5.30524E-01 2.44240E-26
5.34878E-01 2.37371E-26
5.39230E-01 2.30710E-26
5.43578E-01 2.24252E-26
5.47923E-01 2.17990E-26
5.52264E-01 2.11917E-26
5.56602E-01 2.06026E-26
5.60935E-01 2.00311E-26
5.65263E-01 1.94766E-26
5.69587E-01 1.89386E-26
5.73905E-01 1.84165E-26
5.78217E-01 1.79098E-26
5.82524E-01 1.74179E-26
5.86824E-01 1.69404E-26
5.91118E-01 1.64769E-26
5.95404E-01 1.60267E-26
5.99684E-01 1.55896E-26
6.03956E-01 1.51651E-26
6.08220E-01 1.47528E-26
6.12476E-01 1.43522E-26
6.16723E-01 1.39631E-26
6.20961E-01 1.35850E-26
6.25190E-01 1.32176E-26
6.29410E-01 1.28606E-26
6.33619E-01 1.25136E-26
6.37819E-01 1.21763E-26
6.42008E-01 1.18485E-26
6.46186E-01 1.15297E-26
6.50353E-01 1.12198E-26
6.54508E-01 1.09185E-26
6.58652E-01 1.06255E-26
6.62784E-01 1.03405E-26
6.66903E-01 1.00633E-26
6.71010E-01 9.79370E-27
6.75104E-01 9.53141E-27
6.79184E-01 9.27624E-27
6.83251E-01 9.02796E-27
6.87303E-01 8.78638E-27
6.91342E-01 8.55130E-27
6.95366E-01 8.32251E-27
6.99375E-01 8.09983E-27
7.03368E-01 7.88309E-27
7.07347E-01 7.67210E-27
7.11309E-01 7.46671E-27
7.15256E-01 7.26674E-27
7.19186E-01 7.07204E-27
7.23099E-01 6.88245E-27
7.26995E-01 6.69783E-27
7.30874E-01 6.51804E-27
7.34736E-01 6.34293E-27
7.38579E-01 6.17238E-27
7.42405E-01 6.00625E-27
7.46212E-01 5.84442E-27
7.50000E-01 5.68677E-27
7.53769E-01 5.53317E-27
7.57519E-01 5.38353E-27
7.61249E-01 5.23771E-27
7.64960E-01 5.09563E-27
7.68650E-01 4.95717E-27
7.72320E-01 4.82223E-27
7.75968E-01 4.69072E-27
7.79596E-01 4.56255E-27
7.83203E-01 4.43762E-27
7.86788E-01 4.31585E-27
7.90351E-01 4.19714E-27
7.93893E-01 4.08142E-27
7.97411E-01 3.96860E-27
8.00908E-01 3.85862E-27
8.04381E-01 3.75138E-27
8.07831E-01 3.64683E-27
8.11257E-01 3.54488E-27
8.14660E-01 3.44547E-27
8.18039E-01 3.34853E-27
8.21394E-01 3.25400E-27
8.24724E-01 3.16182E-27
8.28030E-01 3.07192E-27
8.31310E-01 2.98424E-27
8.34565E-01 2.89873E-27
8.37795E-01 2.81533E-27
8.40999E-01 2.73398E-27
8.44177E-01 2.65465E-27
8.47329E-01 2.57726E-27
8.50455E-01 2.50178E-27
8.53553E-01 2.42816E-27
8.56625E-01 2.35634E-27
8.59670E-01 2.28629E-27
8.62687E-01 2.21796E-27
8.65677E-01 2.15131E-27
8.68639E-01 2.08630E-27
8.71572E-01 2.02288E-27
8.74478E-01 1.96102E-27
8.77355E-01 1.90068E-27
8.80203E-01 1.84182E-27
8.83022E-01 1.78441E-27
8.85812E-01 1.72841E-27
8.88573E-01 1.67379E-27
8.91304E-01 1.62052E-27
8.94005E-01 1.56856E-27
8.96677E-01 1.51788E-27
8.99318E-01 1.46846E-27
9.01928E-01 1.42026E-27
9.04508E-01 1.37326E-27
9.07058E-01 1.32743E-27
9.09576E-01 1.28274E-27
9.12063E-01 1.23916E-27
9.14519E-01 1.19668E-27
9.16943E-01 1.15526E-27
9.19335E-01 1.11489E-27
9.21696E-01 1.07554E-27
9.24024E-01 1.03718E-27
9.26320E-01 9.99800E-28
9.28584E-01 9.63375E-28
9.30815E-01 9.27884E-28
9.33013E-01 8.93307E-28
9.35178E-01 8.59626E-28
9.37310E-01 8.26821E-28
9.39409E-01 7.94874E-28
9.41474E-01 7.63767E-28
9.43505E-01 7.33484E-28
9.45503E-01 7.04008E-28
9.47467E-01 6.75323E-28
9.49397E-01 6.47412E-28
9.51293E-01 6.20262E-28
9.53154E-01 5.93856E-28
9.54981E-01 5.68182E-28
9.56773E-01 5.43224E-28
9.58530E-01 5.18970E-28
9.60252E-01 4.95407E-28
9.61940E-01 4.72522E-28
9.63592E-01 4.50302E-28
9.65209E-01 4.28737E-28
9.66790E-01 4.07814E-28
9.68336E-01 3.87523E-28
9.69846E-01 3.67852E-28
9.71321E-01 3.48792E-28
9.72759E-01 3.30333E-28
9.74162E-01 3.12464E-28
9.75528E-01 2.95177E-28
9.76858E-01 2.78462E-28
9.78152E-01 2.62311E-28
9.79410E-01 2.46716E-28
9.80631E-01 2.31667E-28
9.81815E-01 2.17159E-28
9.82963E-01 2.03182E-28
9.84074E-01 1.89730E-28
9.85148E-01 1.76797E-28
9.86185E-01 1.64374E-28
9.87185E-01 1.52457E-28
9.88148E-01 1.41038E-28
9.89074E-01 1.30112E-28
9.89962E-01 1.19674E-28
9.90814E-01 1.09718E-28
9.91627E-01 1.00239E-28
9.92404E-01 9.12325E-29
9.93143E-01 8.26935E-29
9.93844E-01 7.46179E-29
9.94508E-01 6.70017E-29
9.95134E-01 5.98409E-29
9.95722E-01 5.31319E-29
9.96273E-01 4.68714E-29
9.96786E-01 4.10562E-29
9.97261E-01 3.56834E-29
9.97698E-01 3.07503E-29
9.98097E-01 2.62544E-29
9.98459E-01 2.21934E-29
9.98782E-01 1.85654E-29
9.99067E-01 1.53684E-29
9.99315E-01 1.26010E-29
9.99524E-01 1.02616E-29
9.99695E-01 8.34916E-30
9.99829E-01 6.86271E-30
9.99924E-01 5.80149E-30
9.99981E-01 5.16497E-30
1.00000E+00 4.95283E-30
