 #
 # Subroutine ELSEPA. Elastic scattering of electrons and positrons
 #                    by neutral atoms and positive ions
 #
 # Projectile: positron
 # Kinetic energy = 1.00000E+09 eV = 3.67493E+07 a.u.
 #
 # WARNING: High-energy factorization with free-atom DF screening.
 #          Absorption, polarization and exchange corrections are
 #          switched off.
 #          Phase shifts are calculated for the bare nucleus.
 #          Scattering amplitudes are not evaluated.
 #
 # Element: Tl,  Z =  81,  atomic weight = 2.04383E+02 g/mol
 #
 # Nuclear model: Fermi distribution
 #                Average radius = 6.30278E-13 cm
 #                Skin thickness = 5.46000E-14 cm
 #
 # Number of electrons = 81
 #
 # Total elastic cross section = 8.23550E-18 cm**2 = 2.94095E-01 a0**2
 # 1st transport cross section = 1.22173E-26 cm**2 = 4.36286E-10 a0**2
 # 2nd transport cross section = 3.66481E-26 cm**2 = 1.30873E-09 a0**2
 #
 #
 # Differential cross section:                       MU=(1-COS(THETA))/2
 #
 #  THETA        MU          DCS          DCS        Sherman      error
 #  (deg)                 (cm**2/sr)   (a0**2/sr)    function
 #----------------------------------------------------------------------
0.00000E+00 5.65175E-08
7.61557E-13 4.47185E-08
1.18994E-12 4.00528E-08
1.71346E-12 3.55439E-08
2.33225E-12 3.13823E-08
3.04617E-12 2.76555E-08
3.85530E-12 2.43740E-08
4.75964E-12 2.15108E-08
5.75917E-12 1.90228E-08
6.85391E-12 1.68587E-08
8.04379E-12 1.49771E-08
9.32893E-12 1.33397E-08
1.07092E-11 1.19115E-08
1.21847E-11 1.06621E-08
1.37554E-11 9.56620E-09
1.54213E-11 8.59964E-09
1.71823E-11 7.74757E-09
1.90386E-11 6.99442E-09
2.09900E-11 6.32710E-09
2.30367E-11 5.73101E-09
2.51785E-11 5.16004E-09
2.74156E-11 4.67370E-09
2.97478E-11 4.25695E-09
3.21752E-11 3.89780E-09
3.46979E-11 3.58659E-09
3.73157E-11 3.28415E-09
4.00286E-11 2.99977E-09
4.28368E-11 2.75173E-09
4.57402E-11 2.53441E-09
4.87388E-11 2.34318E-09
5.18325E-11 2.17199E-09
5.50215E-11 2.00034E-09
5.83057E-11 1.84834E-09
6.16850E-11 1.71327E-09
6.51595E-11 1.59283E-09
6.87293E-11 1.48508E-09
7.23943E-11 1.38220E-09
7.61544E-11 1.28612E-09
1.18991E-10 6.82622E-10
1.71347E-10 3.98117E-10
2.33223E-10 2.47662E-10
3.04617E-10 1.61485E-10
3.85531E-10 1.09212E-10
4.75965E-10 7.62055E-11
5.75917E-10 5.47265E-11
6.85389E-10 4.02436E-11
8.04380E-10 3.03140E-11
9.32891E-10 2.33158E-11
1.07092E-09 1.82476E-11
1.21847E-09 1.44935E-11
1.37554E-09 1.16633E-11
1.54213E-09 9.49581E-12
1.71823E-09 7.81282E-12
1.90386E-09 6.48779E-12
2.09900E-09 5.43205E-12
2.30367E-09 4.58214E-12
2.51785E-09 3.88929E-12
2.74156E-09 3.32787E-12
2.97478E-09 2.86086E-12
3.21752E-09 2.47511E-12
3.46978E-09 2.15123E-12
3.73156E-09 1.87909E-12
4.00286E-09 1.64869E-12
4.28368E-09 1.45233E-12
4.57402E-09 1.28476E-12
4.87388E-09 1.14016E-12
5.18326E-09 1.01586E-12
5.50215E-09 9.07487E-13
5.83057E-09 8.13618E-13
6.16850E-09 7.31197E-13
6.51596E-09 6.59172E-13
6.87293E-09 5.95653E-13
7.23942E-09 5.39658E-13
7.61544E-09 4.90066E-13
1.18991E-08 2.08460E-13
1.71347E-08 1.03167E-13
2.33223E-08 5.67696E-14
3.04617E-08 3.37632E-14
3.85531E-08 2.13121E-14
4.75965E-08 1.41013E-14
5.75917E-08 9.69543E-15
6.85389E-08 6.88209E-15
8.04380E-08 5.01853E-15
9.32891E-08 3.74496E-15
1.07092E-07 2.85089E-15
1.21847E-07 2.20843E-15
1.37554E-07 1.73719E-15
1.54213E-07 1.38523E-15
1.71823E-07 1.11808E-15
1.90386E-07 9.12347E-16
2.09900E-07 7.51844E-16
2.30367E-07 6.25138E-16
2.51785E-07 5.24041E-16
2.74156E-07 4.42577E-16
2.97478E-07 3.76346E-16
3.21752E-07 3.22054E-16
3.46978E-07 2.77208E-16
3.73156E-07 2.39903E-16
4.00286E-07 2.08666E-16
4.28368E-07 1.82350E-16
4.57402E-07 1.60054E-16
4.87388E-07 1.41063E-16
5.18325E-07 1.24807E-16
5.50215E-07 1.10825E-16
5.83057E-07 9.87471E-17
6.16850E-07 8.82698E-17
6.51596E-07 7.91455E-17
6.87293E-07 7.11699E-17
7.23942E-07 6.41737E-17
7.61543E-07 5.80161E-17
1.18991E-06 2.38317E-17
1.71347E-06 1.15114E-17
2.33223E-06 6.21939E-18
3.04617E-06 3.64774E-18
3.85531E-06 2.27802E-18
4.75964E-06 1.49489E-18
5.75916E-06 1.02112E-18
6.85388E-06 7.20992E-19
8.04378E-06 5.23445E-19
9.32888E-06 3.89140E-19
1.07092E-05 2.95268E-19
1.21846E-05 2.28065E-19
1.37553E-05 1.78933E-19
1.54212E-05 1.42345E-19
1.71822E-05 1.14646E-19
1.90385E-05 9.33087E-20
2.09899E-05 7.68111E-20
2.30365E-05 6.37911E-20
2.51783E-05 5.33999E-20
2.74153E-05 4.50290E-20
2.97475E-05 3.82257E-20
3.21749E-05 3.26592E-20
3.46974E-05 2.80726E-20
3.73152E-05 2.42670E-20
4.00281E-05 2.10874E-20
4.28362E-05 1.84128E-20
4.57395E-05 1.61489E-20
4.87380E-05 1.42214E-20
5.18317E-05 1.25721E-20
5.50205E-05 1.11543E-20
5.83045E-05 9.93043E-21
6.16838E-05 8.86993E-21
6.51582E-05 7.94749E-21
6.87277E-05 7.14212E-21
7.23925E-05 6.43635E-21
7.61524E-05 5.93095E-21
9.21439E-05 4.03605E-21
1.09658E-04 2.83433E-21
1.28695E-04 2.04332E-21
1.49255E-04 1.50571E-21
1.71338E-04 1.13053E-21
1.94942E-04 8.62547E-22
2.20070E-04 6.67287E-22
2.46720E-04 5.22513E-22
2.74892E-04 4.13510E-22
3.04586E-04 3.30320E-22
3.35803E-04 2.66059E-22
3.68542E-04 2.15882E-22
4.02802E-04 1.76321E-22
4.38585E-04 1.44858E-22
4.75889E-04 1.19637E-22
5.14715E-04 9.92767E-23
5.55063E-04 8.27324E-23
5.96931E-04 6.92105E-23
6.40321E-04 5.80994E-23
6.85233E-04 4.89247E-23
7.31665E-04 4.13152E-23
7.79618E-04 3.49781E-23
8.29092E-04 2.96811E-23
8.80086E-04 2.52383E-23
9.32601E-04 2.15005E-23
9.86636E-04 1.83468E-23
1.04219E-03 1.56791E-23
1.09927E-03 1.34172E-23
1.15786E-03 1.14951E-23
1.21797E-03 9.85877E-24
1.27961E-03 8.46315E-24
1.34276E-03 7.27095E-24
1.40743E-03 6.25108E-24
1.47362E-03 5.37747E-24
1.54133E-03 4.62834E-24
1.61056E-03 3.98527E-24
1.68131E-03 3.43277E-24
1.75357E-03 2.95772E-24
1.82735E-03 2.54900E-24
1.90265E-03 2.19715E-24
1.97947E-03 1.89412E-24
2.05780E-03 1.63305E-24
2.13765E-03 1.40806E-24
2.21902E-03 1.21414E-24
2.30190E-03 1.04697E-24
2.38630E-03 9.02868E-25
2.47222E-03 7.78646E-25
2.55965E-03 6.71573E-25
2.64859E-03 5.79295E-25
2.73905E-03 4.99785E-25
2.83103E-03 4.31291E-25
2.92452E-03 3.72304E-25
3.01952E-03 3.21518E-25
3.11604E-03 2.77808E-25
3.21407E-03 2.40200E-25
3.31362E-03 2.07851E-25
3.41468E-03 1.80036E-25
3.51725E-03 1.56123E-25
3.62133E-03 1.35571E-25
3.72692E-03 1.17910E-25
3.83403E-03 1.02733E-25
3.94265E-03 8.96914E-26
4.05278E-03 7.84814E-26
4.16442E-03 6.88428E-26
4.27757E-03 6.05507E-26
4.39223E-03 5.34116E-26
4.50840E-03 4.72588E-26
4.62608E-03 4.19491E-26
4.74527E-03 3.73597E-26
4.86597E-03 3.33849E-26
4.98817E-03 2.99347E-26
5.11188E-03 2.69316E-26
5.23711E-03 2.43096E-26
5.36383E-03 2.20127E-26
5.49207E-03 1.99928E-26
5.62181E-03 1.82092E-26
5.75306E-03 1.66274E-26
5.88581E-03 1.52181E-26
6.02007E-03 1.39567E-26
6.15583E-03 1.28223E-26
6.29310E-03 1.17972E-26
6.43187E-03 1.08667E-26
6.57214E-03 1.00184E-26
6.71392E-03 9.24188E-27
6.85720E-03 8.52841E-27
7.00198E-03 7.87068E-27
7.14827E-03 7.26257E-27
7.29605E-03 6.69894E-27
7.44534E-03 6.17549E-27
7.59612E-03 5.68858E-27
7.97965E-03 4.61208E-27
8.37255E-03 3.70883E-27
8.77480E-03 2.95263E-27
9.18641E-03 2.32363E-27
9.60736E-03 1.80553E-27
1.00376E-02 1.38405E-27
1.04773E-02 1.04614E-27
1.09262E-02 7.79666E-28
1.13844E-02 5.73331E-28
1.18520E-02 4.16751E-28
1.23288E-02 3.00529E-28
1.28150E-02 2.16333E-28
1.33104E-02 1.56942E-28
1.38150E-02 1.16245E-28
1.43290E-02 8.91967E-29
1.48521E-02 7.17486E-29
1.53845E-02 6.07446E-29
1.59262E-02 5.38083E-29
1.64770E-02 4.92216E-29
1.70371E-02 4.58042E-29
1.76063E-02 4.28008E-29
1.81848E-02 3.97785E-29
1.87724E-02 3.65376E-29
1.93692E-02 3.30373E-29
1.99751E-02 2.93356E-29
2.05901E-02 2.55426E-29
2.12143E-02 2.17869E-29
2.18476E-02 1.81918E-29
2.24900E-02 1.48613E-29
2.31415E-02 1.18720E-29
2.38021E-02 9.27106E-30
2.44717E-02 7.07758E-30
2.51504E-02 5.28625E-30
2.58382E-02 3.87248E-30
2.65349E-02 2.79779E-30
2.72407E-02 2.01519E-30
2.79555E-02 1.47392E-30
2.86793E-02 1.12336E-30
2.94120E-02 9.16046E-31
3.01537E-02 8.09794E-31
3.09043E-02 7.68900E-31
3.16639E-02 7.64671E-31
3.24324E-02 7.75348E-31
3.32098E-02 7.85589E-31
3.39961E-02 7.85668E-31
3.47912E-02 7.70503E-31
3.55952E-02 7.38627E-31
3.64081E-02 6.91197E-31
3.72297E-02 6.31079E-31
3.80602E-02 5.62072E-31
3.88995E-02 4.88279E-31
3.97476E-02 4.13630E-31
4.06044E-02 3.41555E-31
4.14700E-02 2.74791E-31
4.23443E-02 2.15290E-31
4.32273E-02 1.64232E-31
4.41190E-02 1.22082E-31
4.50194E-02 8.87049E-32
4.59284E-02 6.34942E-32
4.68461E-02 4.55109E-32
4.87074E-02 2.65858E-32
5.06030E-02 2.23795E-32
5.25328E-02 2.45879E-32
5.44967E-02 2.75005E-32
5.64946E-02 2.81872E-32
5.85262E-02 2.59489E-32
6.05914E-02 2.14661E-32
6.26901E-02 1.59771E-32
6.48222E-02 1.06724E-32
6.69873E-02 6.36402E-33
6.91854E-02 3.39607E-33
7.14163E-02 1.71836E-33
7.36799E-02 1.03604E-33
7.59760E-02 9.65982E-34
7.83043E-02 1.15696E-33
8.06647E-02 1.35700E-33
8.30571E-02 1.43157E-33
8.54812E-02 1.34684E-33
8.79369E-02 1.13548E-33
9.04240E-02 8.60054E-34
9.29422E-02 5.83719E-34
9.54915E-02 3.52497E-34
9.80716E-02 1.88940E-34
1.00682E-01 9.42936E-35
1.03323E-01 5.53162E-35
1.05995E-01 5.22845E-35
1.08696E-01 6.57324E-35
1.11427E-01 8.07283E-35
1.14188E-01 8.85486E-35
1.16978E-01 8.62913E-35
1.19797E-01 7.52718E-35
1.22645E-01 5.90279E-35
1.25522E-01 4.15474E-35
1.28428E-01 2.60538E-35
1.31361E-01 1.44340E-35
1.34323E-01 7.20577E-36
1.37313E-01 3.83491E-36
1.40330E-01 3.19871E-36
1.43375E-01 4.03123E-36
1.46447E-01 5.25062E-36
1.49545E-01 6.13147E-36
1.52671E-01 6.33676E-36
1.55823E-01 5.85028E-36
1.59001E-01 4.86027E-36
1.62205E-01 3.63794E-36
1.65435E-01 2.44040E-36
1.68690E-01 1.45151E-36
1.71970E-01 7.60893E-37
1.75276E-01 3.72352E-37
1.78606E-01 2.29612E-37
1.81961E-01 2.47452E-37
1.85340E-01 3.39251E-37
1.88743E-01 4.35805E-37
1.92169E-01 4.94123E-37
1.95619E-01 4.97534E-37
1.99092E-01 4.50008E-37
2.02589E-01 3.67867E-37
2.06107E-01 2.71687E-37
2.09649E-01 1.79992E-37
2.13212E-01 1.05606E-37
2.16797E-01 1.00000E-45
2.20404E-01 1.00000E-45
2.24032E-01 1.00000E-45
2.27680E-01 1.00000E-45
2.31350E-01 1.00000E-45
2.35040E-01 1.00000E-45
2.38751E-01 1.00000E-45
2.42481E-01 1.00000E-45
2.46231E-01 1.00000E-45
2.50000E-01 1.00000E-45
2.53788E-01 1.00000E-45
2.57595E-01 1.00000E-45
2.61421E-01 1.00000E-45
2.65264E-01 1.00000E-45
2.69126E-01 1.00000E-45
2.73005E-01 1.00000E-45
2.76901E-01 1.00000E-45
2.80814E-01 1.00000E-45
2.84744E-01 1.00000E-45
2.88691E-01 1.00000E-45
2.92653E-01 1.00000E-45
2.96632E-01 1.00000E-45
3.00625E-01 1.00000E-45
3.04634E-01 1.00000E-45
3.08658E-01 1.00000E-45
3.12697E-01 1.00000E-45
3.16749E-01 1.00000E-45
3.20816E-01 1.00000E-45
3.24896E-01 1.00000E-45
3.28990E-01 1.00000E-45
3.33097E-01 1.00000E-45
3.37216E-01 1.00000E-45
3.41348E-01 1.00000E-45
3.45492E-01 1.00000E-45
3.49647E-01 1.00000E-45
3.53814E-01 1.00000E-45
3.57992E-01 1.00000E-45
3.62181E-01 1.00000E-45
3.66381E-01 1.00000E-45
3.70590E-01 1.00000E-45
3.74810E-01 1.00000E-45
3.79039E-01 1.00000E-45
3.83277E-01 1.00000E-45
3.87524E-01 1.00000E-45
3.91780E-01 1.00000E-45
3.96044E-01 1.00000E-45
4.00316E-01 1.00000E-45
4.04596E-01 1.00000E-45
4.08882E-01 1.00000E-45
4.13176E-01 1.00000E-45
4.17476E-01 1.00000E-45
4.21783E-01 1.00000E-45
4.26095E-01 1.00000E-45
4.30413E-01 1.00000E-45
4.34737E-01 1.00000E-45
4.39065E-01 1.00000E-45
4.43398E-01 1.00000E-45
4.47736E-01 1.00000E-45
4.52077E-01 1.00000E-45
4.56422E-01 1.00000E-45
4.60770E-01 1.00000E-45
4.65122E-01 1.00000E-45
4.69476E-01 1.00000E-45
4.73832E-01 1.00000E-45
4.78190E-01 1.00000E-45
4.82550E-01 1.00000E-45
4.86912E-01 1.00000E-45
4.91274E-01 1.00000E-45
4.95637E-01 1.00000E-45
5.00000E-01 1.00000E-45
5.04363E-01 1.00000E-45
5.08726E-01 1.00000E-45
5.13088E-01 1.00000E-45
5.17450E-01 1.00000E-45
5.21810E-01 1.00000E-45
5.26168E-01 1.00000E-45
5.30524E-01 1.00000E-45
5.34878E-01 1.00000E-45
5.39230E-01 1.00000E-45
5.43578E-01 1.00000E-45
5.47923E-01 1.00000E-45
5.52264E-01 1.00000E-45
5.56602E-01 1.00000E-45
5.60935E-01 1.00000E-45
5.65263E-01 1.00000E-45
5.69587E-01 1.00000E-45
5.73905E-01 1.00000E-45
5.78217E-01 1.00000E-45
5.82524E-01 1.00000E-45
5.86824E-01 1.00000E-45
5.91118E-01 1.00000E-45
5.95404E-01 1.00000E-45
5.99684E-01 1.00000E-45
6.03956E-01 1.00000E-45
6.08220E-01 1.00000E-45
6.12476E-01 1.00000E-45
6.16723E-01 1.00000E-45
6.20961E-01 1.00000E-45
6.25190E-01 1.00000E-45
6.29410E-01 1.00000E-45
6.33619E-01 1.00000E-45
6.37819E-01 1.00000E-45
6.42008E-01 1.00000E-45
6.46186E-01 1.00000E-45
6.50353E-01 1.00000E-45
6.54508E-01 1.00000E-45
6.58652E-01 1.00000E-45
6.62784E-01 1.00000E-45
6.66903E-01 1.00000E-45
6.71010E-01 1.00000E-45
6.75104E-01 1.00000E-45
6.79184E-01 1.00000E-45
6.83251E-01 1.00000E-45
6.87303E-01 1.00000E-45
6.91342E-01 1.00000E-45
6.95366E-01 1.00000E-45
6.99375E-01 1.00000E-45
7.03368E-01 1.00000E-45
7.07347E-01 1.00000E-45
7.11309E-01 1.00000E-45
7.15256E-01 1.00000E-45
7.19186E-01 1.00000E-45
7.23099E-01 1.00000E-45
7.26995E-01 1.00000E-45
7.30874E-01 1.00000E-45
7.34736E-01 1.00000E-45
7.38579E-01 1.00000E-45
7.42405E-01 1.00000E-45
7.46212E-01 1.00000E-45
7.50000E-01 1.00000E-45
7.53769E-01 1.00000E-45
7.57519E-01 1.00000E-45
7.61249E-01 1.00000E-45
7.64960E-01 1.00000E-45
7.68650E-01 1.00000E-45
7.72320E-01 1.00000E-45
7.75968E-01 1.00000E-45
7.79596E-01 1.00000E-45
7.83203E-01 1.00000E-45
7.86788E-01 1.00000E-45
7.90351E-01 1.00000E-45
7.93893E-01 1.00000E-45
7.97411E-01 1.00000E-45
8.00908E-01 1.00000E-45
8.04381E-01 1.00000E-45
8.07831E-01 1.00000E-45
8.11257E-01 1.00000E-45
8.14660E-01 1.00000E-45
8.18039E-01 1.00000E-45
8.21394E-01 1.00000E-45
8.24724E-01 1.00000E-45
8.28030E-01 1.00000E-45
8.31310E-01 1.00000E-45
8.34565E-01 1.00000E-45
8.37795E-01 1.00000E-45
8.40999E-01 1.00000E-45
8.44177E-01 1.00000E-45
8.47329E-01 1.00000E-45
8.50455E-01 1.00000E-45
8.53553E-01 1.00000E-45
8.56625E-01 1.00000E-45
8.59670E-01 1.00000E-45
8.62687E-01 1.00000E-45
8.65677E-01 1.00000E-45
8.68639E-01 1.00000E-45
8.71572E-01 1.00000E-45
8.74478E-01 1.00000E-45
8.77355E-01 1.00000E-45
8.80203E-01 1.00000E-45
8.83022E-01 1.00000E-45
8.85812E-01 1.00000E-45
8.88573E-01 1.00000E-45
8.91304E-01 1.00000E-45
8.94005E-01 1.00000E-45
8.96677E-01 1.00000E-45
8.99318E-01 1.00000E-45
9.01928E-01 1.00000E-45
9.04508E-01 1.00000E-45
9.07058E-01 1.00000E-45
9.09576E-01 1.00000E-45
9.12063E-01 1.00000E-45
9.14519E-01 1.00000E-45
9.16943E-01 1.00000E-45
9.19335E-01 1.00000E-45
9.21696E-01 1.00000E-45
9.24024E-01 1.00000E-45
9.26320E-01 1.00000E-45
9.28584E-01 1.00000E-45
9.30815E-01 1.00000E-45
9.33013E-01 1.00000E-45
9.35178E-01 1.00000E-45
9.37310E-01 1.00000E-45
9.39409E-01 1.00000E-45
9.41474E-01 1.00000E-45
9.43505E-01 1.00000E-45
9.45503E-01 1.00000E-45
9.47467E-01 1.00000E-45
9.49397E-01 1.00000E-45
9.51293E-01 1.00000E-45
9.53154E-01 1.00000E-45
9.54981E-01 1.00000E-45
9.56773E-01 1.00000E-45
9.58530E-01 1.00000E-45
9.60252E-01 1.00000E-45
9.61940E-01 1.00000E-45
9.63592E-01 1.00000E-45
9.65209E-01 1.00000E-45
9.66790E-01 1.00000E-45
9.68336E-01 1.00000E-45
9.69846E-01 1.00000E-45
9.71321E-01 1.00000E-45
9.72759E-01 1.00000E-45
9.74162E-01 1.00000E-45
9.75528E-01 1.00000E-45
9.76858E-01 1.00000E-45
9.78152E-01 1.00000E-45
9.79410E-01 1.00000E-45
9.80631E-01 1.00000E-45
9.81815E-01 1.00000E-45
9.82963E-01 1.00000E-45
9.84074E-01 1.00000E-45
9.85148E-01 1.00000E-45
9.86185E-01 1.00000E-45
9.87185E-01 1.00000E-45
9.88148E-01 1.00000E-45
9.89074E-01 1.00000E-45
9.89962E-01 1.00000E-45
9.90814E-01 1.00000E-45
9.91627E-01 1.00000E-45
9.92404E-01 1.00000E-45
9.93143E-01 1.00000E-45
9.93844E-01 1.00000E-45
9.94508E-01 1.00000E-45
9.95134E-01 1.00000E-45
9.95722E-01 1.00000E-45
9.96273E-01 1.00000E-45
9.96786E-01 1.00000E-45
9.97261E-01 1.00000E-45
9.97698E-01 1.00000E-45
9.98097E-01 1.00000E-45
9.98459E-01 1.00000E-45
9.98782E-01 1.00000E-45
9.99067E-01 1.00000E-45
9.99315E-01 1.00000E-45
9.99524E-01 1.00000E-45
9.99695E-01 1.00000E-45
9.99829E-01 1.00000E-45
9.99924E-01 1.00000E-45
9.99981E-01 1.00000E-45
1.00000E+00 1.00000E-45
