 #
 # Subroutine ELSEPA. Elastic scattering of electrons and positrons
 #                    by neutral atoms and positive ions
 #
 # Projectile: positron
 # Kinetic energy = 9.00000E+06 eV = 3.30744E+05 a.u.
 #
 # WARNING: High-energy factorization with free-atom DF screening.
 #          Absorption, polarization and exchange corrections are
 #          switched off.
 #          Phase shifts are calculated for the bare nucleus.
 #          Scattering amplitudes are not evaluated.
 #
 # Element: Tl,  Z =  81,  atomic weight = 2.04383E+02 g/mol
 #
 # Nuclear model: Fermi distribution
 #                Average radius = 6.30278E-13 cm
 #                Skin thickness = 5.46000E-14 cm
 #
 # Number of electrons = 81
 #
 # Total elastic cross section = 8.30304E-18 cm**2 = 2.96507E-01 a0**2
 # 1st transport cross section = 9.63278E-23 cm**2 = 3.43993E-06 a0**2
 # 2nd transport cross section = 2.78333E-22 cm**2 = 9.93946E-06 a0**2
 #
 #
 # Differential cross section:                       MU=(1-COS(THETA))/2
 #
 #  THETA        MU          DCS          DCS        Sherman      error
 #  (deg)                 (cm**2/sr)   (a0**2/sr)    function
 #----------------------------------------------------------------------
0.00000E+00 5.10730E-12
7.61557E-13 5.10717E-12
1.18994E-12 5.10710E-12
1.71346E-12 5.10702E-12
2.33225E-12 5.10691E-12
3.04617E-12 5.10680E-12
3.85530E-12 5.10667E-12
4.75964E-12 5.10652E-12
5.75917E-12 5.10636E-12
6.85391E-12 5.10618E-12
8.04379E-12 5.10598E-12
9.32893E-12 5.10578E-12
1.07092E-11 5.10555E-12
1.21847E-11 5.10532E-12
1.37554E-11 5.10506E-12
1.54213E-11 5.10479E-12
1.71823E-11 5.10451E-12
1.90386E-11 5.10421E-12
2.09900E-11 5.10390E-12
2.30367E-11 5.10357E-12
2.51785E-11 5.10322E-12
2.74156E-11 5.10286E-12
2.97478E-11 5.10249E-12
3.21752E-11 5.10210E-12
3.46979E-11 5.10169E-12
3.73157E-11 5.10127E-12
4.00286E-11 5.10083E-12
4.28368E-11 5.10038E-12
4.57402E-11 5.09992E-12
4.87388E-11 5.09944E-12
5.18325E-11 5.09894E-12
5.50215E-11 5.09843E-12
5.83057E-11 5.09791E-12
6.16850E-11 5.09736E-12
6.51595E-11 5.09681E-12
6.87293E-11 5.09624E-12
7.23943E-11 5.09565E-12
7.61544E-11 5.09505E-12
1.18991E-10 5.08821E-12
1.71347E-10 5.07989E-12
2.33223E-10 5.07009E-12
3.04617E-10 5.05884E-12
3.85531E-10 5.04615E-12
4.75965E-10 5.03204E-12
5.75917E-10 5.01655E-12
6.85389E-10 4.99969E-12
8.04380E-10 4.98150E-12
9.32891E-10 4.96200E-12
1.07092E-09 4.94124E-12
1.21847E-09 4.91924E-12
1.37554E-09 4.89603E-12
1.54213E-09 4.87167E-12
1.71823E-09 4.84618E-12
1.90386E-09 4.81960E-12
2.09900E-09 4.79198E-12
2.30367E-09 4.76336E-12
2.51785E-09 4.73378E-12
2.74156E-09 4.70321E-12
2.97478E-09 4.67179E-12
3.21752E-09 4.63956E-12
3.46978E-09 4.60659E-12
3.73156E-09 4.57290E-12
4.00286E-09 4.53854E-12
4.28368E-09 4.50335E-12
4.57402E-09 4.46759E-12
4.87388E-09 4.43131E-12
5.18326E-09 4.39454E-12
5.50215E-09 4.35735E-12
5.83057E-09 4.31966E-12
6.16850E-09 4.28141E-12
6.51596E-09 4.24286E-12
6.87293E-09 4.20405E-12
7.23942E-09 4.16501E-12
7.61544E-09 4.12578E-12
1.18991E-08 3.72562E-12
1.71347E-08 3.33262E-12
2.33223E-08 2.96495E-12
3.04617E-08 2.63082E-12
3.85531E-08 2.33281E-12
4.75965E-08 2.07033E-12
5.75917E-08 1.84044E-12
6.85389E-08 1.63876E-12
8.04380E-08 1.46244E-12
9.32891E-08 1.30823E-12
1.07092E-07 1.17299E-12
1.21847E-07 1.05373E-12
1.37554E-07 9.48757E-13
1.54213E-07 8.56113E-13
1.71823E-07 7.73979E-13
1.90386E-07 7.00961E-13
2.09900E-07 6.36069E-13
2.30367E-07 5.78259E-13
2.51785E-07 5.26506E-13
2.74156E-07 4.76642E-13
2.97478E-07 4.33302E-13
3.21752E-07 3.95928E-13
3.46978E-07 3.63530E-13
3.73156E-07 3.35305E-13
4.00286E-07 3.10058E-13
4.28368E-07 2.83913E-13
4.57402E-07 2.61004E-13
4.87388E-07 2.40845E-13
5.18325E-07 2.23036E-13
5.50215E-07 2.07243E-13
5.83057E-07 1.92519E-13
6.16850E-07 1.78156E-13
6.51596E-07 1.65352E-13
6.87293E-07 1.53900E-13
7.23942E-07 1.43627E-13
7.61543E-07 1.34384E-13
1.18991E-06 7.15469E-14
1.71347E-06 4.19483E-14
2.33223E-06 2.63046E-14
3.04617E-06 1.72603E-14
3.85531E-06 1.17323E-14
4.75964E-06 8.22126E-15
5.75916E-06 5.91768E-15
6.85388E-06 4.36224E-15
8.04378E-06 3.28610E-15
9.32888E-06 2.52765E-15
1.07092E-05 1.97928E-15
1.21846E-05 1.57289E-15
1.37553E-05 1.26636E-15
1.54212E-05 1.03154E-15
1.71822E-05 8.49109E-16
1.90385E-05 7.05052E-16
2.09899E-05 5.91167E-16
2.30365E-05 4.99279E-16
2.51783E-05 4.24379E-16
2.74153E-05 3.62617E-16
2.97475E-05 3.12016E-16
3.21749E-05 2.69855E-16
3.46974E-05 2.34596E-16
3.73152E-05 2.05039E-16
4.00281E-05 1.79887E-16
4.28362E-05 1.58625E-16
4.57395E-05 1.40282E-16
4.87380E-05 1.24586E-16
5.18317E-05 1.10981E-16
5.50205E-05 9.91832E-17
5.83045E-05 8.89218E-17
6.16838E-05 7.99272E-17
6.51582E-05 7.20762E-17
6.87277E-05 6.51283E-17
7.23925E-05 5.90225E-17
7.61524E-05 5.36017E-17
9.21439E-05 3.72611E-17
1.09658E-04 2.66844E-17
1.28695E-04 1.96084E-17
1.49255E-04 1.47300E-17
1.71338E-04 1.12796E-17
1.94942E-04 8.78251E-18
2.20070E-04 6.94013E-18
2.46720E-04 5.55654E-18
2.74892E-04 4.50089E-18
3.04586E-04 3.68404E-18
3.35803E-04 3.04413E-18
3.68542E-04 2.53706E-18
4.02802E-04 2.13101E-18
4.38585E-04 1.80283E-18
4.75889E-04 1.53529E-18
5.14715E-04 1.31547E-18
5.55063E-04 1.13347E-18
5.96931E-04 9.81805E-19
6.40321E-04 8.54612E-19
6.85233E-04 7.47305E-19
7.31665E-04 6.56274E-19
7.79618E-04 5.78655E-19
8.29092E-04 5.12153E-19
8.80086E-04 4.54909E-19
9.32601E-04 4.05423E-19
9.86636E-04 3.62472E-19
1.04219E-03 3.25047E-19
1.09927E-03 2.92319E-19
1.15786E-03 2.63597E-19
1.21797E-03 2.38311E-19
1.27961E-03 2.15978E-19
1.34276E-03 1.96194E-19
1.40743E-03 1.78620E-19
1.47362E-03 1.62965E-19
1.54133E-03 1.48985E-19
1.61056E-03 1.36468E-19
1.68131E-03 1.25235E-19
1.75357E-03 1.15131E-19
1.82735E-03 1.06023E-19
1.90265E-03 9.77963E-20
1.97947E-03 9.03497E-20
2.05780E-03 8.35966E-20
2.13765E-03 7.74609E-20
2.21902E-03 7.18762E-20
2.30190E-03 6.67844E-20
2.38630E-03 6.21342E-20
2.47222E-03 5.78803E-20
2.55965E-03 5.39830E-20
2.64859E-03 5.04073E-20
2.73905E-03 4.71216E-20
2.83103E-03 4.40985E-20
2.92452E-03 4.13133E-20
3.01952E-03 3.87433E-20
3.11604E-03 3.63695E-20
3.21407E-03 3.41742E-20
3.31362E-03 3.21411E-20
3.41468E-03 3.02565E-20
3.51725E-03 2.85075E-20
3.62133E-03 2.68824E-20
3.72692E-03 2.53710E-20
3.83403E-03 2.39639E-20
3.94265E-03 2.26526E-20
4.05278E-03 2.14293E-20
4.16442E-03 2.02871E-20
4.27757E-03 1.92197E-20
4.39223E-03 1.82211E-20
4.50840E-03 1.72863E-20
4.62608E-03 1.64104E-20
4.74527E-03 1.55890E-20
4.86597E-03 1.48181E-20
4.98817E-03 1.40940E-20
5.11188E-03 1.34134E-20
5.23711E-03 1.27731E-20
5.36383E-03 1.21704E-20
5.49207E-03 1.16026E-20
5.62181E-03 1.10673E-20
5.75306E-03 1.05624E-20
5.88581E-03 1.00859E-20
6.02007E-03 9.63568E-21
6.15583E-03 9.21019E-21
6.29310E-03 8.80781E-21
6.43187E-03 8.42703E-21
6.57214E-03 8.06647E-21
6.71392E-03 7.72489E-21
6.85720E-03 7.40108E-21
7.00198E-03 7.09395E-21
7.14827E-03 6.80250E-21
7.29605E-03 6.52577E-21
7.44534E-03 6.26286E-21
7.59612E-03 6.01299E-21
7.97965E-03 5.44038E-21
8.37255E-03 4.93393E-21
8.77480E-03 4.48468E-21
9.18641E-03 4.08510E-21
9.60736E-03 3.72875E-21
1.00376E-02 3.41017E-21
1.04773E-02 3.12465E-21
1.09262E-02 2.86820E-21
1.13844E-02 2.63734E-21
1.18520E-02 2.42907E-21
1.23288E-02 2.24081E-21
1.28150E-02 2.07030E-21
1.33104E-02 1.91558E-21
1.38150E-02 1.77494E-21
1.43290E-02 1.64686E-21
1.48521E-02 1.53004E-21
1.53845E-02 1.42331E-21
1.59262E-02 1.32565E-21
1.64770E-02 1.23615E-21
1.70371E-02 1.15401E-21
1.76063E-02 1.07853E-21
1.81848E-02 1.00906E-21
1.87724E-02 9.45042E-22
1.93692E-02 8.85976E-22
1.99751E-02 8.31410E-22
2.05901E-02 7.80942E-22
2.12143E-02 7.34209E-22
2.18476E-02 6.90885E-22
2.24900E-02 6.50680E-22
2.31415E-02 6.13327E-22
2.38021E-02 5.78590E-22
2.44717E-02 5.46252E-22
2.51504E-02 5.16118E-22
2.58382E-02 4.88013E-22
2.65349E-02 4.61774E-22
2.72407E-02 4.37256E-22
2.79555E-02 4.14326E-22
2.86793E-02 3.92864E-22
2.94120E-02 3.72757E-22
3.01537E-02 3.53906E-22
3.09043E-02 3.36218E-22
3.16639E-02 3.19609E-22
3.24324E-02 3.04000E-22
3.32098E-02 2.89322E-22
3.39961E-02 2.75508E-22
3.47912E-02 2.62499E-22
3.55952E-02 2.50240E-22
3.64081E-02 2.38679E-22
3.72297E-02 2.27770E-22
3.80602E-02 2.17469E-22
3.88995E-02 2.07736E-22
3.97476E-02 1.98535E-22
4.06044E-02 1.89831E-22
4.14700E-02 1.81592E-22
4.23443E-02 1.73790E-22
4.32273E-02 1.66396E-22
4.41190E-02 1.59387E-22
4.50194E-02 1.52737E-22
4.59284E-02 1.46426E-22
4.68461E-02 1.40433E-22
4.87074E-02 1.29327E-22
5.06030E-02 1.19282E-22
5.25328E-02 1.10181E-22
5.44967E-02 1.01919E-22
5.64946E-02 9.44058E-23
5.85262E-02 8.75624E-23
6.05914E-02 8.13187E-23
6.26901E-02 7.56133E-23
6.48222E-02 7.03918E-23
6.69873E-02 6.56063E-23
6.91854E-02 6.12142E-23
7.14163E-02 5.71775E-23
7.36799E-02 5.34625E-23
7.59760E-02 5.00393E-23
7.83043E-02 4.68812E-23
8.06647E-02 4.39639E-23
8.30571E-02 4.12659E-23
8.54812E-02 3.87681E-23
8.79369E-02 3.64530E-23
9.04240E-02 3.43049E-23
9.29422E-02 3.23097E-23
9.54915E-02 3.04547E-23
9.80716E-02 2.87283E-23
1.00682E-01 2.71200E-23
1.03323E-01 2.56205E-23
1.05995E-01 2.42211E-23
1.08696E-01 2.29139E-23
1.11427E-01 2.16918E-23
1.14188E-01 2.05484E-23
1.16978E-01 1.94777E-23
1.19797E-01 1.84742E-23
1.22645E-01 1.75332E-23
1.25522E-01 1.66499E-23
1.28428E-01 1.58202E-23
1.31361E-01 1.50404E-23
1.34323E-01 1.43068E-23
1.37313E-01 1.36163E-23
1.40330E-01 1.29660E-23
1.43375E-01 1.23531E-23
1.46447E-01 1.17750E-23
1.49545E-01 1.12294E-23
1.52671E-01 1.07143E-23
1.55823E-01 1.02276E-23
1.59001E-01 9.76744E-24
1.62205E-01 9.33216E-24
1.65435E-01 8.92019E-24
1.68690E-01 8.53005E-24
1.71970E-01 8.16039E-24
1.75276E-01 7.80997E-24
1.78606E-01 7.47758E-24
1.81961E-01 7.16216E-24
1.85340E-01 6.86269E-24
1.88743E-01 6.57822E-24
1.92169E-01 6.30786E-24
1.95619E-01 6.05082E-24
1.99092E-01 5.80631E-24
2.02589E-01 5.57361E-24
2.06107E-01 5.35207E-24
2.09649E-01 5.14105E-24
2.13212E-01 4.93996E-24
2.16797E-01 4.74827E-24
2.20404E-01 4.56546E-24
2.24032E-01 4.39104E-24
2.27680E-01 4.22456E-24
2.31350E-01 4.06561E-24
2.35040E-01 3.91378E-24
2.38751E-01 3.76870E-24
2.42481E-01 3.63002E-24
2.46231E-01 3.49741E-24
2.50000E-01 3.37055E-24
2.53788E-01 3.24916E-24
2.57595E-01 3.13296E-24
2.61421E-01 3.02169E-24
2.65264E-01 2.91511E-24
2.69126E-01 2.81299E-24
2.73005E-01 2.71510E-24
2.76901E-01 2.62124E-24
2.80814E-01 2.53123E-24
2.84744E-01 2.44487E-24
2.88691E-01 2.36200E-24
2.92653E-01 2.28244E-24
2.96632E-01 2.20605E-24
3.00625E-01 2.13268E-24
3.04634E-01 2.06213E-24
3.08658E-01 1.99433E-24
3.12697E-01 1.92914E-24
3.16749E-01 1.86646E-24
3.20816E-01 1.80617E-24
3.24896E-01 1.74817E-24
3.28990E-01 1.69234E-24
3.33097E-01 1.63861E-24
3.37216E-01 1.58687E-24
3.41348E-01 1.53703E-24
3.45492E-01 1.48903E-24
3.49647E-01 1.44277E-24
3.53814E-01 1.39819E-24
3.57992E-01 1.35521E-24
3.62181E-01 1.31377E-24
3.66381E-01 1.27380E-24
3.70590E-01 1.23524E-24
3.74810E-01 1.19804E-24
3.79039E-01 1.16213E-24
3.83277E-01 1.12747E-24
3.87524E-01 1.09400E-24
3.91780E-01 1.06168E-24
3.96044E-01 1.03046E-24
4.00316E-01 1.00030E-24
4.04596E-01 9.71158E-25
4.08882E-01 9.42989E-25
4.13176E-01 9.15758E-25
4.17476E-01 8.89428E-25
4.21783E-01 8.63965E-25
4.26095E-01 8.39336E-25
4.30413E-01 8.15508E-25
4.34737E-01 7.92452E-25
4.39065E-01 7.70139E-25
4.43398E-01 7.48541E-25
4.47736E-01 7.27630E-25
4.52077E-01 7.07382E-25
4.56422E-01 6.87773E-25
4.60770E-01 6.68779E-25
4.65122E-01 6.50377E-25
4.69476E-01 6.32546E-25
4.73832E-01 6.15265E-25
4.78190E-01 5.98516E-25
4.82550E-01 5.82278E-25
4.86912E-01 5.66534E-25
4.91274E-01 5.51267E-25
4.95637E-01 5.36459E-25
5.00000E-01 5.22095E-25
5.04363E-01 5.08159E-25
5.08726E-01 4.94637E-25
5.13088E-01 4.81514E-25
5.17450E-01 4.68776E-25
5.21810E-01 4.56411E-25
5.26168E-01 4.44406E-25
5.30524E-01 4.32749E-25
5.34878E-01 4.21428E-25
5.39230E-01 4.10433E-25
5.43578E-01 3.99751E-25
5.47923E-01 3.89373E-25
5.52264E-01 3.79289E-25
5.56602E-01 3.69490E-25
5.60935E-01 3.59965E-25
5.65263E-01 3.50707E-25
5.69587E-01 3.41706E-25
5.73905E-01 3.32954E-25
5.78217E-01 3.24444E-25
5.82524E-01 3.16168E-25
5.86824E-01 3.08118E-25
5.91118E-01 3.00288E-25
5.95404E-01 2.92669E-25
5.99684E-01 2.85257E-25
6.03956E-01 2.78044E-25
6.08220E-01 2.71024E-25
6.12476E-01 2.64191E-25
6.16723E-01 2.57541E-25
6.20961E-01 2.51066E-25
6.25190E-01 2.44762E-25
6.29410E-01 2.38623E-25
6.33619E-01 2.32645E-25
6.37819E-01 2.26823E-25
6.42008E-01 2.21153E-25
6.46186E-01 2.15628E-25
6.50353E-01 2.10247E-25
6.54508E-01 2.05003E-25
6.58652E-01 1.99894E-25
6.62784E-01 1.94915E-25
6.66903E-01 1.90062E-25
6.71010E-01 1.85333E-25
6.75104E-01 1.80722E-25
6.79184E-01 1.76228E-25
6.83251E-01 1.71846E-25
6.87303E-01 1.67574E-25
6.91342E-01 1.63408E-25
6.95366E-01 1.59345E-25
6.99375E-01 1.55383E-25
7.03368E-01 1.51518E-25
7.07347E-01 1.47749E-25
7.11309E-01 1.44071E-25
7.15256E-01 1.40484E-25
7.19186E-01 1.36984E-25
7.23099E-01 1.33569E-25
7.26995E-01 1.30236E-25
7.30874E-01 1.26984E-25
7.34736E-01 1.23811E-25
7.38579E-01 1.20713E-25
7.42405E-01 1.17689E-25
7.46212E-01 1.14738E-25
7.50000E-01 1.11857E-25
7.53769E-01 1.09044E-25
7.57519E-01 1.06298E-25
7.61249E-01 1.03617E-25
7.64960E-01 1.00999E-25
7.68650E-01 9.84429E-26
7.72320E-01 9.59464E-26
7.75968E-01 9.35084E-26
7.79596E-01 9.11274E-26
7.83203E-01 8.88018E-26
7.86788E-01 8.65303E-26
7.90351E-01 8.43115E-26
7.93893E-01 8.21442E-26
7.97411E-01 8.00269E-26
8.00908E-01 7.79586E-26
8.04381E-01 7.59379E-26
8.07831E-01 7.39636E-26
8.11257E-01 7.20348E-26
8.14660E-01 7.01501E-26
8.18039E-01 6.83086E-26
8.21394E-01 6.65093E-26
8.24724E-01 6.47510E-26
8.28030E-01 6.30329E-26
8.31310E-01 6.13539E-26
8.34565E-01 5.97132E-26
8.37795E-01 5.81098E-26
8.40999E-01 5.65429E-26
8.44177E-01 5.50115E-26
8.47329E-01 5.35150E-26
8.50455E-01 5.20524E-26
8.53553E-01 5.06230E-26
8.56625E-01 4.92260E-26
8.59670E-01 4.78607E-26
8.62687E-01 4.65264E-26
8.65677E-01 4.52223E-26
8.68639E-01 4.39479E-26
8.71572E-01 4.27023E-26
8.74478E-01 4.14851E-26
8.77355E-01 4.02955E-26
8.80203E-01 3.91330E-26
8.83022E-01 3.79970E-26
8.85812E-01 3.68869E-26
8.88573E-01 3.58021E-26
8.91304E-01 3.47421E-26
8.94005E-01 3.37064E-26
8.96677E-01 3.26944E-26
8.99318E-01 3.17057E-26
9.01928E-01 3.07398E-26
9.04508E-01 2.97962E-26
9.07058E-01 2.88745E-26
9.09576E-01 2.79741E-26
9.12063E-01 2.70948E-26
9.14519E-01 2.62360E-26
9.16943E-01 2.53973E-26
9.19335E-01 2.45784E-26
9.21696E-01 2.37788E-26
9.24024E-01 2.29982E-26
9.26320E-01 2.22362E-26
9.28584E-01 2.14925E-26
9.30815E-01 2.07667E-26
9.33013E-01 2.00585E-26
9.35178E-01 1.93676E-26
9.37310E-01 1.86935E-26
9.39409E-01 1.80361E-26
9.41474E-01 1.73951E-26
9.43505E-01 1.67700E-26
9.45503E-01 1.61607E-26
9.47467E-01 1.55669E-26
9.49397E-01 1.49884E-26
9.51293E-01 1.44247E-26
9.53154E-01 1.38758E-26
9.54981E-01 1.33413E-26
9.56773E-01 1.28211E-26
9.58530E-01 1.23148E-26
9.60252E-01 1.18224E-26
9.61940E-01 1.13434E-26
9.63592E-01 1.08779E-26
9.65209E-01 1.04254E-26
9.66790E-01 9.98593E-27
9.68336E-01 9.55920E-27
9.69846E-01 9.14504E-27
9.71321E-01 8.74327E-27
9.72759E-01 8.35372E-27
9.74162E-01 7.97622E-27
9.75528E-01 7.61062E-27
9.76858E-01 7.25675E-27
9.78152E-01 6.91447E-27
9.79410E-01 6.58363E-27
9.80631E-01 6.26409E-27
9.81815E-01 5.95572E-27
9.82963E-01 5.65838E-27
9.84074E-01 5.37195E-27
9.85148E-01 5.09631E-27
9.86185E-01 4.83135E-27
9.87185E-01 4.57696E-27
9.88148E-01 4.33302E-27
9.89074E-01 4.09943E-27
9.89962E-01 3.87611E-27
9.90814E-01 3.66296E-27
9.91627E-01 3.45988E-27
9.92404E-01 3.26680E-27
9.93143E-01 3.08363E-27
9.93844E-01 2.91031E-27
9.94508E-01 2.74675E-27
9.95134E-01 2.59289E-27
9.95722E-01 2.44867E-27
9.96273E-01 2.31403E-27
9.96786E-01 2.18891E-27
9.97261E-01 2.07326E-27
9.97698E-01 1.96704E-27
9.98097E-01 1.87020E-27
9.98459E-01 1.78270E-27
9.98782E-01 1.70450E-27
9.99067E-01 1.63558E-27
9.99315E-01 1.57591E-27
9.99524E-01 1.52546E-27
9.99695E-01 1.48421E-27
9.99829E-01 1.45214E-27
9.99924E-01 1.42925E-27
9.99981E-01 1.41551E-27
1.00000E+00 1.41094E-27
