 #
 # Subroutine ELSEPA. Elastic scattering of electrons and positrons
 #                    by neutral atoms and positive ions
 #
 # Projectile: electron
 # Kinetic energy = 9.00000E+06 eV = 3.30744E+05 a.u.
 #
 # WARNING: High-energy factorization with free-atom DF screening.
 #          Absorption, polarization and exchange corrections are
 #          switched off.
 #          Phase shifts are calculated for the bare nucleus.
 #          Scattering amplitudes are not evaluated.
 #
 # Element: Gd,  Z =  64,  atomic weight = 1.57250E+02 g/mol
 #
 # Nuclear model: Fermi distribution
 #                Average radius = 5.77538E-13 cm
 #                Skin thickness = 5.46000E-14 cm
 #
 # Number of electrons = 64
 #
 # Total elastic cross section = 7.42521E-18 cm**2 = 2.65159E-01 a0**2
 # 1st transport cross section = 7.96582E-23 cm**2 = 2.84465E-06 a0**2
 # 2nd transport cross section = 2.21327E-22 cm**2 = 7.90372E-06 a0**2
 #
 #
 # Differential cross section:                       MU=(1-COS(THETA))/2
 #
 #  THETA        MU          DCS          DCS        Sherman      error
 #  (deg)                 (cm**2/sr)   (a0**2/sr)    function
 #----------------------------------------------------------------------
0.00000E+00 7.77377E-12
7.61557E-13 7.77346E-12
1.18994E-12 7.77329E-12
1.71346E-12 7.77309E-12
2.33225E-12 7.77284E-12
3.04617E-12 7.77256E-12
3.85530E-12 7.77224E-12
4.75964E-12 7.77188E-12
5.75917E-12 7.77148E-12
6.85391E-12 7.77105E-12
8.04379E-12 7.77058E-12
9.32893E-12 7.77007E-12
1.07092E-11 7.76953E-12
1.21847E-11 7.76894E-12
1.37554E-11 7.76832E-12
1.54213E-11 7.76767E-12
1.71823E-11 7.76697E-12
1.90386E-11 7.76624E-12
2.09900E-11 7.76547E-12
2.30367E-11 7.76466E-12
2.51785E-11 7.76382E-12
2.74156E-11 7.76293E-12
2.97478E-11 7.76202E-12
3.21752E-11 7.76106E-12
3.46979E-11 7.76006E-12
3.73157E-11 7.75903E-12
4.00286E-11 7.75796E-12
4.28368E-11 7.75686E-12
4.57402E-11 7.75572E-12
4.87388E-11 7.75454E-12
5.18325E-11 7.75332E-12
5.50215E-11 7.75206E-12
5.83057E-11 7.75077E-12
6.16850E-11 7.74945E-12
6.51595E-11 7.74808E-12
6.87293E-11 7.74668E-12
7.23943E-11 7.74524E-12
7.61544E-11 7.74376E-12
1.18991E-10 7.72698E-12
1.71347E-10 7.70655E-12
2.33223E-10 7.68252E-12
3.04617E-10 7.65495E-12
3.85531E-10 7.62391E-12
4.75965E-10 7.58945E-12
5.75917E-10 7.55167E-12
6.85389E-10 7.51064E-12
8.04380E-10 7.46646E-12
9.32891E-10 7.41922E-12
1.07092E-09 7.36904E-12
1.21847E-09 7.31601E-12
1.37554E-09 7.26025E-12
1.54213E-09 7.20188E-12
1.71823E-09 7.14101E-12
1.90386E-09 7.07778E-12
2.09900E-09 7.01230E-12
2.30367E-09 6.94470E-12
2.51785E-09 6.87512E-12
2.74156E-09 6.80392E-12
2.97478E-09 6.73094E-12
3.21752E-09 6.65625E-12
3.46978E-09 6.57998E-12
3.73156E-09 6.50225E-12
4.00286E-09 6.42327E-12
4.28368E-09 6.34378E-12
4.57402E-09 6.26319E-12
4.87388E-09 6.18162E-12
5.18326E-09 6.09919E-12
5.50215E-09 6.01599E-12
5.83057E-09 5.93248E-12
6.16850E-09 5.84910E-12
6.51596E-09 5.76527E-12
6.87293E-09 5.68110E-12
7.23942E-09 5.59668E-12
7.61544E-09 5.51209E-12
1.18991E-08 4.69061E-12
1.71347E-08 3.94577E-12
2.33223E-08 3.30753E-12
3.04617E-08 2.78012E-12
3.85531E-08 2.35180E-12
4.75965E-08 2.00576E-12
5.75917E-08 1.72576E-12
6.85389E-08 1.49747E-12
8.04380E-08 1.30923E-12
9.32891E-08 1.15225E-12
1.07092E-07 1.01983E-12
1.21847E-07 9.06663E-13
1.37554E-07 8.09285E-13
1.54213E-07 7.24846E-13
1.71823E-07 6.51033E-13
1.90386E-07 5.86141E-13
2.09900E-07 5.28979E-13
2.30367E-07 4.78446E-13
2.51785E-07 4.33535E-13
2.74156E-07 3.90902E-13
2.97478E-07 3.53971E-13
3.21752E-07 3.22185E-13
3.46978E-07 2.94684E-13
3.73156E-07 2.70772E-13
4.00286E-07 2.49485E-13
4.28368E-07 2.27928E-13
4.57402E-07 2.09060E-13
4.87388E-07 1.92476E-13
5.18325E-07 1.77841E-13
5.50215E-07 1.64878E-13
5.83057E-07 1.52871E-13
6.16850E-07 1.41284E-13
6.51596E-07 1.30961E-13
6.87293E-07 1.21734E-13
7.23942E-07 1.13463E-13
7.61543E-07 1.06026E-13
1.18991E-06 5.55516E-14
1.71347E-06 3.16444E-14
2.33223E-06 1.91377E-14
3.04617E-06 1.21626E-14
3.85531E-06 8.09830E-15
4.75964E-06 5.62097E-15
5.75916E-06 4.04123E-15
6.85388E-06 2.98974E-15
8.04378E-06 2.26343E-15
9.32888E-06 1.74827E-15
1.07092E-05 1.37255E-15
1.21846E-05 1.09170E-15
1.37553E-05 8.78484E-16
1.54212E-05 7.14394E-16
1.71822E-05 5.86565E-16
1.90385E-05 4.85658E-16
2.09899E-05 4.05803E-16
2.30365E-05 3.41553E-16
2.51783E-05 2.89373E-16
2.74153E-05 2.46561E-16
2.97475E-05 2.11553E-16
3.21749E-05 1.82504E-16
3.46974E-05 1.58287E-16
3.73152E-05 1.38030E-16
4.00281E-05 1.20868E-16
4.28362E-05 1.06373E-16
4.57395E-05 9.39345E-17
4.87380E-05 8.33022E-17
5.18317E-05 7.41161E-17
5.50205E-05 6.61654E-17
5.83045E-05 5.92614E-17
6.16838E-05 5.32263E-17
6.51582E-05 4.79604E-17
6.87277E-05 4.33144E-17
7.23925E-05 3.92323E-17
7.61524E-05 3.56149E-17
9.21439E-05 2.47293E-17
1.09658E-04 1.76993E-17
1.28695E-04 1.30003E-17
1.49255E-04 9.76089E-18
1.71338E-04 7.47003E-18
1.94942E-04 5.81223E-18
2.20070E-04 4.58962E-18
2.46720E-04 3.67212E-18
2.74892E-04 2.97266E-18
3.04586E-04 2.43207E-18
3.35803E-04 2.00901E-18
3.68542E-04 1.67414E-18
4.02802E-04 1.40627E-18
4.38585E-04 1.18995E-18
4.75889E-04 1.01375E-18
5.14715E-04 8.69042E-19
5.55063E-04 7.49300E-19
5.96931E-04 6.49535E-19
6.40321E-04 5.65876E-19
6.85233E-04 4.95295E-19
7.31665E-04 4.35409E-19
7.79618E-04 3.84331E-19
8.29092E-04 3.40551E-19
8.80086E-04 3.02847E-19
9.32601E-04 2.70235E-19
9.86636E-04 2.41911E-19
1.04219E-03 2.17214E-19
1.09927E-03 1.95599E-19
1.15786E-03 1.76615E-19
1.21797E-03 1.59888E-19
1.27961E-03 1.45102E-19
1.34276E-03 1.31991E-19
1.40743E-03 1.20334E-19
1.47362E-03 1.09941E-19
1.54133E-03 1.00649E-19
1.61056E-03 9.23228E-20
1.68131E-03 8.48431E-20
1.75357E-03 7.81089E-20
1.82735E-03 7.20323E-20
1.90265E-03 6.65377E-20
1.97947E-03 6.15593E-20
2.05780E-03 5.70401E-20
2.13765E-03 5.29298E-20
2.21902E-03 4.91848E-20
2.30190E-03 4.57668E-20
2.38630E-03 4.26420E-20
2.47222E-03 3.97807E-20
2.55965E-03 3.71565E-20
2.64859E-03 3.47464E-20
2.73905E-03 3.25295E-20
2.83103E-03 3.04876E-20
2.92452E-03 2.86044E-20
3.01952E-03 2.68650E-20
3.11604E-03 2.52567E-20
3.21407E-03 2.37678E-20
3.31362E-03 2.23875E-20
3.41468E-03 2.11066E-20
3.51725E-03 1.99166E-20
3.62133E-03 1.88099E-20
3.72692E-03 1.77794E-20
3.83403E-03 1.68190E-20
3.94265E-03 1.59231E-20
4.05278E-03 1.50864E-20
4.16442E-03 1.43044E-20
4.27757E-03 1.35728E-20
4.39223E-03 1.28877E-20
4.50840E-03 1.22456E-20
4.62608E-03 1.16433E-20
4.74527E-03 1.10779E-20
4.86597E-03 1.05466E-20
4.98817E-03 1.00471E-20
5.11188E-03 9.57707E-21
5.23711E-03 9.13442E-21
5.36383E-03 8.71728E-21
5.49207E-03 8.32389E-21
5.62181E-03 7.95263E-21
5.75306E-03 7.60204E-21
5.88581E-03 7.27074E-21
6.02007E-03 6.95744E-21
6.15583E-03 6.66101E-21
6.29310E-03 6.38036E-21
6.43187E-03 6.11447E-21
6.57214E-03 5.86242E-21
6.71392E-03 5.62337E-21
6.85720E-03 5.39651E-21
7.00198E-03 5.18108E-21
7.14827E-03 4.97641E-21
7.29605E-03 4.78187E-21
7.44534E-03 4.59683E-21
7.59612E-03 4.42076E-21
7.97965E-03 4.01648E-21
8.37255E-03 3.65787E-21
8.77480E-03 3.33884E-21
9.18641E-03 3.05424E-21
9.60736E-03 2.79969E-21
1.00376E-02 2.57143E-21
1.04773E-02 2.36626E-21
1.09262E-02 2.18141E-21
1.13844E-02 2.01451E-21
1.18520E-02 1.86348E-21
1.23288E-02 1.72654E-21
1.28150E-02 1.60213E-21
1.33104E-02 1.48889E-21
1.38150E-02 1.38563E-21
1.43290E-02 1.29131E-21
1.48521E-02 1.20501E-21
1.53845E-02 1.12591E-21
1.59262E-02 1.05330E-21
1.64770E-02 9.86553E-22
1.70371E-02 9.25098E-22
1.76063E-02 8.68438E-22
1.81848E-02 8.16128E-22
1.87724E-02 7.67768E-22
1.93692E-02 7.23003E-22
1.99751E-02 6.81515E-22
2.05901E-02 6.43017E-22
2.12143E-02 6.07251E-22
2.18476E-02 5.73986E-22
2.24900E-02 5.43014E-22
2.31415E-02 5.14145E-22
2.38021E-02 4.87208E-22
2.44717E-02 4.62049E-22
2.51504E-02 4.38527E-22
2.58382E-02 4.16515E-22
2.65349E-02 3.95897E-22
2.72407E-02 3.76566E-22
2.79555E-02 3.58427E-22
2.86793E-02 3.41391E-22
2.94120E-02 3.25379E-22
3.01537E-02 3.10315E-22
3.09043E-02 2.96134E-22
3.16639E-02 2.82771E-22
3.24324E-02 2.70172E-22
3.32098E-02 2.58283E-22
3.39961E-02 2.47057E-22
3.47912E-02 2.36448E-22
3.55952E-02 2.26417E-22
3.64081E-02 2.16926E-22
3.72297E-02 2.07938E-22
3.80602E-02 1.99423E-22
3.88995E-02 1.91350E-22
3.97476E-02 1.83691E-22
4.06044E-02 1.76422E-22
4.14700E-02 1.69518E-22
4.23443E-02 1.62957E-22
4.32273E-02 1.56718E-22
4.41190E-02 1.50783E-22
4.50194E-02 1.45133E-22
4.59284E-02 1.39752E-22
4.68461E-02 1.34625E-22
4.87074E-02 1.25075E-22
5.06030E-02 1.16379E-22
5.25328E-02 1.08444E-22
5.44967E-02 1.01191E-22
5.64946E-02 9.45495E-23
5.85262E-02 8.84584E-23
6.05914E-02 8.28624E-23
6.26901E-02 7.77135E-23
6.48222E-02 7.29687E-23
6.69873E-02 6.85899E-23
6.91854E-02 6.45431E-23
7.14163E-02 6.07981E-23
7.36799E-02 5.73279E-23
7.59760E-02 5.41081E-23
7.83043E-02 5.11169E-23
8.06647E-02 4.83348E-23
8.30571E-02 4.57443E-23
8.54812E-02 4.33294E-23
8.79369E-02 4.10756E-23
9.04240E-02 3.89702E-23
9.29422E-02 3.70013E-23
9.54915E-02 3.51580E-23
9.80716E-02 3.34309E-23
1.00682E-01 3.18111E-23
1.03323E-01 3.02905E-23
1.05995E-01 2.88617E-23
1.08696E-01 2.75181E-23
1.11427E-01 2.62535E-23
1.14188E-01 2.50622E-23
1.16978E-01 2.39392E-23
1.19797E-01 2.28798E-23
1.22645E-01 2.18794E-23
1.25522E-01 2.09342E-23
1.28428E-01 2.00405E-23
1.31361E-01 1.91949E-23
1.34323E-01 1.83942E-23
1.37313E-01 1.76356E-23
1.40330E-01 1.69163E-23
1.43375E-01 1.62339E-23
1.46447E-01 1.55861E-23
1.49545E-01 1.49708E-23
1.52671E-01 1.43860E-23
1.55823E-01 1.38298E-23
1.59001E-01 1.33007E-23
1.62205E-01 1.27968E-23
1.65435E-01 1.23169E-23
1.68690E-01 1.18595E-23
1.71970E-01 1.14234E-23
1.75276E-01 1.10073E-23
1.78606E-01 1.06101E-23
1.81961E-01 1.02308E-23
1.85340E-01 9.86841E-24
1.88743E-01 9.52201E-24
1.92169E-01 9.19074E-24
1.95619E-01 8.87380E-24
1.99092E-01 8.57045E-24
2.02589E-01 8.27997E-24
2.06107E-01 8.00170E-24
2.09649E-01 7.73501E-24
2.13212E-01 7.47933E-24
2.16797E-01 7.23411E-24
2.20404E-01 6.99881E-24
2.24032E-01 6.77297E-24
2.27680E-01 6.55611E-24
2.31350E-01 6.34780E-24
2.35040E-01 6.14763E-24
2.38751E-01 5.95522E-24
2.42481E-01 5.77021E-24
2.46231E-01 5.59225E-24
2.50000E-01 5.42100E-24
2.53788E-01 5.25618E-24
2.57595E-01 5.09748E-24
2.61421E-01 4.94463E-24
2.65264E-01 4.79736E-24
2.69126E-01 4.65543E-24
2.73005E-01 4.51859E-24
2.76901E-01 4.38662E-24
2.80814E-01 4.25934E-24
2.84744E-01 4.13652E-24
2.88691E-01 4.01799E-24
2.92653E-01 3.90355E-24
2.96632E-01 3.79305E-24
3.00625E-01 3.68632E-24
3.04634E-01 3.58319E-24
3.08658E-01 3.48353E-24
3.12697E-01 3.38720E-24
3.16749E-01 3.29405E-24
3.20816E-01 3.20397E-24
3.24896E-01 3.11682E-24
3.28990E-01 3.03250E-24
3.33097E-01 2.95090E-24
3.37216E-01 2.87190E-24
3.41348E-01 2.79541E-24
3.45492E-01 2.72134E-24
3.49647E-01 2.64958E-24
3.53814E-01 2.58006E-24
3.57992E-01 2.51268E-24
3.62181E-01 2.44738E-24
3.66381E-01 2.38406E-24
3.70590E-01 2.32267E-24
3.74810E-01 2.26313E-24
3.79039E-01 2.20536E-24
3.83277E-01 2.14932E-24
3.87524E-01 2.09493E-24
3.91780E-01 2.04214E-24
3.96044E-01 1.99090E-24
4.00316E-01 1.94114E-24
4.04596E-01 1.89281E-24
4.08882E-01 1.84588E-24
4.13176E-01 1.80028E-24
4.17476E-01 1.75597E-24
4.21783E-01 1.71291E-24
4.26095E-01 1.67106E-24
4.30413E-01 1.63037E-24
4.34737E-01 1.59081E-24
4.39065E-01 1.55235E-24
4.43398E-01 1.51493E-24
4.47736E-01 1.47854E-24
4.52077E-01 1.44313E-24
4.56422E-01 1.40867E-24
4.60770E-01 1.37514E-24
4.65122E-01 1.34251E-24
4.69476E-01 1.31074E-24
4.73832E-01 1.27980E-24
4.78190E-01 1.24968E-24
4.82550E-01 1.22035E-24
4.86912E-01 1.19178E-24
4.91274E-01 1.16395E-24
4.95637E-01 1.13683E-24
5.00000E-01 1.11041E-24
5.04363E-01 1.08466E-24
5.08726E-01 1.05956E-24
5.13088E-01 1.03510E-24
5.17450E-01 1.01125E-24
5.21810E-01 9.88000E-25
5.26168E-01 9.65325E-25
5.30524E-01 9.43212E-25
5.34878E-01 9.21644E-25
5.39230E-01 9.00605E-25
5.43578E-01 8.80080E-25
5.47923E-01 8.60053E-25
5.52264E-01 8.40512E-25
5.56602E-01 8.21441E-25
5.60935E-01 8.02828E-25
5.65263E-01 7.84660E-25
5.69587E-01 7.66924E-25
5.73905E-01 7.49608E-25
5.78217E-01 7.32701E-25
5.82524E-01 7.16191E-25
5.86824E-01 7.00067E-25
5.91118E-01 6.84319E-25
5.95404E-01 6.68936E-25
5.99684E-01 6.53909E-25
6.03956E-01 6.39228E-25
6.08220E-01 6.24884E-25
6.12476E-01 6.10867E-25
6.16723E-01 5.97170E-25
6.20961E-01 5.83783E-25
6.25190E-01 5.70699E-25
6.29410E-01 5.57910E-25
6.33619E-01 5.45407E-25
6.37819E-01 5.33184E-25
6.42008E-01 5.21233E-25
6.46186E-01 5.09548E-25
6.50353E-01 4.98120E-25
6.54508E-01 4.86945E-25
6.58652E-01 4.76016E-25
6.62784E-01 4.65326E-25
6.66903E-01 4.54869E-25
6.71010E-01 4.44640E-25
6.75104E-01 4.34632E-25
6.79184E-01 4.24841E-25
6.83251E-01 4.15262E-25
6.87303E-01 4.05888E-25
6.91342E-01 3.96715E-25
6.95366E-01 3.87738E-25
6.99375E-01 3.78953E-25
7.03368E-01 3.70354E-25
7.07347E-01 3.61938E-25
7.11309E-01 3.53699E-25
7.15256E-01 3.45634E-25
7.19186E-01 3.37739E-25
7.23099E-01 3.30009E-25
7.26995E-01 3.22442E-25
7.30874E-01 3.15032E-25
7.34736E-01 3.07776E-25
7.38579E-01 3.00672E-25
7.42405E-01 2.93714E-25
7.46212E-01 2.86901E-25
7.50000E-01 2.80228E-25
7.53769E-01 2.73693E-25
7.57519E-01 2.67292E-25
7.61249E-01 2.61023E-25
7.64960E-01 2.54882E-25
7.68650E-01 2.48867E-25
7.72320E-01 2.42975E-25
7.75968E-01 2.37203E-25
7.79596E-01 2.31548E-25
7.83203E-01 2.26009E-25
7.86788E-01 2.20582E-25
7.90351E-01 2.15265E-25
7.93893E-01 2.10056E-25
7.97411E-01 2.04952E-25
8.00908E-01 1.99951E-25
8.04381E-01 1.95052E-25
8.07831E-01 1.90251E-25
8.11257E-01 1.85547E-25
8.14660E-01 1.80938E-25
8.18039E-01 1.76422E-25
8.21394E-01 1.71997E-25
8.24724E-01 1.67660E-25
8.28030E-01 1.63412E-25
8.31310E-01 1.59248E-25
8.34565E-01 1.55168E-25
8.37795E-01 1.51171E-25
8.40999E-01 1.47254E-25
8.44177E-01 1.43416E-25
8.47329E-01 1.39655E-25
8.50455E-01 1.35970E-25
8.53553E-01 1.32359E-25
8.56625E-01 1.28822E-25
8.59670E-01 1.25355E-25
8.62687E-01 1.21959E-25
8.65677E-01 1.18632E-25
8.68639E-01 1.15372E-25
8.71572E-01 1.12179E-25
8.74478E-01 1.09050E-25
8.77355E-01 1.05986E-25
8.80203E-01 1.02984E-25
8.83022E-01 1.00043E-25
8.85812E-01 9.71630E-26
8.88573E-01 9.43422E-26
8.91304E-01 9.15797E-26
8.94005E-01 8.88743E-26
8.96677E-01 8.62252E-26
8.99318E-01 8.36313E-26
9.01928E-01 8.10918E-26
9.04508E-01 7.86055E-26
9.07058E-01 7.61717E-26
9.09576E-01 7.37894E-26
9.12063E-01 7.14579E-26
9.14519E-01 6.91762E-26
9.16943E-01 6.69435E-26
9.19335E-01 6.47591E-26
9.21696E-01 6.26221E-26
9.24024E-01 6.05318E-26
9.26320E-01 5.84875E-26
9.28584E-01 5.64884E-26
9.30815E-01 5.45338E-26
9.33013E-01 5.26231E-26
9.35178E-01 5.07556E-26
9.37310E-01 4.89306E-26
9.39409E-01 4.71476E-26
9.41474E-01 4.54058E-26
9.43505E-01 4.37047E-26
9.45503E-01 4.20438E-26
9.47467E-01 4.04224E-26
9.49397E-01 3.88400E-26
9.51293E-01 3.72960E-26
9.53154E-01 3.57900E-26
9.54981E-01 3.43215E-26
9.56773E-01 3.28898E-26
9.58530E-01 3.14947E-26
9.60252E-01 3.01355E-26
9.61940E-01 2.88118E-26
9.63592E-01 2.75233E-26
9.65209E-01 2.62694E-26
9.66790E-01 2.50498E-26
9.68336E-01 2.38641E-26
9.69846E-01 2.27118E-26
9.71321E-01 2.15927E-26
9.72759E-01 2.05062E-26
9.74162E-01 1.94522E-26
9.75528E-01 1.84301E-26
9.76858E-01 1.74398E-26
9.78152E-01 1.64808E-26
9.79410E-01 1.55530E-26
9.80631E-01 1.46558E-26
9.81815E-01 1.37892E-26
9.82963E-01 1.29528E-26
9.84074E-01 1.21463E-26
9.85148E-01 1.13694E-26
9.86185E-01 1.06220E-26
9.87185E-01 9.90384E-27
9.88148E-01 9.21460E-27
9.89074E-01 8.55410E-27
9.89962E-01 7.92213E-27
9.90814E-01 7.31850E-27
9.91627E-01 6.74301E-27
9.92404E-01 6.19548E-27
9.93143E-01 5.67574E-27
9.93844E-01 5.18362E-27
9.94508E-01 4.71898E-27
9.95134E-01 4.28165E-27
9.95722E-01 3.87151E-27
9.96273E-01 3.48843E-27
9.96786E-01 3.13229E-27
9.97261E-01 2.80297E-27
9.97698E-01 2.50037E-27
9.98097E-01 2.22440E-27
9.98459E-01 1.97498E-27
9.98782E-01 1.75201E-27
9.99067E-01 1.55544E-27
9.99315E-01 1.38521E-27
9.99524E-01 1.24125E-27
9.99695E-01 1.12353E-27
9.99829E-01 1.03201E-27
9.99924E-01 9.66654E-28
9.99981E-01 9.27450E-28
1.00000E+00 9.14383E-28
