 #
 # Subroutine ELSEPA. Elastic scattering of electrons and positrons
 #                    by neutral atoms and positive ions
 #
 # Projectile: electron
 # Kinetic energy = 9.00000E+08 eV = 3.30744E+07 a.u.
 #
 # WARNING: High-energy factorization with free-atom DF screening.
 #          Absorption, polarization and exchange corrections are
 #          switched off.
 #          Phase shifts are calculated for the bare nucleus.
 #          Scattering amplitudes are not evaluated.
 #
 # Element: Gd,  Z =  64,  atomic weight = 1.57250E+02 g/mol
 #
 # Nuclear model: Fermi distribution
 #                Average radius = 5.77538E-13 cm
 #                Skin thickness = 5.46000E-14 cm
 #
 # Number of electrons = 64
 #
 # Total elastic cross section = 7.32015E-18 cm**2 = 2.61407E-01 a0**2
 # 1st transport cross section = 9.70915E-27 cm**2 = 3.46720E-10 a0**2
 # 2nd transport cross section = 2.91240E-26 cm**2 = 1.04004E-09 a0**2
 #
 #
 # Differential cross section:                       MU=(1-COS(THETA))/2
 #
 #  THETA        MU          DCS          DCS        Sherman      error
 #  (deg)                 (cm**2/sr)   (a0**2/sr)    function
 #----------------------------------------------------------------------
0.00000E+00 6.96879E-08
7.61557E-13 5.09795E-08
1.18994E-12 4.39038E-08
1.71346E-12 3.73447E-08
2.33225E-12 3.16081E-08
3.04617E-12 2.67633E-08
3.85530E-12 2.27686E-08
4.75964E-12 1.95020E-08
5.75917E-12 1.68333E-08
6.85391E-12 1.46456E-08
8.04379E-12 1.28353E-08
9.32893E-12 1.13235E-08
1.07092E-11 1.00448E-08
1.21847E-11 8.95446E-09
1.37554E-11 8.01545E-09
1.54213E-11 7.19834E-09
1.71823E-11 6.48484E-09
1.90386E-11 5.85662E-09
2.09900E-11 5.30090E-09
2.30367E-11 4.80873E-09
2.51785E-11 4.36982E-09
2.74156E-11 3.97833E-09
2.97478E-11 3.61073E-09
3.21752E-11 3.28106E-09
3.46979E-11 2.99560E-09
3.73157E-11 2.74725E-09
4.00286E-11 2.53020E-09
4.28368E-11 2.33967E-09
4.57402E-11 2.15619E-09
4.87388E-11 1.98188E-09
5.18325E-11 1.82803E-09
5.50215E-11 1.69176E-09
5.83057E-11 1.57062E-09
6.16850E-11 1.46256E-09
6.51595E-11 1.36051E-09
6.87293E-11 1.26272E-09
7.23943E-11 1.17507E-09
7.61544E-11 1.09627E-09
1.18991E-10 5.83181E-10
1.71347E-10 3.35593E-10
2.33223E-10 2.04256E-10
3.04617E-10 1.30629E-10
3.85531E-10 8.71482E-11
4.75965E-10 6.04935E-11
5.75917E-10 4.34769E-11
6.85389E-10 3.21658E-11
8.04380E-10 2.43616E-11
9.32891E-10 1.88269E-11
1.07092E-09 1.47925E-11
1.21847E-09 1.17886E-11
1.37554E-09 9.50497E-12
1.54213E-09 7.74046E-12
1.71823E-09 6.36388E-12
1.90386E-09 5.27741E-12
2.09900E-09 4.41154E-12
2.30367E-09 3.71527E-12
2.51785E-09 3.14972E-12
2.74156E-09 2.68718E-12
2.97478E-09 2.30509E-12
3.21752E-09 1.98940E-12
3.46978E-09 1.72696E-12
3.73156E-09 1.50519E-12
4.00286E-09 1.31892E-12
4.28368E-09 1.16005E-12
4.57402E-09 1.02464E-12
4.87388E-09 9.08639E-13
5.18326E-09 8.08380E-13
5.50215E-09 7.21946E-13
5.83057E-09 6.46478E-13
6.16850E-09 5.80794E-13
6.51596E-09 5.23264E-13
6.87293E-09 4.72635E-13
7.23942E-09 4.28136E-13
7.61544E-09 3.88591E-13
1.18991E-08 1.65036E-13
1.71347E-08 8.14942E-14
2.33223E-08 4.46930E-14
3.04617E-08 2.64918E-14
3.85531E-08 1.66756E-14
4.75965E-08 1.10114E-14
5.75917E-08 7.56035E-15
6.85389E-08 5.36166E-15
8.04380E-08 3.90746E-15
9.32891E-08 2.91468E-15
1.07092E-07 2.21821E-15
1.21847E-07 1.71794E-15
1.37554E-07 1.35110E-15
1.54213E-07 1.07717E-15
1.71823E-07 8.69274E-16
1.90386E-07 7.09195E-16
2.09900E-07 5.84321E-16
2.30367E-07 4.85754E-16
2.51785E-07 4.07117E-16
2.74156E-07 3.43763E-16
2.97478E-07 2.92262E-16
3.21752E-07 2.50051E-16
3.46978E-07 2.15189E-16
3.73156E-07 1.86196E-16
4.00286E-07 1.61921E-16
4.28368E-07 1.41476E-16
4.57402E-07 1.24157E-16
4.87388E-07 1.09407E-16
5.18325E-07 9.67837E-17
5.50215E-07 8.59287E-17
5.83057E-07 7.65529E-17
6.16850E-07 6.84213E-17
6.51596E-07 6.13409E-17
6.87293E-07 5.51527E-17
7.23942E-07 4.97253E-17
7.61543E-07 4.49492E-17
1.18991E-06 1.84496E-17
1.71347E-06 8.90821E-18
2.33223E-06 4.81229E-18
3.04617E-06 2.82251E-18
3.85531E-06 1.76287E-18
4.75964E-06 1.15705E-18
5.75916E-06 7.90531E-19
6.85388E-06 5.58326E-19
8.04378E-06 4.05464E-19
9.32888E-06 3.01522E-19
1.07092E-05 2.28858E-19
1.21846E-05 1.76826E-19
1.37553E-05 1.38779E-19
1.54212E-05 1.10439E-19
1.71822E-05 8.89785E-20
1.90385E-05 7.24548E-20
2.09899E-05 5.96514E-20
2.30365E-05 4.95499E-20
2.51783E-05 4.14904E-20
2.74153E-05 3.49980E-20
2.97475E-05 2.97242E-20
3.21749E-05 2.54067E-20
3.46974E-05 2.18473E-20
3.73152E-05 1.88924E-20
4.00281E-05 1.64226E-20
4.28362E-05 1.43444E-20
4.57395E-05 1.25850E-20
4.87380E-05 1.10868E-20
5.18317E-05 9.80452E-21
5.50205E-05 8.70199E-21
5.83045E-05 7.75005E-21
6.16838E-05 6.92490E-21
6.51582E-05 6.20696E-21
6.87277E-05 5.57996E-21
7.23925E-05 5.03038E-21
7.61524E-05 4.57264E-21
9.21439E-05 3.11360E-21
1.09658E-04 2.18882E-21
1.28695E-04 1.58039E-21
1.49255E-04 1.16689E-21
1.71338E-04 8.78316E-22
1.94942E-04 6.72096E-22
2.20070E-04 5.21733E-22
2.46720E-04 4.10134E-22
2.74892E-04 3.25986E-22
3.04586E-04 2.61659E-22
3.35803E-04 2.11861E-22
3.68542E-04 1.72883E-22
4.02802E-04 1.42065E-22
4.38585E-04 1.17476E-22
4.75889E-04 9.76954E-23
5.14715E-04 8.16631E-23
5.55063E-04 6.85801E-23
5.96931E-04 5.78365E-23
6.40321E-04 4.89635E-23
6.85233E-04 4.15969E-23
7.31665E-04 3.54512E-23
7.79618E-04 3.03013E-23
8.29092E-04 2.59681E-23
8.80086E-04 2.23083E-23
9.32601E-04 1.92064E-23
9.86636E-04 1.65690E-23
1.04219E-03 1.43197E-23
1.09927E-03 1.23963E-23
1.15786E-03 1.07473E-23
1.21797E-03 9.33028E-24
1.27961E-03 8.10998E-24
1.34276E-03 7.05699E-24
1.40743E-03 6.14673E-24
1.47362E-03 5.35853E-24
1.54133E-03 4.67498E-24
1.61056E-03 4.08134E-24
1.68131E-03 3.56515E-24
1.75357E-03 3.11577E-24
1.82735E-03 2.72415E-24
1.90265E-03 2.38255E-24
1.97947E-03 2.08433E-24
2.05780E-03 1.82380E-24
2.13765E-03 1.59603E-24
2.21902E-03 1.39681E-24
2.30190E-03 1.22247E-24
2.38630E-03 1.06985E-24
2.47222E-03 9.36206E-25
2.55965E-03 8.19145E-25
2.64859E-03 7.16598E-25
2.73905E-03 6.26759E-25
2.83103E-03 5.48050E-25
2.92452E-03 4.79098E-25
3.01952E-03 4.18701E-25
3.11604E-03 3.65807E-25
3.21407E-03 3.19495E-25
3.31362E-03 2.78959E-25
3.41468E-03 2.43492E-25
3.51725E-03 2.12472E-25
3.62133E-03 1.85355E-25
3.72692E-03 1.61662E-25
3.83403E-03 1.40972E-25
3.94265E-03 1.22917E-25
4.05278E-03 1.07169E-25
4.16442E-03 9.34448E-26
4.27757E-03 8.14919E-26
4.39223E-03 7.10895E-26
4.50840E-03 6.20434E-26
4.62608E-03 5.41825E-26
4.74527E-03 4.73570E-26
4.86597E-03 4.14347E-26
4.98817E-03 3.62999E-26
5.11188E-03 3.18508E-26
5.23711E-03 2.79983E-26
5.36383E-03 2.46641E-26
5.49207E-03 2.17797E-26
5.62181E-03 1.92852E-26
5.75306E-03 1.71281E-26
5.88581E-03 1.52625E-26
6.02007E-03 1.36486E-26
6.15583E-03 1.22516E-26
6.29310E-03 1.10410E-26
6.43187E-03 9.99064E-27
6.57214E-03 9.07763E-27
6.71392E-03 8.28221E-27
6.85720E-03 7.58729E-27
7.00198E-03 6.97813E-27
7.14827E-03 6.44205E-27
7.29605E-03 5.96817E-27
7.44534E-03 5.54717E-27
7.59612E-03 5.17108E-27
7.97965E-03 4.38542E-27
8.37255E-03 3.76043E-27
8.77480E-03 3.24382E-27
9.18641E-03 2.80252E-27
9.60736E-03 2.41629E-27
1.00376E-02 2.07313E-27
1.04773E-02 1.76621E-27
1.09262E-02 1.49167E-27
1.13844E-02 1.24729E-27
1.18520E-02 1.03152E-27
1.23288E-02 8.43024E-28
1.28150E-02 6.80365E-28
1.33104E-02 5.41886E-28
1.38150E-02 4.25697E-28
1.43290E-02 3.29712E-28
1.48521E-02 2.51722E-28
1.53845E-02 1.89468E-28
1.59262E-02 1.40721E-28
1.64770E-02 1.03343E-28
1.70371E-02 7.53460E-29
1.76063E-02 5.49212E-29
1.81848E-02 4.04670E-29
1.87724E-02 3.05969E-29
1.93692E-02 2.41396E-29
1.99751E-02 2.01294E-29
2.05901E-02 1.77913E-29
2.12143E-02 1.65213E-29
2.18476E-02 1.58650E-29
2.24900E-02 1.54948E-29
2.31415E-02 1.51877E-29
2.38021E-02 1.48043E-29
2.44717E-02 1.42701E-29
2.51504E-02 1.35581E-29
2.58382E-02 1.26751E-29
2.65349E-02 1.16490E-29
2.72407E-02 1.05201E-29
2.79555E-02 9.33348E-30
2.86793E-02 8.13335E-30
2.94120E-02 6.95983E-30
3.01537E-02 5.84649E-30
3.09043E-02 4.81925E-30
3.16639E-02 3.89610E-30
3.24324E-02 3.08753E-30
3.32098E-02 2.39730E-30
3.39961E-02 1.82350E-30
3.47912E-02 1.35977E-30
3.55952E-02 9.96469E-31
3.64081E-02 7.21813E-31
3.72297E-02 5.22891E-31
3.80602E-02 3.86512E-31
3.88995E-02 2.99898E-31
3.97476E-02 2.51196E-31
4.06044E-02 2.29837E-31
4.14700E-02 2.26747E-31
4.23443E-02 2.34435E-31
4.32273E-02 2.46985E-31
4.41190E-02 2.59962E-31
4.50194E-02 2.70270E-31
4.59284E-02 2.75975E-31
4.68461E-02 2.76105E-31
4.87074E-02 2.59367E-31
5.06030E-02 2.24183E-31
5.25328E-02 1.78706E-31
5.44967E-02 1.31384E-31
5.64946E-02 8.88070E-32
5.85262E-02 5.48663E-32
6.05914E-02 3.08475E-32
6.26901E-02 1.60481E-32
6.48222E-02 8.57722E-33
6.69873E-02 6.10279E-33
6.91854E-02 6.41547E-33
7.14163E-02 7.76590E-33
7.36799E-02 8.99473E-33
7.59760E-02 9.50704E-33
7.83043E-02 9.15356E-33
8.06647E-02 8.07544E-33
8.30571E-02 6.55490E-33
8.54812E-02 4.89747E-33
8.79369E-02 3.35565E-33
9.04240E-02 2.09287E-33
9.29422E-02 1.17909E-33
9.54915E-02 6.07113E-34
9.80716E-02 3.18554E-34
1.00682E-01 2.30833E-34
1.03323E-01 2.59630E-34
1.05995E-01 3.34020E-34
1.08696E-01 4.04015E-34
1.11427E-01 4.41720E-34
1.14188E-01 4.38119E-34
1.16978E-01 3.97593E-34
1.19797E-01 3.31970E-34
1.22645E-01 2.55346E-34
1.25522E-01 1.80361E-34
1.28428E-01 1.16093E-34
1.31361E-01 6.73832E-35
1.34323E-01 3.52212E-35
1.37313E-01 1.77365E-35
1.40330E-01 1.14056E-35
1.43375E-01 1.21729E-35
1.46447E-01 1.63054E-35
1.49545E-01 2.09149E-35
1.52671E-01 2.41606E-35
1.55823E-01 2.52034E-35
1.59001E-01 2.39997E-35
1.62205E-01 2.10262E-35
1.65435E-01 1.70062E-35
1.68690E-01 1.26842E-35
1.71970E-01 8.67429E-36
1.75276E-01 5.38290E-36
1.78606E-01 2.99571E-36
1.81961E-01 1.50928E-36
1.85340E-01 7.86971E-37
1.88743E-01 6.21216E-37
1.92169E-01 7.88926E-37
1.95619E-01 1.09239E-36
1.99092E-01 1.38323E-36
2.02589E-01 1.57055E-36
2.06107E-01 1.61700E-36
2.09649E-01 1.52712E-36
2.13212E-01 1.33247E-36
2.16797E-01 1.07697E-36
2.20404E-01 8.04936E-37
2.24032E-01 5.52817E-37
2.27680E-01 3.44992E-37
2.31350E-01 1.92969E-37
2.35040E-01 1.00000E-45
2.38751E-01 1.00000E-45
2.42481E-01 1.00000E-45
2.46231E-01 1.00000E-45
2.50000E-01 1.00000E-45
2.53788E-01 1.00000E-45
2.57595E-01 1.00000E-45
2.61421E-01 1.00000E-45
2.65264E-01 1.00000E-45
2.69126E-01 1.00000E-45
2.73005E-01 1.00000E-45
2.76901E-01 1.00000E-45
2.80814E-01 1.00000E-45
2.84744E-01 1.00000E-45
2.88691E-01 1.00000E-45
2.92653E-01 1.00000E-45
2.96632E-01 1.00000E-45
3.00625E-01 1.00000E-45
3.04634E-01 1.00000E-45
3.08658E-01 1.00000E-45
3.12697E-01 1.00000E-45
3.16749E-01 1.00000E-45
3.20816E-01 1.00000E-45
3.24896E-01 1.00000E-45
3.28990E-01 1.00000E-45
3.33097E-01 1.00000E-45
3.37216E-01 1.00000E-45
3.41348E-01 1.00000E-45
3.45492E-01 1.00000E-45
3.49647E-01 1.00000E-45
3.53814E-01 1.00000E-45
3.57992E-01 1.00000E-45
3.62181E-01 1.00000E-45
3.66381E-01 1.00000E-45
3.70590E-01 1.00000E-45
3.74810E-01 1.00000E-45
3.79039E-01 1.00000E-45
3.83277E-01 1.00000E-45
3.87524E-01 1.00000E-45
3.91780E-01 1.00000E-45
3.96044E-01 1.00000E-45
4.00316E-01 1.00000E-45
4.04596E-01 1.00000E-45
4.08882E-01 1.00000E-45
4.13176E-01 1.00000E-45
4.17476E-01 1.00000E-45
4.21783E-01 1.00000E-45
4.26095E-01 1.00000E-45
4.30413E-01 1.00000E-45
4.34737E-01 1.00000E-45
4.39065E-01 1.00000E-45
4.43398E-01 1.00000E-45
4.47736E-01 1.00000E-45
4.52077E-01 1.00000E-45
4.56422E-01 1.00000E-45
4.60770E-01 1.00000E-45
4.65122E-01 1.00000E-45
4.69476E-01 1.00000E-45
4.73832E-01 1.00000E-45
4.78190E-01 1.00000E-45
4.82550E-01 1.00000E-45
4.86912E-01 1.00000E-45
4.91274E-01 1.00000E-45
4.95637E-01 1.00000E-45
5.00000E-01 1.00000E-45
5.04363E-01 1.00000E-45
5.08726E-01 1.00000E-45
5.13088E-01 1.00000E-45
5.17450E-01 1.00000E-45
5.21810E-01 1.00000E-45
5.26168E-01 1.00000E-45
5.30524E-01 1.00000E-45
5.34878E-01 1.00000E-45
5.39230E-01 1.00000E-45
5.43578E-01 1.00000E-45
5.47923E-01 1.00000E-45
5.52264E-01 1.00000E-45
5.56602E-01 1.00000E-45
5.60935E-01 1.00000E-45
5.65263E-01 1.00000E-45
5.69587E-01 1.00000E-45
5.73905E-01 1.00000E-45
5.78217E-01 1.00000E-45
5.82524E-01 1.00000E-45
5.86824E-01 1.00000E-45
5.91118E-01 1.00000E-45
5.95404E-01 1.00000E-45
5.99684E-01 1.00000E-45
6.03956E-01 1.00000E-45
6.08220E-01 1.00000E-45
6.12476E-01 1.00000E-45
6.16723E-01 1.00000E-45
6.20961E-01 1.00000E-45
6.25190E-01 1.00000E-45
6.29410E-01 1.00000E-45
6.33619E-01 1.00000E-45
6.37819E-01 1.00000E-45
6.42008E-01 1.00000E-45
6.46186E-01 1.00000E-45
6.50353E-01 1.00000E-45
6.54508E-01 1.00000E-45
6.58652E-01 1.00000E-45
6.62784E-01 1.00000E-45
6.66903E-01 1.00000E-45
6.71010E-01 1.00000E-45
6.75104E-01 1.00000E-45
6.79184E-01 1.00000E-45
6.83251E-01 1.00000E-45
6.87303E-01 1.00000E-45
6.91342E-01 1.00000E-45
6.95366E-01 1.00000E-45
6.99375E-01 1.00000E-45
7.03368E-01 1.00000E-45
7.07347E-01 1.00000E-45
7.11309E-01 1.00000E-45
7.15256E-01 1.00000E-45
7.19186E-01 1.00000E-45
7.23099E-01 1.00000E-45
7.26995E-01 1.00000E-45
7.30874E-01 1.00000E-45
7.34736E-01 1.00000E-45
7.38579E-01 1.00000E-45
7.42405E-01 1.00000E-45
7.46212E-01 1.00000E-45
7.50000E-01 1.00000E-45
7.53769E-01 1.00000E-45
7.57519E-01 1.00000E-45
7.61249E-01 1.00000E-45
7.64960E-01 1.00000E-45
7.68650E-01 1.00000E-45
7.72320E-01 1.00000E-45
7.75968E-01 1.00000E-45
7.79596E-01 1.00000E-45
7.83203E-01 1.00000E-45
7.86788E-01 1.00000E-45
7.90351E-01 1.00000E-45
7.93893E-01 1.00000E-45
7.97411E-01 1.00000E-45
8.00908E-01 1.00000E-45
8.04381E-01 1.00000E-45
8.07831E-01 1.00000E-45
8.11257E-01 1.00000E-45
8.14660E-01 1.00000E-45
8.18039E-01 1.00000E-45
8.21394E-01 1.00000E-45
8.24724E-01 1.00000E-45
8.28030E-01 1.00000E-45
8.31310E-01 1.00000E-45
8.34565E-01 1.00000E-45
8.37795E-01 1.00000E-45
8.40999E-01 1.00000E-45
8.44177E-01 1.00000E-45
8.47329E-01 1.00000E-45
8.50455E-01 1.00000E-45
8.53553E-01 1.00000E-45
8.56625E-01 1.00000E-45
8.59670E-01 1.00000E-45
8.62687E-01 1.00000E-45
8.65677E-01 1.00000E-45
8.68639E-01 1.00000E-45
8.71572E-01 1.00000E-45
8.74478E-01 1.00000E-45
8.77355E-01 1.00000E-45
8.80203E-01 1.00000E-45
8.83022E-01 1.00000E-45
8.85812E-01 1.00000E-45
8.88573E-01 1.00000E-45
8.91304E-01 1.00000E-45
8.94005E-01 1.00000E-45
8.96677E-01 1.00000E-45
8.99318E-01 1.00000E-45
9.01928E-01 1.00000E-45
9.04508E-01 1.00000E-45
9.07058E-01 1.00000E-45
9.09576E-01 1.00000E-45
9.12063E-01 1.00000E-45
9.14519E-01 1.00000E-45
9.16943E-01 1.00000E-45
9.19335E-01 1.00000E-45
9.21696E-01 1.00000E-45
9.24024E-01 1.00000E-45
9.26320E-01 1.00000E-45
9.28584E-01 1.00000E-45
9.30815E-01 1.00000E-45
9.33013E-01 1.00000E-45
9.35178E-01 1.00000E-45
9.37310E-01 1.00000E-45
9.39409E-01 1.00000E-45
9.41474E-01 1.00000E-45
9.43505E-01 1.00000E-45
9.45503E-01 1.00000E-45
9.47467E-01 1.00000E-45
9.49397E-01 1.00000E-45
9.51293E-01 1.00000E-45
9.53154E-01 1.00000E-45
9.54981E-01 1.00000E-45
9.56773E-01 1.00000E-45
9.58530E-01 1.00000E-45
9.60252E-01 1.00000E-45
9.61940E-01 1.00000E-45
9.63592E-01 1.00000E-45
9.65209E-01 1.00000E-45
9.66790E-01 1.00000E-45
9.68336E-01 1.00000E-45
9.69846E-01 1.00000E-45
9.71321E-01 1.00000E-45
9.72759E-01 1.00000E-45
9.74162E-01 1.00000E-45
9.75528E-01 1.00000E-45
9.76858E-01 1.00000E-45
9.78152E-01 1.00000E-45
9.79410E-01 1.00000E-45
9.80631E-01 1.00000E-45
9.81815E-01 1.00000E-45
9.82963E-01 1.00000E-45
9.84074E-01 1.00000E-45
9.85148E-01 1.00000E-45
9.86185E-01 1.00000E-45
9.87185E-01 1.00000E-45
9.88148E-01 1.00000E-45
9.89074E-01 1.00000E-45
9.89962E-01 1.00000E-45
9.90814E-01 1.00000E-45
9.91627E-01 1.00000E-45
9.92404E-01 1.00000E-45
9.93143E-01 1.00000E-45
9.93844E-01 1.00000E-45
9.94508E-01 1.00000E-45
9.95134E-01 1.00000E-45
9.95722E-01 1.00000E-45
9.96273E-01 1.00000E-45
9.96786E-01 1.00000E-45
9.97261E-01 1.00000E-45
9.97698E-01 1.00000E-45
9.98097E-01 1.00000E-45
9.98459E-01 1.00000E-45
9.98782E-01 1.00000E-45
9.99067E-01 1.00000E-45
9.99315E-01 1.00000E-45
9.99524E-01 1.00000E-45
9.99695E-01 1.00000E-45
9.99829E-01 1.00000E-45
9.99924E-01 1.00000E-45
9.99981E-01 1.00000E-45
1.00000E+00 1.00000E-45
