 #
 # Subroutine ELSEPA. Elastic scattering of electrons and positrons
 #                    by neutral atoms and positive ions
 #
 # Projectile: electron
 # Kinetic energy = 3.50000E+06 eV = 1.28623E+05 a.u.
 #
 # WARNING: High-energy factorization with free-atom DF screening.
 #          Absorption, polarization and exchange corrections are
 #          switched off.
 #          Phase shifts are calculated for the bare nucleus.
 #          Scattering amplitudes are not evaluated.
 #
 # Element: Gd,  Z =  64,  atomic weight = 1.57250E+02 g/mol
 #
 # Nuclear model: Fermi distribution
 #                Average radius = 5.77538E-13 cm
 #                Skin thickness = 5.46000E-14 cm
 #
 # Number of electrons = 64
 #
 # Total elastic cross section = 7.53132E-18 cm**2 = 2.68948E-01 a0**2
 # 1st transport cross section = 4.06178E-22 cm**2 = 1.45049E-05 a0**2
 # 2nd transport cross section = 1.10820E-21 cm**2 = 3.95747E-05 a0**2
 #
 #
 # Differential cross section:                       MU=(1-COS(THETA))/2
 #
 #  THETA        MU          DCS          DCS        Sherman      error
 #  (deg)                 (cm**2/sr)   (a0**2/sr)    function
 #----------------------------------------------------------------------
0.00000E+00 1.38256E-12
7.61557E-13 1.38255E-12
1.18994E-12 1.38255E-12
1.71346E-12 1.38254E-12
2.33225E-12 1.38253E-12
3.04617E-12 1.38252E-12
3.85530E-12 1.38251E-12
4.75964E-12 1.38250E-12
5.75917E-12 1.38249E-12
6.85391E-12 1.38248E-12
8.04379E-12 1.38246E-12
9.32893E-12 1.38245E-12
1.07092E-11 1.38243E-12
1.21847E-11 1.38241E-12
1.37554E-11 1.38239E-12
1.54213E-11 1.38237E-12
1.71823E-11 1.38235E-12
1.90386E-11 1.38233E-12
2.09900E-11 1.38230E-12
2.30367E-11 1.38228E-12
2.51785E-11 1.38225E-12
2.74156E-11 1.38223E-12
2.97478E-11 1.38220E-12
3.21752E-11 1.38217E-12
3.46979E-11 1.38214E-12
3.73157E-11 1.38210E-12
4.00286E-11 1.38207E-12
4.28368E-11 1.38204E-12
4.57402E-11 1.38200E-12
4.87388E-11 1.38196E-12
5.18325E-11 1.38193E-12
5.50215E-11 1.38189E-12
5.83057E-11 1.38185E-12
6.16850E-11 1.38180E-12
6.51595E-11 1.38176E-12
6.87293E-11 1.38172E-12
7.23943E-11 1.38167E-12
7.61544E-11 1.38163E-12
1.18991E-10 1.38110E-12
1.71347E-10 1.38046E-12
2.33223E-10 1.37970E-12
3.04617E-10 1.37882E-12
3.85531E-10 1.37783E-12
4.75965E-10 1.37673E-12
5.75917E-10 1.37550E-12
6.85389E-10 1.37417E-12
8.04380E-10 1.37272E-12
9.32891E-10 1.37116E-12
1.07092E-09 1.36948E-12
1.21847E-09 1.36769E-12
1.37554E-09 1.36580E-12
1.54213E-09 1.36379E-12
1.71823E-09 1.36167E-12
1.90386E-09 1.35944E-12
2.09900E-09 1.35711E-12
2.30367E-09 1.35467E-12
2.51785E-09 1.35212E-12
2.74156E-09 1.34947E-12
2.97478E-09 1.34671E-12
3.21752E-09 1.34386E-12
3.46978E-09 1.34090E-12
3.73156E-09 1.33784E-12
4.00286E-09 1.33468E-12
4.28368E-09 1.33142E-12
4.57402E-09 1.32807E-12
4.87388E-09 1.32462E-12
5.18326E-09 1.32107E-12
5.50215E-09 1.31744E-12
5.83057E-09 1.31371E-12
6.16850E-09 1.30989E-12
6.51596E-09 1.30599E-12
6.87293E-09 1.30199E-12
7.23942E-09 1.29791E-12
7.61544E-09 1.29375E-12
1.18991E-08 1.24785E-12
1.71347E-08 1.19541E-12
2.33223E-08 1.13792E-12
3.04617E-08 1.07728E-12
3.85531E-08 1.01497E-12
4.75965E-08 9.52281E-13
5.75917E-08 8.90396E-13
6.85389E-08 8.30562E-13
8.04380E-08 7.73161E-13
9.32891E-08 7.18683E-13
1.07092E-07 6.67607E-13
1.21847E-07 6.20104E-13
1.37554E-07 5.76019E-13
1.54213E-07 5.35309E-13
1.71823E-07 4.98045E-13
1.90386E-07 4.63865E-13
2.09900E-07 4.32543E-13
2.30367E-07 4.03909E-13
2.51785E-07 3.77796E-13
2.74156E-07 3.53884E-13
2.97478E-07 3.31988E-13
3.21752E-07 3.11944E-13
3.46978E-07 2.93545E-13
3.73156E-07 2.76626E-13
4.00286E-07 2.61053E-13
4.28368E-07 2.46665E-13
4.57402E-07 2.33358E-13
4.87388E-07 2.21035E-13
5.18325E-07 2.09594E-13
5.50215E-07 1.98920E-13
5.83057E-07 1.88979E-13
6.16850E-07 1.79708E-13
6.51596E-07 1.71010E-13
6.87293E-07 1.62847E-13
7.23942E-07 1.55198E-13
7.61543E-07 1.48021E-13
1.18991E-06 9.46611E-14
1.71347E-06 6.21879E-14
2.33223E-06 4.31085E-14
3.04617E-06 3.04407E-14
3.85531E-06 2.21438E-14
4.75964E-06 1.65486E-14
5.75916E-06 1.26262E-14
6.85388E-06 9.73778E-15
8.04378E-06 7.63492E-15
9.32888E-06 6.06696E-15
1.07092E-05 4.86478E-15
1.21846E-05 3.93530E-15
1.37553E-05 3.21688E-15
1.54212E-05 2.65417E-15
1.71822E-05 2.20559E-15
1.90385E-05 1.84789E-15
2.09899E-05 1.56252E-15
2.30365E-05 1.33082E-15
2.51783E-05 1.14065E-15
2.74153E-05 9.84129E-16
2.97475E-05 8.54318E-16
3.21749E-05 7.45680E-16
3.46974E-05 6.54405E-16
3.73152E-05 5.77081E-16
4.00281E-05 5.11040E-16
4.28362E-05 4.54275E-16
4.57395E-05 4.05388E-16
4.87380E-05 3.63061E-16
5.18317E-05 3.26180E-16
5.50205E-05 2.93822E-16
5.83045E-05 2.65422E-16
6.16838E-05 2.40401E-16
6.51582E-05 2.18202E-16
6.87277E-05 1.98479E-16
7.23925E-05 1.80935E-16
7.61524E-05 1.65281E-16
9.21439E-05 1.17082E-16
1.09658E-04 8.51418E-17
1.28695E-04 6.33351E-17
1.49255E-04 4.80328E-17
1.71338E-04 3.71015E-17
1.94942E-04 2.91071E-17
2.20070E-04 2.31674E-17
2.46720E-04 1.86764E-17
2.74892E-04 1.52207E-17
3.04586E-04 1.25326E-17
3.35803E-04 1.04162E-17
3.68542E-04 8.73012E-18
4.02802E-04 7.37086E-18
4.38585E-04 6.26765E-18
4.75889E-04 5.36434E-18
5.14715E-04 4.61787E-18
5.55063E-04 3.99683E-18
5.96931E-04 3.47720E-18
6.40321E-04 3.03963E-18
6.85233E-04 2.66838E-18
7.31665E-04 2.35228E-18
7.79618E-04 2.08177E-18
8.29092E-04 1.84906E-18
8.80086E-04 1.64785E-18
9.32601E-04 1.47337E-18
9.86636E-04 1.32144E-18
1.04219E-03 1.18854E-18
1.09927E-03 1.07195E-18
1.15786E-03 9.69343E-19
1.21797E-03 8.78761E-19
1.27961E-03 7.98472E-19
1.34276E-03 7.27179E-19
1.40743E-03 6.63696E-19
1.47362E-03 6.06997E-19
1.54133E-03 5.56225E-19
1.61056E-03 5.10675E-19
1.68131E-03 4.69711E-19
1.75357E-03 4.32774E-19
1.82735E-03 3.99410E-19
1.90265E-03 3.69215E-19
1.97947E-03 3.41832E-19
2.05780E-03 3.16943E-19
2.13765E-03 2.94292E-19
2.21902E-03 2.73639E-19
2.30190E-03 2.54773E-19
2.38630E-03 2.37511E-19
2.47222E-03 2.21696E-19
2.55965E-03 2.07184E-19
2.64859E-03 1.93843E-19
2.73905E-03 1.81566E-19
2.83103E-03 1.70253E-19
2.92452E-03 1.59812E-19
3.01952E-03 1.50163E-19
3.11604E-03 1.41237E-19
3.21407E-03 1.32970E-19
3.31362E-03 1.25302E-19
3.41468E-03 1.18182E-19
3.51725E-03 1.11565E-19
3.62133E-03 1.05409E-19
3.72692E-03 9.96731E-20
3.83403E-03 9.43257E-20
3.94265E-03 8.93353E-20
4.05278E-03 8.46732E-20
4.16442E-03 8.03133E-20
4.27757E-03 7.62330E-20
4.39223E-03 7.24109E-20
4.50840E-03 6.88272E-20
4.62608E-03 6.54643E-20
4.74527E-03 6.23063E-20
4.86597E-03 5.93382E-20
4.98817E-03 5.65461E-20
5.11188E-03 5.39179E-20
5.23711E-03 5.14422E-20
5.36383E-03 4.91082E-20
5.49207E-03 4.69063E-20
5.62181E-03 4.48277E-20
5.75306E-03 4.28643E-20
5.88581E-03 4.10080E-20
6.02007E-03 3.92522E-20
6.15583E-03 3.75905E-20
6.29310E-03 3.60166E-20
6.43187E-03 3.45250E-20
6.57214E-03 3.31108E-20
6.71392E-03 3.17690E-20
6.85720E-03 3.04952E-20
7.00198E-03 2.92853E-20
7.14827E-03 2.81356E-20
7.29605E-03 2.70424E-20
7.44534E-03 2.60023E-20
7.59612E-03 2.50123E-20
7.97965E-03 2.27382E-20
8.37255E-03 2.07196E-20
8.77480E-03 1.89227E-20
9.18641E-03 1.73187E-20
9.60736E-03 1.58832E-20
1.00376E-02 1.45952E-20
1.04773E-02 1.34369E-20
1.09262E-02 1.23928E-20
1.13844E-02 1.14495E-20
1.18520E-02 1.05955E-20
1.23288E-02 9.82082E-21
1.28150E-02 9.11670E-21
1.33104E-02 8.47552E-21
1.38150E-02 7.89059E-21
1.43290E-02 7.35606E-21
1.48521E-02 6.86673E-21
1.53845E-02 6.41814E-21
1.59262E-02 6.00622E-21
1.64770E-02 5.62735E-21
1.70371E-02 5.27843E-21
1.76063E-02 4.95663E-21
1.81848E-02 4.65944E-21
1.87724E-02 4.38459E-21
1.93692E-02 4.13011E-21
1.99751E-02 3.89419E-21
2.05901E-02 3.67520E-21
2.12143E-02 3.47170E-21
2.18476E-02 3.28239E-21
2.24900E-02 3.10608E-21
2.31415E-02 2.94169E-21
2.38021E-02 2.78827E-21
2.44717E-02 2.64495E-21
2.51504E-02 2.51092E-21
2.58382E-02 2.38547E-21
2.65349E-02 2.26793E-21
2.72407E-02 2.15772E-21
2.79555E-02 2.05427E-21
2.86793E-02 1.95710E-21
2.94120E-02 1.86574E-21
3.01537E-02 1.77979E-21
3.09043E-02 1.69885E-21
3.16639E-02 1.62257E-21
3.24324E-02 1.55064E-21
3.32098E-02 1.48276E-21
3.39961E-02 1.41864E-21
3.47912E-02 1.35804E-21
3.55952E-02 1.30073E-21
3.64081E-02 1.24650E-21
3.72297E-02 1.19513E-21
3.80602E-02 1.14646E-21
3.88995E-02 1.10031E-21
3.97476E-02 1.05652E-21
4.06044E-02 1.01496E-21
4.14700E-02 9.75470E-22
4.23443E-02 9.37940E-22
4.32273E-02 9.02250E-22
4.41190E-02 8.68291E-22
4.50194E-02 8.35961E-22
4.59284E-02 8.05167E-22
4.68461E-02 7.75819E-22
4.87074E-02 7.21143E-22
5.06030E-02 6.71337E-22
5.25328E-02 6.25883E-22
5.44967E-02 5.84325E-22
5.64946E-02 5.46262E-22
5.85262E-02 5.11341E-22
6.05914E-02 4.79252E-22
6.26901E-02 4.49718E-22
6.48222E-02 4.22494E-22
6.69873E-02 3.97363E-22
6.91854E-02 3.74132E-22
7.14163E-02 3.52627E-22
7.36799E-02 3.32694E-22
7.59760E-02 3.14194E-22
7.83043E-02 2.97003E-22
8.06647E-02 2.81009E-22
8.30571E-02 2.66112E-22
8.54812E-02 2.52221E-22
8.79369E-02 2.39253E-22
9.04240E-02 2.27134E-22
9.29422E-02 2.15797E-22
9.54915E-02 2.05181E-22
9.80716E-02 1.95231E-22
1.00682E-01 1.85895E-22
1.03323E-01 1.77128E-22
1.05995E-01 1.68888E-22
1.08696E-01 1.61137E-22
1.11427E-01 1.53839E-22
1.14188E-01 1.46961E-22
1.16978E-01 1.40476E-22
1.19797E-01 1.34354E-22
1.22645E-01 1.28573E-22
1.25522E-01 1.23108E-22
1.28428E-01 1.17938E-22
1.31361E-01 1.13045E-22
1.34323E-01 1.08410E-22
1.37313E-01 1.04017E-22
1.40330E-01 9.98499E-23
1.43375E-01 9.58949E-23
1.46447E-01 9.21389E-23
1.49545E-01 8.85696E-23
1.52671E-01 8.51757E-23
1.55823E-01 8.19467E-23
1.59001E-01 7.88729E-23
1.62205E-01 7.59452E-23
1.65435E-01 7.31551E-23
1.68690E-01 7.04948E-23
1.71970E-01 6.79568E-23
1.75276E-01 6.55342E-23
1.78606E-01 6.32207E-23
1.81961E-01 6.10103E-23
1.85340E-01 5.88973E-23
1.88743E-01 5.68765E-23
1.92169E-01 5.49431E-23
1.95619E-01 5.30924E-23
1.99092E-01 5.13201E-23
2.02589E-01 4.96221E-23
2.06107E-01 4.79946E-23
2.09649E-01 4.64341E-23
2.13212E-01 4.49371E-23
2.16797E-01 4.35005E-23
2.20404E-01 4.21214E-23
2.24032E-01 4.07968E-23
2.27680E-01 3.95243E-23
2.31350E-01 3.83012E-23
2.35040E-01 3.71253E-23
2.38751E-01 3.59944E-23
2.42481E-01 3.49062E-23
2.46231E-01 3.38589E-23
2.50000E-01 3.28505E-23
2.53788E-01 3.18793E-23
2.57595E-01 3.09437E-23
2.61421E-01 3.00419E-23
2.65264E-01 2.91726E-23
2.69126E-01 2.83343E-23
2.73005E-01 2.75256E-23
2.76901E-01 2.67453E-23
2.80814E-01 2.59922E-23
2.84744E-01 2.52651E-23
2.88691E-01 2.45628E-23
2.92653E-01 2.38845E-23
2.96632E-01 2.32289E-23
3.00625E-01 2.25953E-23
3.04634E-01 2.19828E-23
3.08658E-01 2.13904E-23
3.12697E-01 2.08174E-23
3.16749E-01 2.02630E-23
3.20816E-01 1.97265E-23
3.24896E-01 1.92071E-23
3.28990E-01 1.87042E-23
3.33097E-01 1.82171E-23
3.37216E-01 1.77453E-23
3.41348E-01 1.72882E-23
3.45492E-01 1.68451E-23
3.49647E-01 1.64156E-23
3.53814E-01 1.59992E-23
3.57992E-01 1.55954E-23
3.62181E-01 1.52037E-23
3.66381E-01 1.48237E-23
3.70590E-01 1.44549E-23
3.74810E-01 1.40969E-23
3.79039E-01 1.37495E-23
3.83277E-01 1.34121E-23
3.87524E-01 1.30844E-23
3.91780E-01 1.27661E-23
3.96044E-01 1.24569E-23
4.00316E-01 1.21565E-23
4.04596E-01 1.18645E-23
4.08882E-01 1.15806E-23
4.13176E-01 1.13047E-23
4.17476E-01 1.10363E-23
4.21783E-01 1.07753E-23
4.26095E-01 1.05215E-23
4.30413E-01 1.02745E-23
4.34737E-01 1.00341E-23
4.39065E-01 9.80023E-24
4.43398E-01 9.57256E-24
4.47736E-01 9.35092E-24
4.52077E-01 9.13512E-24
4.56422E-01 8.92497E-24
4.60770E-01 8.72030E-24
4.65122E-01 8.52092E-24
4.69476E-01 8.32668E-24
4.73832E-01 8.13741E-24
4.78190E-01 7.95296E-24
4.82550E-01 7.77318E-24
4.86912E-01 7.59793E-24
4.91274E-01 7.42707E-24
4.95637E-01 7.26048E-24
5.00000E-01 7.09801E-24
5.04363E-01 6.93956E-24
5.08726E-01 6.78499E-24
5.13088E-01 6.63421E-24
5.17450E-01 6.48708E-24
5.21810E-01 6.34352E-24
5.26168E-01 6.20341E-24
5.30524E-01 6.06665E-24
5.34878E-01 5.93316E-24
5.39230E-01 5.80282E-24
5.43578E-01 5.67557E-24
5.47923E-01 5.55130E-24
5.52264E-01 5.42994E-24
5.56602E-01 5.31141E-24
5.60935E-01 5.19562E-24
5.65263E-01 5.08251E-24
5.69587E-01 4.97200E-24
5.73905E-01 4.86401E-24
5.78217E-01 4.75848E-24
5.82524E-01 4.65534E-24
5.86824E-01 4.55453E-24
5.91118E-01 4.45598E-24
5.95404E-01 4.35964E-24
5.99684E-01 4.26544E-24
6.03956E-01 4.17334E-24
6.08220E-01 4.08327E-24
6.12476E-01 3.99519E-24
6.16723E-01 3.90903E-24
6.20961E-01 3.82477E-24
6.25190E-01 3.74233E-24
6.29410E-01 3.66169E-24
6.33619E-01 3.58278E-24
6.37819E-01 3.50557E-24
6.42008E-01 3.43002E-24
6.46186E-01 3.35608E-24
6.50353E-01 3.28371E-24
6.54508E-01 3.21288E-24
6.58652E-01 3.14355E-24
6.62784E-01 3.07567E-24
6.66903E-01 3.00923E-24
6.71010E-01 2.94417E-24
6.75104E-01 2.88047E-24
6.79184E-01 2.81810E-24
6.83251E-01 2.75702E-24
6.87303E-01 2.69720E-24
6.91342E-01 2.63861E-24
6.95366E-01 2.58123E-24
6.99375E-01 2.52502E-24
7.03368E-01 2.46996E-24
7.07347E-01 2.41602E-24
7.11309E-01 2.36318E-24
7.15256E-01 2.31140E-24
7.19186E-01 2.26068E-24
7.23099E-01 2.21098E-24
7.26995E-01 2.16227E-24
7.30874E-01 2.11455E-24
7.34736E-01 2.06777E-24
7.38579E-01 2.02194E-24
7.42405E-01 1.97701E-24
7.46212E-01 1.93298E-24
7.50000E-01 1.88982E-24
7.53769E-01 1.84752E-24
7.57519E-01 1.80605E-24
7.61249E-01 1.76540E-24
7.64960E-01 1.72555E-24
7.68650E-01 1.68648E-24
7.72320E-01 1.64818E-24
7.75968E-01 1.61064E-24
7.79596E-01 1.57382E-24
7.83203E-01 1.53773E-24
7.86788E-01 1.50234E-24
7.90351E-01 1.46764E-24
7.93893E-01 1.43362E-24
7.97411E-01 1.40025E-24
8.00908E-01 1.36754E-24
8.04381E-01 1.33546E-24
8.07831E-01 1.30401E-24
8.11257E-01 1.27317E-24
8.14660E-01 1.24292E-24
8.18039E-01 1.21326E-24
8.21394E-01 1.18417E-24
8.24724E-01 1.15565E-24
8.28030E-01 1.12768E-24
8.31310E-01 1.10026E-24
8.34565E-01 1.07336E-24
8.37795E-01 1.04699E-24
8.40999E-01 1.02113E-24
8.44177E-01 9.95767E-25
8.47329E-01 9.70899E-25
8.50455E-01 9.46515E-25
8.53553E-01 9.22606E-25
8.56625E-01 8.99162E-25
8.59670E-01 8.76176E-25
8.62687E-01 8.53639E-25
8.65677E-01 8.31542E-25
8.68639E-01 8.09879E-25
8.71572E-01 7.88641E-25
8.74478E-01 7.67821E-25
8.77355E-01 7.47412E-25
8.80203E-01 7.27406E-25
8.83022E-01 7.07797E-25
8.85812E-01 6.88577E-25
8.88573E-01 6.69741E-25
8.91304E-01 6.51282E-25
8.94005E-01 6.33193E-25
8.96677E-01 6.15468E-25
8.99318E-01 5.98102E-25
9.01928E-01 5.81088E-25
9.04508E-01 5.64421E-25
9.07058E-01 5.48096E-25
9.09576E-01 5.32106E-25
9.12063E-01 5.16447E-25
9.14519E-01 5.01114E-25
9.16943E-01 4.86101E-25
9.19335E-01 4.71403E-25
9.21696E-01 4.57017E-25
9.24024E-01 4.42936E-25
9.26320E-01 4.29157E-25
9.28584E-01 4.15676E-25
9.30815E-01 4.02488E-25
9.33013E-01 3.89588E-25
9.35178E-01 3.76973E-25
9.37310E-01 3.64639E-25
9.39409E-01 3.52581E-25
9.41474E-01 3.40797E-25
9.43505E-01 3.29282E-25
9.45503E-01 3.18033E-25
9.47467E-01 3.07046E-25
9.49397E-01 2.96319E-25
9.51293E-01 2.85847E-25
9.53154E-01 2.75627E-25
9.54981E-01 2.65657E-25
9.56773E-01 2.55933E-25
9.58530E-01 2.46452E-25
9.60252E-01 2.37212E-25
9.61940E-01 2.28210E-25
9.63592E-01 2.19443E-25
9.65209E-01 2.10908E-25
9.66790E-01 2.02602E-25
9.68336E-01 1.94525E-25
9.69846E-01 1.86672E-25
9.71321E-01 1.79041E-25
9.72759E-01 1.71631E-25
9.74162E-01 1.64440E-25
9.75528E-01 1.57464E-25
9.76858E-01 1.50702E-25
9.78152E-01 1.44153E-25
9.79410E-01 1.37813E-25
9.80631E-01 1.31682E-25
9.81815E-01 1.25757E-25
9.82963E-01 1.20037E-25
9.84074E-01 1.14520E-25
9.85148E-01 1.09204E-25
9.86185E-01 1.04089E-25
9.87185E-01 9.91716E-26
9.88148E-01 9.44516E-26
9.89074E-01 8.99274E-26
9.89962E-01 8.55975E-26
9.90814E-01 8.14609E-26
9.91627E-01 7.75162E-26
9.92404E-01 7.37624E-26
9.93143E-01 7.01984E-26
9.93844E-01 6.68232E-26
9.94508E-01 6.36358E-26
9.95134E-01 6.06354E-26
9.95722E-01 5.78210E-26
9.96273E-01 5.51919E-26
9.96786E-01 5.27473E-26
9.97261E-01 5.04866E-26
9.97698E-01 4.84090E-26
9.98097E-01 4.65141E-26
9.98459E-01 4.48012E-26
9.98782E-01 4.32699E-26
9.99067E-01 4.19198E-26
9.99315E-01 4.07505E-26
9.99524E-01 3.97617E-26
9.99695E-01 3.89530E-26
9.99829E-01 3.83242E-26
9.99924E-01 3.78752E-26
9.99981E-01 3.76059E-26
1.00000E+00 3.75161E-26
