 #
 # Subroutine ELSEPA. Elastic scattering of electrons and positrons
 #                    by neutral atoms and positive ions
 #
 # Projectile: electron
 # Kinetic energy = 1.50000E+06 eV = 5.51240E+04 a.u.
 #
 # WARNING: High-energy factorization with free-atom DF screening.
 #          Absorption, polarization and exchange corrections are
 #          switched off.
 #          Phase shifts are calculated for the bare nucleus.
 #          Scattering amplitudes are not evaluated.
 #
 # Element: Gd,  Z =  64,  atomic weight = 1.57250E+02 g/mol
 #
 # Nuclear model: Fermi distribution
 #                Average radius = 5.77538E-13 cm
 #                Skin thickness = 5.46000E-14 cm
 #
 # Number of electrons = 64
 #
 # Total elastic cross section = 7.93485E-18 cm**2 = 2.83359E-01 a0**2
 # 1st transport cross section = 1.57355E-21 cm**2 = 5.61925E-05 a0**2
 # 2nd transport cross section = 4.21923E-21 cm**2 = 1.50671E-04 a0**2
 #
 #
 # Differential cross section:                       MU=(1-COS(THETA))/2
 #
 #  THETA        MU          DCS          DCS        Sherman      error
 #  (deg)                 (cm**2/sr)   (a0**2/sr)    function
 #----------------------------------------------------------------------
0.00000E+00 3.47539E-13
7.61557E-13 3.47538E-13
1.18994E-12 3.47538E-13
1.71346E-12 3.47538E-13
2.33225E-12 3.47537E-13
3.04617E-12 3.47537E-13
3.85530E-12 3.47536E-13
4.75964E-12 3.47535E-13
5.75917E-12 3.47535E-13
6.85391E-12 3.47534E-13
8.04379E-12 3.47533E-13
9.32893E-12 3.47532E-13
1.07092E-11 3.47531E-13
1.21847E-11 3.47530E-13
1.37554E-11 3.47529E-13
1.54213E-11 3.47528E-13
1.71823E-11 3.47527E-13
1.90386E-11 3.47525E-13
2.09900E-11 3.47524E-13
2.30367E-11 3.47522E-13
2.51785E-11 3.47521E-13
2.74156E-11 3.47519E-13
2.97478E-11 3.47517E-13
3.21752E-11 3.47516E-13
3.46979E-11 3.47514E-13
3.73157E-11 3.47512E-13
4.00286E-11 3.47510E-13
4.28368E-11 3.47508E-13
4.57402E-11 3.47506E-13
4.87388E-11 3.47504E-13
5.18325E-11 3.47501E-13
5.50215E-11 3.47499E-13
5.83057E-11 3.47497E-13
6.16850E-11 3.47494E-13
6.51595E-11 3.47492E-13
6.87293E-11 3.47489E-13
7.23943E-11 3.47486E-13
7.61544E-11 3.47484E-13
1.18991E-10 3.47452E-13
1.71347E-10 3.47414E-13
2.33223E-10 3.47369E-13
3.04617E-10 3.47316E-13
3.85531E-10 3.47257E-13
4.75965E-10 3.47190E-13
5.75917E-10 3.47117E-13
6.85389E-10 3.47036E-13
8.04380E-10 3.46949E-13
9.32891E-10 3.46854E-13
1.07092E-09 3.46753E-13
1.21847E-09 3.46644E-13
1.37554E-09 3.46529E-13
1.54213E-09 3.46407E-13
1.71823E-09 3.46278E-13
1.90386E-09 3.46141E-13
2.09900E-09 3.45998E-13
2.30367E-09 3.45848E-13
2.51785E-09 3.45692E-13
2.74156E-09 3.45528E-13
2.97478E-09 3.45357E-13
3.21752E-09 3.45180E-13
3.46978E-09 3.44996E-13
3.73156E-09 3.44805E-13
4.00286E-09 3.44607E-13
4.28368E-09 3.44403E-13
4.57402E-09 3.44191E-13
4.87388E-09 3.43973E-13
5.18326E-09 3.43749E-13
5.50215E-09 3.43517E-13
5.83057E-09 3.43279E-13
6.16850E-09 3.43035E-13
6.51596E-09 3.42784E-13
6.87293E-09 3.42526E-13
7.23942E-09 3.42261E-13
7.61544E-09 3.41991E-13
1.18991E-08 3.38929E-13
1.71347E-08 3.35247E-13
2.33223E-08 3.30980E-13
3.04617E-08 3.26166E-13
3.85531E-08 3.20848E-13
4.75965E-08 3.15073E-13
5.75917E-08 3.08888E-13
6.85389E-08 3.02360E-13
8.04380E-08 2.95511E-13
9.32891E-08 2.88380E-13
1.07092E-07 2.81078E-13
1.21847E-07 2.73593E-13
1.37554E-07 2.65967E-13
1.54213E-07 2.58321E-13
1.71823E-07 2.50607E-13
1.90386E-07 2.42889E-13
2.09900E-07 2.35251E-13
2.30367E-07 2.27643E-13
2.51785E-07 2.20143E-13
2.74156E-07 2.12790E-13
2.97478E-07 2.05536E-13
3.21752E-07 1.98475E-13
3.46978E-07 1.91592E-13
3.73156E-07 1.84854E-13
4.00286E-07 1.78363E-13
4.28368E-07 1.72059E-13
4.57402E-07 1.65923E-13
4.87388E-07 1.60065E-13
5.18325E-07 1.54384E-13
5.50215E-07 1.48893E-13
5.83057E-07 1.43659E-13
6.16850E-07 1.38599E-13
6.51596E-07 1.33739E-13
6.87293E-07 1.29102E-13
7.23942E-07 1.24632E-13
7.61543E-07 1.20358E-13
1.18991E-06 8.64844E-14
1.71347E-06 6.44122E-14
2.33223E-06 4.94617E-14
3.04617E-06 3.88294E-14
3.85531E-06 3.09650E-14
4.75964E-06 2.49721E-14
5.75916E-06 2.03320E-14
6.85388E-06 1.65214E-14
8.04378E-06 1.36404E-14
9.32888E-06 1.14860E-14
1.07092E-05 9.59112E-15
1.21846E-05 8.11302E-15
1.37553E-05 6.95255E-15
1.54212E-05 5.92902E-15
1.71822E-05 5.11668E-15
1.90385E-05 4.44548E-15
2.09899E-05 3.86304E-15
2.30365E-05 3.38696E-15
2.51783E-05 2.97881E-15
2.74153E-05 2.62211E-15
2.97475E-05 2.32440E-15
3.21749E-05 2.06218E-15
3.46974E-05 1.83414E-15
3.73152E-05 1.64092E-15
4.00281E-05 1.46723E-15
4.28362E-05 1.31641E-15
4.57395E-05 1.18662E-15
4.87380E-05 1.06818E-15
5.18317E-05 9.65262E-16
5.50205E-05 8.75055E-16
5.83045E-05 7.93211E-16
6.16838E-05 7.21511E-16
6.51582E-05 6.57803E-16
6.87277E-05 6.00334E-16
7.23925E-05 5.49511E-16
7.61524E-05 5.03844E-16
9.21439E-05 3.62593E-16
1.09658E-04 2.68395E-16
1.28695E-04 2.03437E-16
1.49255E-04 1.57557E-16
1.71338E-04 1.24058E-16
1.94942E-04 9.91701E-17
2.20070E-04 8.03304E-17
2.46720E-04 6.57752E-17
2.74892E-04 5.43812E-17
3.04586E-04 4.53142E-17
3.35803E-04 3.80457E-17
3.68542E-04 3.21636E-17
4.02802E-04 2.73662E-17
4.38585E-04 2.34293E-17
4.75889E-04 2.01679E-17
5.14715E-04 1.74533E-17
5.55063E-04 1.51766E-17
5.96931E-04 1.32581E-17
6.40321E-04 1.16269E-17
6.85233E-04 1.02442E-17
7.31665E-04 9.06820E-18
7.79618E-04 8.04814E-18
8.29092E-04 7.17159E-18
8.80086E-04 6.41391E-18
9.32601E-04 5.75009E-18
9.86636E-04 5.17260E-18
1.04219E-03 4.66660E-18
1.09927E-03 4.21993E-18
1.15786E-03 3.82706E-18
1.21797E-03 3.47874E-18
1.27961E-03 3.16889E-18
1.34276E-03 2.89382E-18
1.40743E-03 2.64754E-18
1.47362E-03 2.42708E-18
1.54133E-03 2.22978E-18
1.61056E-03 2.05158E-18
1.68131E-03 1.89115E-18
1.75357E-03 1.74653E-18
1.82735E-03 1.61498E-18
1.90265E-03 1.49591E-18
1.97947E-03 1.38780E-18
2.05780E-03 1.28904E-18
2.13765E-03 1.19915E-18
2.21902E-03 1.11699E-18
2.30190E-03 1.04165E-18
2.38630E-03 9.72724E-19
2.47222E-03 9.09365E-19
2.55965E-03 8.51071E-19
2.64859E-03 7.97496E-19
2.73905E-03 7.47993E-19
2.83103E-03 7.02304E-19
2.92452E-03 6.60139E-19
3.01952E-03 6.21002E-19
3.11604E-03 5.84777E-19
3.21407E-03 5.51210E-19
3.31362E-03 5.19949E-19
3.41468E-03 4.90925E-19
3.51725E-03 4.63920E-19
3.62133E-03 4.38714E-19
3.72692E-03 4.15236E-19
3.83403E-03 3.93310E-19
3.94265E-03 3.72803E-19
4.05278E-03 3.53645E-19
4.16442E-03 3.35693E-19
4.27757E-03 3.18869E-19
4.39223E-03 3.03109E-19
4.50840E-03 2.88297E-19
4.62608E-03 2.74389E-19
4.74527E-03 2.61328E-19
4.86597E-03 2.49019E-19
4.98817E-03 2.37440E-19
5.11188E-03 2.26538E-19
5.23711E-03 2.16244E-19
5.36383E-03 2.06540E-19
5.49207E-03 1.97381E-19
5.62181E-03 1.88719E-19
5.75306E-03 1.80538E-19
5.88581E-03 1.72797E-19
6.02007E-03 1.65466E-19
6.15583E-03 1.58528E-19
6.29310E-03 1.51950E-19
6.43187E-03 1.45712E-19
6.57214E-03 1.39797E-19
6.71392E-03 1.34178E-19
6.85720E-03 1.28842E-19
7.00198E-03 1.23775E-19
7.14827E-03 1.18951E-19
7.29605E-03 1.14365E-19
7.44534E-03 1.10001E-19
7.59612E-03 1.05843E-19
7.97965E-03 9.62873E-20
8.37255E-03 8.77974E-20
8.77480E-03 8.02330E-20
9.18641E-03 7.34747E-20
9.60736E-03 6.74213E-20
1.00376E-02 6.19864E-20
1.04773E-02 5.70955E-20
1.09262E-02 5.26840E-20
1.13844E-02 4.86964E-20
1.18520E-02 4.50845E-20
1.23288E-02 4.18064E-20
1.28150E-02 3.88253E-20
1.33104E-02 3.61093E-20
1.38150E-02 3.36305E-20
1.43290E-02 3.13644E-20
1.48521E-02 2.92893E-20
1.53845E-02 2.73859E-20
1.59262E-02 2.56375E-20
1.64770E-02 2.40290E-20
1.70371E-02 2.25471E-20
1.76063E-02 2.11798E-20
1.81848E-02 1.99165E-20
1.87724E-02 1.87480E-20
1.93692E-02 1.76656E-20
1.99751E-02 1.66619E-20
2.05901E-02 1.57299E-20
2.12143E-02 1.48636E-20
2.18476E-02 1.40575E-20
2.24900E-02 1.33064E-20
2.31415E-02 1.26060E-20
2.38021E-02 1.19521E-20
2.44717E-02 1.13410E-20
2.51504E-02 1.07694E-20
2.58382E-02 1.02342E-20
2.65349E-02 9.73271E-21
2.72407E-02 9.26227E-21
2.79555E-02 8.82064E-21
2.86793E-02 8.40565E-21
2.94120E-02 8.01540E-21
3.01537E-02 7.64813E-21
3.09043E-02 7.30220E-21
3.16639E-02 6.97612E-21
3.24324E-02 6.66854E-21
3.32098E-02 6.37818E-21
3.39961E-02 6.10387E-21
3.47912E-02 5.84456E-21
3.55952E-02 5.59925E-21
3.64081E-02 5.36704E-21
3.72297E-02 5.14708E-21
3.80602E-02 4.93861E-21
3.88995E-02 4.74088E-21
3.97476E-02 4.55324E-21
4.06044E-02 4.37507E-21
4.14700E-02 4.20577E-21
4.23443E-02 4.04484E-21
4.32273E-02 3.89175E-21
4.41190E-02 3.74607E-21
4.50194E-02 3.60734E-21
4.59284E-02 3.47518E-21
4.68461E-02 3.34920E-21
4.87074E-02 3.11442E-21
5.06030E-02 2.90046E-21
5.25328E-02 2.70513E-21
5.44967E-02 2.52647E-21
5.64946E-02 2.36278E-21
5.85262E-02 2.21254E-21
6.05914E-02 2.07444E-21
6.26901E-02 1.94729E-21
6.48222E-02 1.83005E-21
6.69873E-02 1.72179E-21
6.91854E-02 1.62168E-21
7.14163E-02 1.52898E-21
7.36799E-02 1.44303E-21
7.59760E-02 1.36324E-21
7.83043E-02 1.28907E-21
8.06647E-02 1.22005E-21
8.30571E-02 1.15574E-21
8.54812E-02 1.09576E-21
8.79369E-02 1.03975E-21
9.04240E-02 9.87392E-22
9.29422E-02 9.38399E-22
9.54915E-02 8.92513E-22
9.80716E-02 8.49494E-22
1.00682E-01 8.09120E-22
1.03323E-01 7.71198E-22
1.05995E-01 7.35548E-22
1.08696E-01 7.02001E-22
1.11427E-01 6.70409E-22
1.14188E-01 6.40634E-22
1.16978E-01 6.12546E-22
1.19797E-01 5.86031E-22
1.22645E-01 5.60984E-22
1.25522E-01 5.37301E-22
1.28428E-01 5.14895E-22
1.31361E-01 4.93682E-22
1.34323E-01 4.73584E-22
1.37313E-01 4.54529E-22
1.40330E-01 4.36453E-22
1.43375E-01 4.19292E-22
1.46447E-01 4.02992E-22
1.49545E-01 3.87499E-22
1.52671E-01 3.72765E-22
1.55823E-01 3.58743E-22
1.59001E-01 3.45394E-22
1.62205E-01 3.32675E-22
1.65435E-01 3.20552E-22
1.68690E-01 3.08991E-22
1.71970E-01 2.97958E-22
1.75276E-01 2.87426E-22
1.78606E-01 2.77367E-22
1.81961E-01 2.67753E-22
1.85340E-01 2.58562E-22
1.88743E-01 2.49770E-22
1.92169E-01 2.41356E-22
1.95619E-01 2.33301E-22
1.99092E-01 2.25585E-22
2.02589E-01 2.18191E-22
2.06107E-01 2.11104E-22
2.09649E-01 2.04306E-22
2.13212E-01 1.97784E-22
2.16797E-01 1.91524E-22
2.20404E-01 1.85513E-22
2.24032E-01 1.79739E-22
2.27680E-01 1.74191E-22
2.31350E-01 1.68857E-22
2.35040E-01 1.63728E-22
2.38751E-01 1.58794E-22
2.42481E-01 1.54046E-22
2.46231E-01 1.49475E-22
2.50000E-01 1.45073E-22
2.53788E-01 1.40833E-22
2.57595E-01 1.36747E-22
2.61421E-01 1.32809E-22
2.65264E-01 1.29011E-22
2.69126E-01 1.25348E-22
2.73005E-01 1.21814E-22
2.76901E-01 1.18403E-22
2.80814E-01 1.15111E-22
2.84744E-01 1.11931E-22
2.88691E-01 1.08860E-22
2.92653E-01 1.05892E-22
2.96632E-01 1.03024E-22
3.00625E-01 1.00251E-22
3.04634E-01 9.75699E-23
3.08658E-01 9.49765E-23
3.12697E-01 9.24674E-23
3.16749E-01 9.00392E-23
3.20816E-01 8.76888E-23
3.24896E-01 8.54131E-23
3.28990E-01 8.32092E-23
3.33097E-01 8.10744E-23
3.37216E-01 7.90059E-23
3.41348E-01 7.70013E-23
3.45492E-01 7.50581E-23
3.49647E-01 7.31741E-23
3.53814E-01 7.13471E-23
3.57992E-01 6.95749E-23
3.62181E-01 6.78555E-23
3.66381E-01 6.61870E-23
3.70590E-01 6.45676E-23
3.74810E-01 6.29954E-23
3.79039E-01 6.14689E-23
3.83277E-01 5.99864E-23
3.87524E-01 5.85464E-23
3.91780E-01 5.71474E-23
3.96044E-01 5.57878E-23
4.00316E-01 5.44666E-23
4.04596E-01 5.31821E-23
4.08882E-01 5.19333E-23
4.13176E-01 5.07190E-23
4.17476E-01 4.95379E-23
4.21783E-01 4.83889E-23
4.26095E-01 4.72711E-23
4.30413E-01 4.61834E-23
4.34737E-01 4.51247E-23
4.39065E-01 4.40942E-23
4.43398E-01 4.30909E-23
4.47736E-01 4.21140E-23
4.52077E-01 4.11626E-23
4.56422E-01 4.02359E-23
4.60770E-01 3.93332E-23
4.65122E-01 3.84536E-23
4.69476E-01 3.75965E-23
4.73832E-01 3.67612E-23
4.78190E-01 3.59470E-23
4.82550E-01 3.51532E-23
4.86912E-01 3.43792E-23
4.91274E-01 3.36245E-23
4.95637E-01 3.28885E-23
5.00000E-01 3.21705E-23
5.04363E-01 3.14701E-23
5.08726E-01 3.07868E-23
5.13088E-01 3.01200E-23
5.17450E-01 2.94693E-23
5.21810E-01 2.88342E-23
5.26168E-01 2.82142E-23
5.30524E-01 2.76089E-23
5.34878E-01 2.70180E-23
5.39230E-01 2.64409E-23
5.43578E-01 2.58773E-23
5.47923E-01 2.53269E-23
5.52264E-01 2.47892E-23
5.56602E-01 2.42639E-23
5.60935E-01 2.37507E-23
5.65263E-01 2.32492E-23
5.69587E-01 2.27591E-23
5.73905E-01 2.22801E-23
5.78217E-01 2.18119E-23
5.82524E-01 2.13543E-23
5.86824E-01 2.09069E-23
5.91118E-01 2.04694E-23
5.95404E-01 2.00416E-23
5.99684E-01 1.96233E-23
6.03956E-01 1.92141E-23
6.08220E-01 1.88139E-23
6.12476E-01 1.84225E-23
6.16723E-01 1.80395E-23
6.20961E-01 1.76649E-23
6.25190E-01 1.72983E-23
6.29410E-01 1.69395E-23
6.33619E-01 1.65885E-23
6.37819E-01 1.62449E-23
6.42008E-01 1.59086E-23
6.46186E-01 1.55795E-23
6.50353E-01 1.52572E-23
6.54508E-01 1.49418E-23
6.58652E-01 1.46329E-23
6.62784E-01 1.43305E-23
6.66903E-01 1.40343E-23
6.71010E-01 1.37443E-23
6.75104E-01 1.34603E-23
6.79184E-01 1.31822E-23
6.83251E-01 1.29097E-23
6.87303E-01 1.26428E-23
6.91342E-01 1.23814E-23
6.95366E-01 1.21253E-23
6.99375E-01 1.18744E-23
7.03368E-01 1.16285E-23
7.07347E-01 1.13876E-23
7.11309E-01 1.11515E-23
7.15256E-01 1.09202E-23
7.19186E-01 1.06935E-23
7.23099E-01 1.04714E-23
7.26995E-01 1.02536E-23
7.30874E-01 1.00402E-23
7.34736E-01 9.83098E-24
7.38579E-01 9.62592E-24
7.42405E-01 9.42489E-24
7.46212E-01 9.22782E-24
7.50000E-01 9.03462E-24
7.53769E-01 8.84521E-24
7.57519E-01 8.65951E-24
7.61249E-01 8.47743E-24
7.64960E-01 8.29889E-24
7.68650E-01 8.12384E-24
7.72320E-01 7.95218E-24
7.75968E-01 7.78386E-24
7.79596E-01 7.61879E-24
7.83203E-01 7.45692E-24
7.86788E-01 7.29818E-24
7.90351E-01 7.14250E-24
7.93893E-01 6.98983E-24
7.97411E-01 6.84010E-24
8.00908E-01 6.69325E-24
8.04381E-01 6.54922E-24
8.07831E-01 6.40796E-24
8.11257E-01 6.26942E-24
8.14660E-01 6.13354E-24
8.18039E-01 6.00026E-24
8.21394E-01 5.86955E-24
8.24724E-01 5.74134E-24
8.28030E-01 5.61560E-24
8.31310E-01 5.49227E-24
8.34565E-01 5.37130E-24
8.37795E-01 5.25266E-24
8.40999E-01 5.13630E-24
8.44177E-01 5.02218E-24
8.47329E-01 4.91025E-24
8.50455E-01 4.80048E-24
8.53553E-01 4.69283E-24
8.56625E-01 4.58726E-24
8.59670E-01 4.48372E-24
8.62687E-01 4.38220E-24
8.65677E-01 4.28264E-24
8.68639E-01 4.18501E-24
8.71572E-01 4.08929E-24
8.74478E-01 3.99543E-24
8.77355E-01 3.90341E-24
8.80203E-01 3.81319E-24
8.83022E-01 3.72475E-24
8.85812E-01 3.63805E-24
8.88573E-01 3.55307E-24
8.91304E-01 3.46977E-24
8.94005E-01 3.38813E-24
8.96677E-01 3.30812E-24
8.99318E-01 3.22972E-24
9.01928E-01 3.15289E-24
9.04508E-01 3.07763E-24
9.07058E-01 3.00389E-24
9.09576E-01 2.93166E-24
9.12063E-01 2.86091E-24
9.14519E-01 2.79162E-24
9.16943E-01 2.72377E-24
9.19335E-01 2.65733E-24
9.21696E-01 2.59230E-24
9.24024E-01 2.52863E-24
9.26320E-01 2.46633E-24
9.28584E-01 2.40536E-24
9.30815E-01 2.34570E-24
9.33013E-01 2.28735E-24
9.35178E-01 2.23027E-24
9.37310E-01 2.17446E-24
9.39409E-01 2.11989E-24
9.41474E-01 2.06655E-24
9.43505E-01 2.01443E-24
9.45503E-01 1.96350E-24
9.47467E-01 1.91376E-24
9.49397E-01 1.86518E-24
9.51293E-01 1.81775E-24
9.53154E-01 1.77146E-24
9.54981E-01 1.72630E-24
9.56773E-01 1.68225E-24
9.58530E-01 1.63929E-24
9.60252E-01 1.59742E-24
9.61940E-01 1.55662E-24
9.63592E-01 1.51689E-24
9.65209E-01 1.47820E-24
9.66790E-01 1.44055E-24
9.68336E-01 1.40393E-24
9.69846E-01 1.36832E-24
9.71321E-01 1.33372E-24
9.72759E-01 1.30012E-24
9.74162E-01 1.26750E-24
9.75528E-01 1.23586E-24
9.76858E-01 1.20519E-24
9.78152E-01 1.17548E-24
9.79410E-01 1.14671E-24
9.80631E-01 1.11890E-24
9.81815E-01 1.09201E-24
9.82963E-01 1.06605E-24
9.84074E-01 1.04102E-24
9.85148E-01 1.01689E-24
9.86185E-01 9.93675E-25
9.87185E-01 9.71356E-25
9.88148E-01 9.49930E-25
9.89074E-01 9.29392E-25
9.89962E-01 9.09734E-25
9.90814E-01 8.90953E-25
9.91627E-01 8.73043E-25
9.92404E-01 8.55999E-25
9.93143E-01 8.39815E-25
9.93844E-01 8.24488E-25
9.94508E-01 8.10014E-25
9.95134E-01 7.96388E-25
9.95722E-01 7.83606E-25
9.96273E-01 7.71665E-25
9.96786E-01 7.60562E-25
9.97261E-01 7.50294E-25
9.97698E-01 7.40857E-25
9.98097E-01 7.32250E-25
9.98459E-01 7.24469E-25
9.98782E-01 7.17513E-25
9.99067E-01 7.11380E-25
9.99315E-01 7.06069E-25
9.99524E-01 7.01576E-25
9.99695E-01 6.97903E-25
9.99829E-01 6.95046E-25
9.99924E-01 6.93007E-25
9.99981E-01 6.91783E-25
1.00000E+00 6.91375E-25
