 #
 # Subroutine ELSEPA. Elastic scattering of electrons and positrons
 #                    by neutral atoms and positive ions
 #
 # Projectile: electron
 # Kinetic energy = 4.00000E+06 eV = 1.46997E+05 a.u.
 #
 # WARNING: High-energy factorization with free-atom DF screening.
 #          Absorption, polarization and exchange corrections are
 #          switched off.
 #          Phase shifts are calculated for the bare nucleus.
 #          Scattering amplitudes are not evaluated.
 #
 # Element: Gd,  Z =  64,  atomic weight = 1.57250E+02 g/mol
 #
 # Nuclear model: Fermi distribution
 #                Average radius = 5.77538E-13 cm
 #                Skin thickness = 5.46000E-14 cm
 #
 # Number of electrons = 64
 #
 # Total elastic cross section = 7.50524E-18 cm**2 = 2.68017E-01 a0**2
 # 1st transport cross section = 3.25069E-22 cm**2 = 1.16084E-05 a0**2
 # 2nd transport cross section = 8.89117E-22 cm**2 = 3.17510E-05 a0**2
 #
 #
 # Differential cross section:                       MU=(1-COS(THETA))/2
 #
 #  THETA        MU          DCS          DCS        Sherman      error
 #  (deg)                 (cm**2/sr)   (a0**2/sr)    function
 #----------------------------------------------------------------------
0.00000E+00 1.74874E-12
7.61557E-13 1.74872E-12
1.18994E-12 1.74871E-12
1.71346E-12 1.74870E-12
2.33225E-12 1.74869E-12
3.04617E-12 1.74868E-12
3.85530E-12 1.74866E-12
4.75964E-12 1.74864E-12
5.75917E-12 1.74862E-12
6.85391E-12 1.74860E-12
8.04379E-12 1.74858E-12
9.32893E-12 1.74855E-12
1.07092E-11 1.74853E-12
1.21847E-11 1.74850E-12
1.37554E-11 1.74847E-12
1.54213E-11 1.74843E-12
1.71823E-11 1.74840E-12
1.90386E-11 1.74836E-12
2.09900E-11 1.74832E-12
2.30367E-11 1.74828E-12
2.51785E-11 1.74824E-12
2.74156E-11 1.74820E-12
2.97478E-11 1.74815E-12
3.21752E-11 1.74810E-12
3.46979E-11 1.74805E-12
3.73157E-11 1.74800E-12
4.00286E-11 1.74795E-12
4.28368E-11 1.74789E-12
4.57402E-11 1.74784E-12
4.87388E-11 1.74778E-12
5.18325E-11 1.74772E-12
5.50215E-11 1.74765E-12
5.83057E-11 1.74759E-12
6.16850E-11 1.74752E-12
6.51595E-11 1.74745E-12
6.87293E-11 1.74738E-12
7.23943E-11 1.74731E-12
7.61544E-11 1.74724E-12
1.18991E-10 1.74639E-12
1.71347E-10 1.74536E-12
2.33223E-10 1.74414E-12
3.04617E-10 1.74274E-12
3.85531E-10 1.74115E-12
4.75965E-10 1.73937E-12
5.75917E-10 1.73742E-12
6.85389E-10 1.73528E-12
8.04380E-10 1.73296E-12
9.32891E-10 1.73046E-12
1.07092E-09 1.72778E-12
1.21847E-09 1.72492E-12
1.37554E-09 1.72189E-12
1.54213E-09 1.71868E-12
1.71823E-09 1.71530E-12
1.90386E-09 1.71175E-12
2.09900E-09 1.70803E-12
2.30367E-09 1.70415E-12
2.51785E-09 1.70010E-12
2.74156E-09 1.69588E-12
2.97478E-09 1.69151E-12
3.21752E-09 1.68697E-12
3.46978E-09 1.68228E-12
3.73156E-09 1.67744E-12
4.00286E-09 1.67244E-12
4.28368E-09 1.66729E-12
4.57402E-09 1.66200E-12
4.87388E-09 1.65656E-12
5.18326E-09 1.65098E-12
5.50215E-09 1.64526E-12
5.83057E-09 1.63940E-12
6.16850E-09 1.63341E-12
6.51596E-09 1.62729E-12
6.87293E-09 1.62104E-12
7.23942E-09 1.61467E-12
7.61544E-09 1.60817E-12
1.18991E-08 1.53716E-12
1.71347E-08 1.45721E-12
2.33223E-08 1.37148E-12
3.04617E-08 1.28275E-12
3.85531E-08 1.19352E-12
4.75965E-08 1.10586E-12
5.75917E-08 1.02141E-12
6.85389E-08 9.41606E-13
8.04380E-08 8.66883E-13
9.32891E-08 7.97629E-13
1.07092E-07 7.33966E-13
1.21847E-07 6.75815E-13
1.37554E-07 6.23063E-13
1.54213E-07 5.75290E-13
1.71823E-07 5.32047E-13
1.90386E-07 4.92945E-13
2.09900E-07 4.57596E-13
2.30367E-07 4.25632E-13
2.51785E-07 3.96696E-13
2.74156E-07 3.70418E-13
2.97478E-07 3.46510E-13
3.21752E-07 3.24712E-13
3.46978E-07 3.04795E-13
3.73156E-07 2.86521E-13
4.00286E-07 2.69716E-13
4.28368E-07 2.54233E-13
4.57402E-07 2.39936E-13
4.87388E-07 2.26705E-13
5.18325E-07 2.14420E-13
5.50215E-07 2.02963E-13
5.83057E-07 1.92291E-13
6.16850E-07 1.82334E-13
6.51596E-07 1.73029E-13
6.87293E-07 1.64320E-13
7.23942E-07 1.56123E-13
7.61543E-07 1.48423E-13
1.18991E-06 9.17141E-14
1.71347E-06 5.93945E-14
2.33223E-06 3.99254E-14
3.04617E-06 2.78954E-14
3.85531E-06 2.01079E-14
4.75964E-06 1.48642E-14
5.75916E-06 1.12069E-14
6.85388E-06 8.55822E-15
8.04378E-06 6.63690E-15
9.32888E-06 5.21663E-15
1.07092E-05 4.15041E-15
1.21846E-05 3.33959E-15
1.37553E-05 2.71413E-15
1.54212E-05 2.22870E-15
1.71822E-05 1.84867E-15
1.90385E-05 1.54713E-15
2.09899E-05 1.30732E-15
2.30365E-05 1.11326E-15
2.51783E-05 9.54422E-16
2.74153E-05 8.23799E-16
2.97475E-05 7.15086E-16
3.21749E-05 6.23940E-16
3.46974E-05 5.47262E-16
3.73152E-05 4.82225E-16
4.00281E-05 4.26755E-16
4.28362E-05 3.79165E-16
4.57395E-05 3.38077E-16
4.87380E-05 3.02401E-16
5.18317E-05 2.71247E-16
5.50205E-05 2.43897E-16
5.83045E-05 2.19873E-16
6.16838E-05 1.98708E-16
6.51582E-05 1.80013E-16
6.87277E-05 1.63453E-16
7.23925E-05 1.48724E-16
7.61524E-05 1.35608E-16
9.21439E-05 9.55594E-17
1.09658E-04 6.91723E-17
1.28695E-04 5.12500E-17
1.49255E-04 3.88062E-17
1.71338E-04 2.99324E-17
1.94942E-04 2.34631E-17
2.20070E-04 1.86534E-17
2.46720E-04 1.50183E-17
2.74892E-04 1.22309E-17
3.04586E-04 1.00638E-17
3.35803E-04 8.35765E-18
3.68542E-04 6.99885E-18
4.02802E-04 5.90490E-18
4.38585E-04 5.01706E-18
4.75889E-04 4.29034E-18
5.14715E-04 3.69076E-18
5.55063E-04 3.19248E-18
5.96931E-04 2.77530E-18
6.40321E-04 2.42409E-18
6.85233E-04 2.12677E-18
7.31665E-04 1.87371E-18
7.79618E-04 1.65722E-18
8.29092E-04 1.47110E-18
8.80086E-04 1.31033E-18
9.32601E-04 1.17097E-18
9.86636E-04 1.04968E-18
1.04219E-03 9.43714E-19
1.09927E-03 8.50808E-19
1.15786E-03 7.69048E-19
1.21797E-03 6.96893E-19
1.27961E-03 6.33025E-19
1.34276E-03 5.76327E-19
1.40743E-03 5.25855E-19
1.47362E-03 4.80799E-19
1.54133E-03 4.40475E-19
1.61056E-03 4.04307E-19
1.68131E-03 3.71789E-19
1.75357E-03 3.42489E-19
1.82735E-03 3.16031E-19
1.90265E-03 2.92085E-19
1.97947E-03 2.70375E-19
2.05780E-03 2.50655E-19
2.13765E-03 2.32710E-19
2.21902E-03 2.16351E-19
2.30190E-03 2.01410E-19
2.38630E-03 1.87743E-19
2.47222E-03 1.75223E-19
2.55965E-03 1.63736E-19
2.64859E-03 1.53180E-19
2.73905E-03 1.43467E-19
2.83103E-03 1.34515E-19
2.92452E-03 1.26256E-19
3.01952E-03 1.18625E-19
3.11604E-03 1.11566E-19
3.21407E-03 1.05027E-19
3.31362E-03 9.89644E-20
3.41468E-03 9.33355E-20
3.51725E-03 8.81041E-20
3.62133E-03 8.32371E-20
3.72692E-03 7.87040E-20
3.83403E-03 7.44777E-20
3.94265E-03 7.05333E-20
4.05278E-03 6.68487E-20
4.16442E-03 6.34036E-20
4.27757E-03 6.01794E-20
4.39223E-03 5.71593E-20
4.50840E-03 5.43278E-20
4.62608E-03 5.16708E-20
4.74527E-03 4.91759E-20
4.86597E-03 4.68310E-20
4.98817E-03 4.46255E-20
5.11188E-03 4.25495E-20
5.23711E-03 4.05939E-20
5.36383E-03 3.87503E-20
5.49207E-03 3.70113E-20
5.62181E-03 3.53697E-20
5.75306E-03 3.38190E-20
5.88581E-03 3.23531E-20
6.02007E-03 3.09665E-20
6.15583E-03 2.96543E-20
6.29310E-03 2.84115E-20
6.43187E-03 2.72338E-20
6.57214E-03 2.61172E-20
6.71392E-03 2.50577E-20
6.85720E-03 2.40521E-20
7.00198E-03 2.30969E-20
7.14827E-03 2.21892E-20
7.29605E-03 2.13262E-20
7.44534E-03 2.05052E-20
7.59612E-03 1.97237E-20
7.97965E-03 1.79287E-20
8.37255E-03 1.63355E-20
8.77480E-03 1.49175E-20
9.18641E-03 1.36518E-20
9.60736E-03 1.25191E-20
1.00376E-02 1.15030E-20
1.04773E-02 1.05892E-20
1.09262E-02 9.76552E-21
1.13844E-02 9.02150E-21
1.18520E-02 8.34794E-21
1.23288E-02 7.73699E-21
1.28150E-02 7.18175E-21
1.33104E-02 6.67618E-21
1.38150E-02 6.21502E-21
1.43290E-02 5.79360E-21
1.48521E-02 5.40787E-21
1.53845E-02 5.05425E-21
1.59262E-02 4.72955E-21
1.64770E-02 4.43097E-21
1.70371E-02 4.15599E-21
1.76063E-02 3.90239E-21
1.81848E-02 3.66819E-21
1.87724E-02 3.45164E-21
1.93692E-02 3.25113E-21
1.99751E-02 3.06527E-21
2.05901E-02 2.89275E-21
2.12143E-02 2.73244E-21
2.18476E-02 2.58331E-21
2.24900E-02 2.44444E-21
2.31415E-02 2.31497E-21
2.38021E-02 2.19414E-21
2.44717E-02 2.08126E-21
2.51504E-02 1.97571E-21
2.58382E-02 1.87692E-21
2.65349E-02 1.78437E-21
2.72407E-02 1.69758E-21
2.79555E-02 1.61613E-21
2.86793E-02 1.53963E-21
2.94120E-02 1.46770E-21
3.01537E-02 1.40004E-21
3.09043E-02 1.33632E-21
3.16639E-02 1.27628E-21
3.24324E-02 1.21965E-21
3.32098E-02 1.16622E-21
3.39961E-02 1.11575E-21
3.47912E-02 1.06806E-21
3.55952E-02 1.02295E-21
3.64081E-02 9.80266E-22
3.72297E-02 9.39843E-22
3.80602E-02 9.01539E-22
3.88995E-02 8.65221E-22
3.97476E-02 8.30764E-22
4.06044E-02 7.98053E-22
4.14700E-02 7.66982E-22
4.23443E-02 7.37451E-22
4.32273E-02 7.09369E-22
4.41190E-02 6.82650E-22
4.50194E-02 6.57213E-22
4.59284E-02 6.32985E-22
4.68461E-02 6.09896E-22
4.87074E-02 5.66882E-22
5.06030E-02 5.27701E-22
5.25328E-02 4.91945E-22
5.44967E-02 4.59255E-22
5.64946E-02 4.29315E-22
5.85262E-02 4.01849E-22
6.05914E-02 3.76610E-22
6.26901E-02 3.53383E-22
6.48222E-02 3.31973E-22
6.69873E-02 3.12210E-22
6.91854E-02 2.93941E-22
7.14163E-02 2.77031E-22
7.36799E-02 2.61357E-22
7.59760E-02 2.46811E-22
7.83043E-02 2.33294E-22
8.06647E-02 2.20720E-22
8.30571E-02 2.09007E-22
8.54812E-02 1.98086E-22
8.79369E-02 1.87892E-22
9.04240E-02 1.78365E-22
9.29422E-02 1.69453E-22
9.54915E-02 1.61108E-22
9.80716E-02 1.53287E-22
1.00682E-01 1.45949E-22
1.03323E-01 1.39058E-22
1.05995E-01 1.32582E-22
1.08696E-01 1.26489E-22
1.11427E-01 1.20754E-22
1.14188E-01 1.15349E-22
1.16978E-01 1.10252E-22
1.19797E-01 1.05442E-22
1.22645E-01 1.00898E-22
1.25522E-01 9.66042E-23
1.28428E-01 9.25424E-23
1.31361E-01 8.86978E-23
1.34323E-01 8.50562E-23
1.37313E-01 8.16045E-23
1.40330E-01 7.83307E-23
1.43375E-01 7.52235E-23
1.46447E-01 7.22728E-23
1.49545E-01 6.94689E-23
1.52671E-01 6.68029E-23
1.55823E-01 6.42666E-23
1.59001E-01 6.18523E-23
1.62205E-01 5.95527E-23
1.65435E-01 5.73614E-23
1.68690E-01 5.52719E-23
1.71970E-01 5.32786E-23
1.75276E-01 5.13761E-23
1.78606E-01 4.95592E-23
1.81961E-01 4.78235E-23
1.85340E-01 4.61643E-23
1.88743E-01 4.45777E-23
1.92169E-01 4.30596E-23
1.95619E-01 4.16065E-23
1.99092E-01 4.02150E-23
2.02589E-01 3.88819E-23
2.06107E-01 3.76042E-23
2.09649E-01 3.63792E-23
2.13212E-01 3.52040E-23
2.16797E-01 3.40764E-23
2.20404E-01 3.29939E-23
2.24032E-01 3.19543E-23
2.27680E-01 3.09556E-23
2.31350E-01 2.99957E-23
2.35040E-01 2.90728E-23
2.38751E-01 2.81853E-23
2.42481E-01 2.73313E-23
2.46231E-01 2.65095E-23
2.50000E-01 2.57183E-23
2.53788E-01 2.49563E-23
2.57595E-01 2.42222E-23
2.61421E-01 2.35147E-23
2.65264E-01 2.28327E-23
2.69126E-01 2.21751E-23
2.73005E-01 2.15407E-23
2.76901E-01 2.09287E-23
2.80814E-01 2.03379E-23
2.84744E-01 1.97676E-23
2.88691E-01 1.92168E-23
2.92653E-01 1.86848E-23
2.96632E-01 1.81708E-23
3.00625E-01 1.76739E-23
3.04634E-01 1.71936E-23
3.08658E-01 1.67291E-23
3.12697E-01 1.62798E-23
3.16749E-01 1.58451E-23
3.20816E-01 1.54245E-23
3.24896E-01 1.50173E-23
3.28990E-01 1.46231E-23
3.33097E-01 1.42413E-23
3.37216E-01 1.38714E-23
3.41348E-01 1.35131E-23
3.45492E-01 1.31659E-23
3.49647E-01 1.28293E-23
3.53814E-01 1.25029E-23
3.57992E-01 1.21865E-23
3.62181E-01 1.18795E-23
3.66381E-01 1.15818E-23
3.70590E-01 1.12928E-23
3.74810E-01 1.10124E-23
3.79039E-01 1.07401E-23
3.83277E-01 1.04758E-23
3.87524E-01 1.02192E-23
3.91780E-01 9.96984E-24
3.96044E-01 9.72765E-24
4.00316E-01 9.49232E-24
4.04596E-01 9.26362E-24
4.08882E-01 9.04133E-24
4.13176E-01 8.82522E-24
4.17476E-01 8.61508E-24
4.21783E-01 8.41072E-24
4.26095E-01 8.21194E-24
4.30413E-01 8.01856E-24
4.34737E-01 7.83040E-24
4.39065E-01 7.64729E-24
4.43398E-01 7.46908E-24
4.47736E-01 7.29559E-24
4.52077E-01 7.12668E-24
4.56422E-01 6.96220E-24
4.60770E-01 6.80202E-24
4.65122E-01 6.64598E-24
4.69476E-01 6.49397E-24
4.73832E-01 6.34586E-24
4.78190E-01 6.20154E-24
4.82550E-01 6.06087E-24
4.86912E-01 5.92377E-24
4.91274E-01 5.79011E-24
4.95637E-01 5.65978E-24
5.00000E-01 5.53270E-24
5.04363E-01 5.40876E-24
5.08726E-01 5.28786E-24
5.13088E-01 5.16992E-24
5.17450E-01 5.05486E-24
5.21810E-01 4.94259E-24
5.26168E-01 4.83303E-24
5.30524E-01 4.72610E-24
5.34878E-01 4.62172E-24
5.39230E-01 4.51983E-24
5.43578E-01 4.42034E-24
5.47923E-01 4.32320E-24
5.52264E-01 4.22833E-24
5.56602E-01 4.13568E-24
5.60935E-01 4.04518E-24
5.65263E-01 3.95677E-24
5.69587E-01 3.87040E-24
5.73905E-01 3.78601E-24
5.78217E-01 3.70355E-24
5.82524E-01 3.62296E-24
5.86824E-01 3.54419E-24
5.91118E-01 3.46720E-24
5.95404E-01 3.39193E-24
5.99684E-01 3.31835E-24
6.03956E-01 3.24640E-24
6.08220E-01 3.17605E-24
6.12476E-01 3.10725E-24
6.16723E-01 3.03997E-24
6.20961E-01 2.97416E-24
6.25190E-01 2.90978E-24
6.29410E-01 2.84681E-24
6.33619E-01 2.78519E-24
6.37819E-01 2.72491E-24
6.42008E-01 2.66592E-24
6.46186E-01 2.60820E-24
6.50353E-01 2.55171E-24
6.54508E-01 2.49642E-24
6.58652E-01 2.44230E-24
6.62784E-01 2.38933E-24
6.66903E-01 2.33747E-24
6.71010E-01 2.28670E-24
6.75104E-01 2.23699E-24
6.79184E-01 2.18832E-24
6.83251E-01 2.14066E-24
6.87303E-01 2.09398E-24
6.91342E-01 2.04827E-24
6.95366E-01 2.00351E-24
6.99375E-01 1.95966E-24
7.03368E-01 1.91671E-24
7.07347E-01 1.87464E-24
7.11309E-01 1.83342E-24
7.15256E-01 1.79305E-24
7.19186E-01 1.75349E-24
7.23099E-01 1.71473E-24
7.26995E-01 1.67675E-24
7.30874E-01 1.63953E-24
7.34736E-01 1.60307E-24
7.38579E-01 1.56733E-24
7.42405E-01 1.53231E-24
7.46212E-01 1.49798E-24
7.50000E-01 1.46434E-24
7.53769E-01 1.43136E-24
7.57519E-01 1.39904E-24
7.61249E-01 1.36736E-24
7.64960E-01 1.33631E-24
7.68650E-01 1.30586E-24
7.72320E-01 1.27602E-24
7.75968E-01 1.24676E-24
7.79596E-01 1.21808E-24
7.83203E-01 1.18996E-24
7.86788E-01 1.16239E-24
7.90351E-01 1.13535E-24
7.93893E-01 1.10885E-24
7.97411E-01 1.08286E-24
8.00908E-01 1.05738E-24
8.04381E-01 1.03240E-24
8.07831E-01 1.00790E-24
8.11257E-01 9.83880E-25
8.14660E-01 9.60327E-25
8.18039E-01 9.37231E-25
8.21394E-01 9.14583E-25
8.24724E-01 8.92376E-25
8.28030E-01 8.70601E-25
8.31310E-01 8.49248E-25
8.34565E-01 8.28310E-25
8.37795E-01 8.07780E-25
8.40999E-01 7.87648E-25
8.44177E-01 7.67909E-25
8.47329E-01 7.48554E-25
8.50455E-01 7.29576E-25
8.53553E-01 7.10968E-25
8.56625E-01 6.92723E-25
8.59670E-01 6.74836E-25
8.62687E-01 6.57299E-25
8.65677E-01 6.40105E-25
8.68639E-01 6.23250E-25
8.71572E-01 6.06726E-25
8.74478E-01 5.90528E-25
8.77355E-01 5.74651E-25
8.80203E-01 5.59088E-25
8.83022E-01 5.43834E-25
8.85812E-01 5.28884E-25
8.88573E-01 5.14233E-25
8.91304E-01 4.99876E-25
8.94005E-01 4.85807E-25
8.96677E-01 4.72022E-25
8.99318E-01 4.58517E-25
9.01928E-01 4.45286E-25
9.04508E-01 4.32326E-25
9.07058E-01 4.19632E-25
9.09576E-01 4.07199E-25
9.12063E-01 3.95024E-25
9.14519E-01 3.83102E-25
9.16943E-01 3.71430E-25
9.19335E-01 3.60004E-25
9.21696E-01 3.48820E-25
9.24024E-01 3.37875E-25
9.26320E-01 3.27164E-25
9.28584E-01 3.16685E-25
9.30815E-01 3.06434E-25
9.33013E-01 2.96408E-25
9.35178E-01 2.86604E-25
9.37310E-01 2.77018E-25
9.39409E-01 2.67647E-25
9.41474E-01 2.58489E-25
9.43505E-01 2.49541E-25
9.45503E-01 2.40800E-25
9.47467E-01 2.32263E-25
9.49397E-01 2.23927E-25
9.51293E-01 2.15790E-25
9.53154E-01 2.07850E-25
9.54981E-01 2.00104E-25
9.56773E-01 1.92549E-25
9.58530E-01 1.85183E-25
9.60252E-01 1.78005E-25
9.61940E-01 1.71011E-25
9.63592E-01 1.64201E-25
9.65209E-01 1.57571E-25
9.66790E-01 1.51119E-25
9.68336E-01 1.44845E-25
9.69846E-01 1.38745E-25
9.71321E-01 1.32818E-25
9.72759E-01 1.27063E-25
9.74162E-01 1.21477E-25
9.75528E-01 1.16059E-25
9.76858E-01 1.10808E-25
9.78152E-01 1.05721E-25
9.79410E-01 1.00798E-25
9.80631E-01 9.60361E-26
9.81815E-01 9.14350E-26
9.82963E-01 8.69929E-26
9.84074E-01 8.27087E-26
9.85148E-01 7.85810E-26
9.86185E-01 7.46087E-26
9.87185E-01 7.07905E-26
9.88148E-01 6.71255E-26
9.89074E-01 6.36125E-26
9.89962E-01 6.02505E-26
9.90814E-01 5.70385E-26
9.91627E-01 5.39757E-26
9.92404E-01 5.10611E-26
9.93143E-01 4.82939E-26
9.93844E-01 4.56733E-26
9.94508E-01 4.31986E-26
9.95134E-01 4.08691E-26
9.95722E-01 3.86840E-26
9.96273E-01 3.66428E-26
9.96786E-01 3.47449E-26
9.97261E-01 3.29897E-26
9.97698E-01 3.13768E-26
9.98097E-01 2.99057E-26
9.98459E-01 2.85759E-26
9.98782E-01 2.73871E-26
9.99067E-01 2.63389E-26
9.99315E-01 2.54312E-26
9.99524E-01 2.46635E-26
9.99695E-01 2.40356E-26
9.99829E-01 2.35475E-26
9.99924E-01 2.31990E-26
9.99981E-01 2.29899E-26
1.00000E+00 2.29202E-26
