 #
 # Subroutine ELSEPA. Elastic scattering of electrons and positrons
 #                    by neutral atoms and positive ions
 #
 # Projectile: electron
 # Kinetic energy = 1.50000E+08 eV = 5.51240E+06 a.u.
 #
 # WARNING: High-energy factorization with free-atom DF screening.
 #          Absorption, polarization and exchange corrections are
 #          switched off.
 #          Phase shifts are calculated for the bare nucleus.
 #          Scattering amplitudes are not evaluated.
 #
 # Element: Gd,  Z =  64,  atomic weight = 1.57250E+02 g/mol
 #
 # Nuclear model: Fermi distribution
 #                Average radius = 5.77538E-13 cm
 #                Skin thickness = 5.46000E-14 cm
 #
 # Number of electrons = 64
 #
 # Total elastic cross section = 7.40056E-18 cm**2 = 2.64279E-01 a0**2
 # 1st transport cross section = 3.50496E-25 cm**2 = 1.25164E-08 a0**2
 # 2nd transport cross section = 1.04748E-24 cm**2 = 3.74063E-08 a0**2
 #
 #
 # Differential cross section:                       MU=(1-COS(THETA))/2
 #
 #  THETA        MU          DCS          DCS        Sherman      error
 #  (deg)                 (cm**2/sr)   (a0**2/sr)    function
 #----------------------------------------------------------------------
0.00000E+00 1.94678E-09
7.61557E-13 1.92798E-09
1.18994E-12 1.91755E-09
1.71346E-12 1.90493E-09
2.33225E-12 1.89019E-09
3.04617E-12 1.87342E-09
3.85530E-12 1.85471E-09
4.75964E-12 1.83416E-09
5.75917E-12 1.81188E-09
6.85391E-12 1.78799E-09
8.04379E-12 1.76261E-09
9.32893E-12 1.73587E-09
1.07092E-11 1.70794E-09
1.21847E-11 1.67893E-09
1.37554E-11 1.64888E-09
1.54213E-11 1.61790E-09
1.71823E-11 1.58636E-09
1.90386E-11 1.55422E-09
2.09900E-11 1.52151E-09
2.30367E-11 1.48839E-09
2.51785E-11 1.45526E-09
2.74156E-11 1.42189E-09
2.97478E-11 1.38836E-09
3.21752E-11 1.35499E-09
3.46979E-11 1.32187E-09
3.73157E-11 1.28885E-09
4.00286E-11 1.25599E-09
4.28368E-11 1.22379E-09
4.57402E-11 1.19194E-09
4.87388E-11 1.16044E-09
5.18325E-11 1.12942E-09
5.50215E-11 1.09925E-09
5.83057E-11 1.06953E-09
6.16850E-11 1.04030E-09
6.51595E-11 1.01187E-09
6.87293E-11 9.84203E-10
7.23943E-11 9.57087E-10
7.61544E-11 9.30541E-10
1.18991E-10 7.05307E-10
1.71347E-10 5.42483E-10
2.33223E-10 4.26265E-10
3.04617E-10 3.42036E-10
3.85531E-10 2.79223E-10
4.75965E-10 2.31024E-10
5.75917E-10 1.93114E-10
6.85389E-10 1.62690E-10
8.04380E-10 1.37910E-10
9.32891E-10 1.17557E-10
1.07092E-09 1.00173E-10
1.21847E-09 8.56355E-11
1.37554E-09 7.41428E-11
1.54213E-09 6.49401E-11
1.71823E-09 5.64970E-11
1.90386E-09 4.93846E-11
2.09900E-09 4.35630E-11
2.30367E-09 3.86791E-11
2.51785E-09 3.41613E-11
2.74156E-09 3.03910E-11
2.97478E-09 2.72198E-11
3.21752E-09 2.44027E-11
3.46978E-09 2.18791E-11
3.73156E-09 1.97245E-11
4.00286E-09 1.78740E-11
4.28368E-09 1.61541E-11
4.57402E-09 1.46442E-11
4.87388E-09 1.33324E-11
5.18326E-09 1.21704E-11
5.50215E-09 1.10854E-11
5.83057E-09 1.01335E-11
6.16850E-09 9.29495E-12
6.51596E-09 8.52609E-12
6.87293E-09 7.82354E-12
7.23942E-09 7.19979E-12
7.61544E-09 6.64417E-12
1.18991E-08 3.14245E-12
1.71347E-08 1.67356E-12
2.33223E-08 9.80952E-13
3.04617E-08 6.17262E-13
3.85531E-08 4.09228E-13
4.75965E-08 2.82105E-13
5.75917E-08 2.00351E-13
6.85389E-08 1.45940E-13
8.04380E-08 1.08695E-13
9.32891E-08 8.25372E-14
1.07092E-07 6.37268E-14
1.21847E-07 5.00342E-14
1.37554E-07 3.97980E-14
1.54213E-07 3.20698E-14
1.71823E-07 2.61402E-14
1.90386E-07 2.15129E-14
2.09900E-07 1.78720E-14
2.30367E-07 1.49744E-14
2.51785E-07 1.26388E-14
2.74156E-07 1.07427E-14
2.97478E-07 9.19102E-15
3.21752E-07 7.90888E-15
3.46978E-07 6.84254E-15
3.73156E-07 5.95076E-15
4.00286E-07 5.19940E-15
4.28368E-07 4.56244E-15
4.57402E-07 4.02041E-15
4.87388E-07 3.55653E-15
5.18325E-07 3.15714E-15
5.50215E-07 2.81241E-15
5.83057E-07 2.51355E-15
6.16850E-07 2.25294E-15
6.51596E-07 2.02532E-15
6.87293E-07 1.82576E-15
7.23942E-07 1.64999E-15
7.61543E-07 1.49487E-15
1.18991E-06 6.23958E-16
1.71347E-06 3.04471E-16
2.33223E-06 1.65728E-16
3.04617E-06 9.77765E-17
3.85531E-06 6.13597E-17
4.75964E-06 4.04307E-17
5.75916E-06 2.77132E-17
6.85388E-06 1.96259E-17
8.04378E-06 1.42849E-17
9.32888E-06 1.06432E-17
1.07092E-05 8.09135E-18
1.21846E-05 6.26037E-18
1.37553E-05 4.91911E-18
1.54212E-05 3.91851E-18
1.71822E-05 3.15983E-18
1.90385E-05 2.57499E-18
2.09899E-05 2.12136E-18
2.30365E-05 1.76313E-18
2.51783E-05 1.47709E-18
2.74153E-05 1.24651E-18
2.97475E-05 1.05907E-18
3.21749E-05 9.05570E-19
3.46974E-05 7.78956E-19
3.73152E-05 6.73798E-19
4.00281E-05 5.85865E-19
4.28362E-05 5.11851E-19
4.57395E-05 4.49165E-19
4.87380E-05 3.95771E-19
5.18317E-05 3.50059E-19
5.50205E-05 3.10745E-19
5.83045E-05 2.76792E-19
6.16838E-05 2.47356E-19
6.51582E-05 2.21739E-19
6.87277E-05 1.99363E-19
7.23925E-05 1.79746E-19
7.61524E-05 1.62794E-19
9.21439E-05 1.11355E-19
1.09658E-04 7.87312E-20
1.28695E-04 5.72428E-20
1.49255E-04 4.26144E-20
1.71338E-04 3.23816E-20
1.94942E-04 2.50474E-20
2.20070E-04 1.96799E-20
2.46720E-04 1.56787E-20
2.74892E-04 1.26460E-20
3.04586E-04 1.03139E-20
3.35803E-04 8.49632E-21
3.68542E-04 7.06287E-21
4.02802E-04 5.91997E-21
4.38585E-04 4.99963E-21
4.75889E-04 4.25178E-21
5.14715E-04 3.63897E-21
5.55063E-04 3.13293E-21
5.96931E-04 2.71206E-21
6.40321E-04 2.35970E-21
6.85233E-04 2.06287E-21
7.31665E-04 1.81138E-21
7.79618E-04 1.59715E-21
8.29092E-04 1.41373E-21
8.80086E-04 1.25596E-21
9.32601E-04 1.11963E-21
9.86636E-04 1.00134E-21
1.04219E-03 8.98297E-22
1.09927E-03 8.08182E-22
1.15786E-03 7.29096E-22
1.21797E-03 6.59460E-22
1.27961E-03 5.97950E-22
1.34276E-03 5.43450E-22
1.40743E-03 4.95022E-22
1.47362E-03 4.51871E-22
1.54133E-03 4.13320E-22
1.61056E-03 3.78791E-22
1.68131E-03 3.47792E-22
1.75357E-03 3.19896E-22
1.82735E-03 2.94737E-22
1.90265E-03 2.72000E-22
1.97947E-03 2.51408E-22
2.05780E-03 2.32724E-22
2.13765E-03 2.15739E-22
2.21902E-03 2.00270E-22
2.30190E-03 1.86158E-22
2.38630E-03 1.73262E-22
2.47222E-03 1.61459E-22
2.55965E-03 1.50639E-22
2.64859E-03 1.40705E-22
2.73905E-03 1.31572E-22
2.83103E-03 1.23163E-22
2.92452E-03 1.15410E-22
3.01952E-03 1.08253E-22
3.11604E-03 1.01638E-22
3.21407E-03 9.55168E-23
3.31362E-03 8.98448E-23
3.41468E-03 8.45836E-23
3.51725E-03 7.96979E-23
3.62133E-03 7.51560E-23
3.72692E-03 7.09293E-23
3.83403E-03 6.69920E-23
3.94265E-03 6.33206E-23
4.05278E-03 5.98939E-23
4.16442E-03 5.66926E-23
4.27757E-03 5.36991E-23
4.39223E-03 5.08976E-23
4.50840E-03 4.82735E-23
4.62608E-03 4.58134E-23
4.74527E-03 4.35053E-23
4.86597E-03 4.13381E-23
4.98817E-03 3.93016E-23
5.11188E-03 3.73865E-23
5.23711E-03 3.55842E-23
5.36383E-03 3.38869E-23
5.49207E-03 3.22874E-23
5.62181E-03 3.07790E-23
5.75306E-03 2.93555E-23
5.88581E-03 2.80114E-23
6.02007E-03 2.67414E-23
6.15583E-03 2.55407E-23
6.29310E-03 2.44049E-23
6.43187E-03 2.33297E-23
6.57214E-03 2.23114E-23
6.71392E-03 2.13465E-23
6.85720E-03 2.04315E-23
7.00198E-03 1.95636E-23
7.14827E-03 1.87398E-23
7.29605E-03 1.79575E-23
7.44534E-03 1.72142E-23
7.59612E-03 1.65076E-23
7.97965E-03 1.48883E-23
8.37255E-03 1.34559E-23
8.77480E-03 1.21855E-23
9.18641E-03 1.10557E-23
9.60736E-03 1.00485E-23
1.00376E-02 9.14856E-24
1.04773E-02 8.34257E-24
1.09262E-02 7.61921E-24
1.13844E-02 6.96868E-24
1.18520E-02 6.38252E-24
1.23288E-02 5.85336E-24
1.28150E-02 5.37482E-24
1.33104E-02 4.94132E-24
1.38150E-02 4.54799E-24
1.43290E-02 4.19053E-24
1.48521E-02 3.86521E-24
1.53845E-02 3.56869E-24
1.59262E-02 3.29807E-24
1.64770E-02 3.05075E-24
1.70371E-02 2.82444E-24
1.76063E-02 2.61710E-24
1.81848E-02 2.42692E-24
1.87724E-02 2.25229E-24
1.93692E-02 2.09176E-24
1.99751E-02 1.94404E-24
2.05901E-02 1.80797E-24
2.12143E-02 1.68251E-24
2.18476E-02 1.56673E-24
2.24900E-02 1.45978E-24
2.31415E-02 1.36090E-24
2.38021E-02 1.26942E-24
2.44717E-02 1.18471E-24
2.51504E-02 1.10620E-24
2.58382E-02 1.03339E-24
2.65349E-02 9.65826E-25
2.72407E-02 9.03075E-25
2.79555E-02 8.44760E-25
2.86793E-02 7.90531E-25
2.94120E-02 7.40072E-25
3.01537E-02 6.93093E-25
3.09043E-02 6.49328E-25
3.16639E-02 6.08535E-25
3.24324E-02 5.70492E-25
3.32098E-02 5.34995E-25
3.39961E-02 5.01857E-25
3.47912E-02 4.70907E-25
3.55952E-02 4.41986E-25
3.64081E-02 4.14951E-25
3.72297E-02 3.89667E-25
3.80602E-02 3.66010E-25
3.88995E-02 3.43868E-25
3.97476E-02 3.23135E-25
4.06044E-02 3.03715E-25
4.14700E-02 2.85518E-25
4.23443E-02 2.68461E-25
4.32273E-02 2.52467E-25
4.41190E-02 2.37466E-25
4.50194E-02 2.23392E-25
4.59284E-02 2.10183E-25
4.68461E-02 1.97783E-25
4.87074E-02 1.75203E-25
5.06030E-02 1.55273E-25
5.25328E-02 1.37666E-25
5.44967E-02 1.22099E-25
5.64946E-02 1.08324E-25
5.85262E-02 9.61273E-26
6.05914E-02 8.53207E-26
6.26901E-02 7.57407E-26
6.48222E-02 6.72440E-26
6.69873E-02 5.97048E-26
6.91854E-02 5.30128E-26
7.14163E-02 4.70709E-26
7.36799E-02 4.17938E-26
7.59760E-02 3.71062E-26
7.83043E-02 3.29415E-26
8.06647E-02 2.92410E-26
8.30571E-02 2.59529E-26
8.54812E-02 2.30312E-26
8.79369E-02 2.04352E-26
9.04240E-02 1.81287E-26
9.29422E-02 1.60797E-26
9.54915E-02 1.42598E-26
9.80716E-02 1.26436E-26
1.00682E-01 1.12088E-26
1.03323E-01 9.93531E-27
1.05995E-01 8.80534E-27
1.08696E-01 7.80309E-27
1.11427E-01 6.91443E-27
1.14188E-01 6.12682E-27
1.16978E-01 5.42906E-27
1.19797E-01 4.81118E-27
1.22645E-01 4.26430E-27
1.25522E-01 3.78049E-27
1.28428E-01 3.35270E-27
1.31361E-01 2.97463E-27
1.34323E-01 2.64067E-27
1.37313E-01 2.34583E-27
1.40330E-01 2.08566E-27
1.43375E-01 1.85620E-27
1.46447E-01 1.65391E-27
1.49545E-01 1.47566E-27
1.52671E-01 1.31865E-27
1.55823E-01 1.18039E-27
1.59001E-01 1.05869E-27
1.62205E-01 9.51566E-28
1.65435E-01 8.57291E-28
1.68690E-01 7.74318E-28
1.71970E-01 7.01277E-28
1.75276E-01 6.36957E-28
1.78606E-01 5.80285E-28
1.81961E-01 5.30312E-28
1.85340E-01 4.86203E-28
1.88743E-01 4.47218E-28
1.92169E-01 4.12708E-28
1.95619E-01 3.82101E-28
1.99092E-01 3.54893E-28
2.02589E-01 3.30643E-28
2.06107E-01 3.08966E-28
2.09649E-01 2.89523E-28
2.13212E-01 2.72020E-28
2.16797E-01 2.56199E-28
2.20404E-01 2.41838E-28
2.24032E-01 2.28741E-28
2.27680E-01 2.16741E-28
2.31350E-01 2.05694E-28
2.35040E-01 1.95474E-28
2.38751E-01 1.85973E-28
2.42481E-01 1.77100E-28
2.46231E-01 1.68775E-28
2.50000E-01 1.60933E-28
2.53788E-01 1.53515E-28
2.57595E-01 1.46475E-28
2.61421E-01 1.39770E-28
2.65264E-01 1.33368E-28
2.69126E-01 1.27240E-28
2.73005E-01 1.21361E-28
2.76901E-01 1.15713E-28
2.80814E-01 1.10278E-28
2.84744E-01 1.05043E-28
2.88691E-01 9.99981E-29
2.92653E-01 9.51326E-29
2.96632E-01 9.04396E-29
3.00625E-01 8.59128E-29
3.04634E-01 8.15470E-29
3.08658E-01 7.73379E-29
3.12697E-01 7.32818E-29
3.16749E-01 6.93755E-29
3.20816E-01 6.56160E-29
3.24896E-01 6.20009E-29
3.28990E-01 5.85276E-29
3.33097E-01 5.51937E-29
3.37216E-01 5.19968E-29
3.41348E-01 4.89346E-29
3.45492E-01 4.60047E-29
3.49647E-01 4.32045E-29
3.53814E-01 4.05314E-29
3.57992E-01 3.79826E-29
3.62181E-01 3.55555E-29
3.66381E-01 3.32469E-29
3.70590E-01 3.10539E-29
3.74810E-01 2.89734E-29
3.79039E-01 2.70020E-29
3.83277E-01 2.51366E-29
3.87524E-01 2.33736E-29
3.91780E-01 2.17097E-29
3.96044E-01 2.01414E-29
4.00316E-01 1.86652E-29
4.04596E-01 1.72775E-29
4.08882E-01 1.59747E-29
4.13176E-01 1.47535E-29
4.17476E-01 1.36102E-29
4.21783E-01 1.25413E-29
4.26095E-01 1.15435E-29
4.30413E-01 1.06133E-29
4.34737E-01 9.74743E-30
4.39065E-01 8.94257E-30
4.43398E-01 8.19553E-30
4.47736E-01 7.50321E-30
4.52077E-01 6.86258E-30
4.56422E-01 6.27068E-30
4.60770E-01 5.72468E-30
4.65122E-01 5.22182E-30
4.69476E-01 4.75944E-30
4.73832E-01 4.33501E-30
4.78190E-01 3.94606E-30
4.82550E-01 3.59025E-30
4.86912E-01 3.26534E-30
4.91274E-01 2.96919E-30
4.95637E-01 2.69975E-30
5.00000E-01 2.45508E-30
5.04363E-01 2.23336E-30
5.08726E-01 2.03283E-30
5.13088E-01 1.85185E-30
5.17450E-01 1.68886E-30
5.21810E-01 1.54241E-30
5.26168E-01 1.41111E-30
5.30524E-01 1.29367E-30
5.34878E-01 1.18889E-30
5.39230E-01 1.09563E-30
5.43578E-01 1.01284E-30
5.47923E-01 9.39530E-31
5.52264E-01 8.74795E-31
5.56602E-01 8.17785E-31
5.60935E-01 7.67715E-31
5.65263E-01 7.23860E-31
5.69587E-01 6.85553E-31
5.73905E-01 6.52178E-31
5.78217E-01 6.23171E-31
5.82524E-01 5.98017E-31
5.86824E-01 5.76244E-31
5.91118E-01 5.57422E-31
5.95404E-01 5.41161E-31
5.99684E-01 5.27107E-31
6.03956E-01 5.14942E-31
6.08220E-01 5.04378E-31
6.12476E-01 4.95158E-31
6.16723E-01 4.87052E-31
6.20961E-01 4.79855E-31
6.25190E-01 4.73386E-31
6.29410E-01 4.67486E-31
6.33619E-01 4.62014E-31
6.37819E-01 4.56848E-31
6.42008E-01 4.51885E-31
6.46186E-01 4.47032E-31
6.50353E-01 4.42215E-31
6.54508E-01 4.37369E-31
6.58652E-01 4.32441E-31
6.62784E-01 4.27388E-31
6.66903E-01 4.22177E-31
6.71010E-01 4.16781E-31
6.75104E-01 4.11183E-31
6.79184E-01 4.05369E-31
6.83251E-01 3.99332E-31
6.87303E-01 3.93070E-31
6.91342E-01 3.86586E-31
6.95366E-01 3.79884E-31
6.99375E-01 3.72973E-31
7.03368E-01 3.65864E-31
7.07347E-01 3.58570E-31
7.11309E-01 3.51106E-31
7.15256E-01 3.43488E-31
7.19186E-01 3.35732E-31
7.23099E-01 3.27857E-31
7.26995E-01 3.19881E-31
7.30874E-01 3.11821E-31
7.34736E-01 3.03696E-31
7.38579E-01 2.95525E-31
7.42405E-01 2.87324E-31
7.46212E-01 2.79113E-31
7.50000E-01 2.70906E-31
7.53769E-01 2.62721E-31
7.57519E-01 2.54574E-31
7.61249E-01 2.46478E-31
7.64960E-01 2.38448E-31
7.68650E-01 2.30496E-31
7.72320E-01 2.22636E-31
7.75968E-01 2.14878E-31
7.79596E-01 2.07233E-31
7.83203E-01 1.99710E-31
7.86788E-01 1.92318E-31
7.90351E-01 1.85066E-31
7.93893E-01 1.77958E-31
7.97411E-01 1.71003E-31
8.00908E-01 1.64205E-31
8.04381E-01 1.57570E-31
8.07831E-01 1.51099E-31
8.11257E-01 1.44798E-31
8.14660E-01 1.38668E-31
8.18039E-01 1.32711E-31
8.21394E-01 1.26929E-31
8.24724E-01 1.21322E-31
8.28030E-01 1.15890E-31
8.31310E-01 1.10633E-31
8.34565E-01 1.05551E-31
8.37795E-01 1.00641E-31
8.40999E-01 9.59037E-32
8.44177E-01 9.13354E-32
8.47329E-01 8.69346E-32
8.50455E-01 8.26987E-32
8.53553E-01 7.86248E-32
8.56625E-01 7.47101E-32
8.59670E-01 7.09513E-32
8.62687E-01 6.73449E-32
8.65677E-01 6.38876E-32
8.68639E-01 6.05756E-32
8.71572E-01 5.74052E-32
8.74478E-01 5.43725E-32
8.77355E-01 5.14736E-32
8.80203E-01 4.87046E-32
8.83022E-01 4.60614E-32
8.85812E-01 4.35400E-32
8.88573E-01 4.11364E-32
8.91304E-01 3.88466E-32
8.94005E-01 3.66666E-32
8.96677E-01 3.45925E-32
8.99318E-01 3.26202E-32
9.01928E-01 3.07460E-32
9.04508E-01 2.89660E-32
9.07058E-01 2.72765E-32
9.09576E-01 2.56739E-32
9.12063E-01 2.41544E-32
9.14519E-01 2.27146E-32
9.16943E-01 2.13511E-32
9.19335E-01 2.00605E-32
9.21696E-01 1.88396E-32
9.24024E-01 1.76852E-32
9.26320E-01 1.65942E-32
9.28584E-01 1.55636E-32
9.30815E-01 1.45907E-32
9.33013E-01 1.36725E-32
9.35178E-01 1.28065E-32
9.37310E-01 1.19900E-32
9.39409E-01 1.12206E-32
9.41474E-01 1.04958E-32
9.43505E-01 9.81343E-33
9.45503E-01 9.17118E-33
9.47467E-01 8.56696E-33
9.49397E-01 7.99876E-33
9.51293E-01 7.46462E-33
9.53154E-01 6.96271E-33
9.54981E-01 6.49125E-33
9.56773E-01 6.04854E-33
9.58530E-01 5.63298E-33
9.60252E-01 5.24304E-33
9.61940E-01 4.87726E-33
9.63592E-01 4.53424E-33
9.65209E-01 4.21268E-33
9.66790E-01 3.91132E-33
9.68336E-01 3.62897E-33
9.69846E-01 3.36452E-33
9.71321E-01 3.11689E-33
9.72759E-01 2.88509E-33
9.74162E-01 2.66816E-33
9.75528E-01 2.46520E-33
9.76858E-01 2.27537E-33
9.78152E-01 2.09787E-33
9.79410E-01 1.93195E-33
9.80631E-01 1.77689E-33
9.81815E-01 1.63204E-33
9.82963E-01 1.49678E-33
9.84074E-01 1.37050E-33
9.85148E-01 1.25267E-33
9.86185E-01 1.14276E-33
9.87185E-01 1.04031E-33
9.88148E-01 9.44850E-34
9.89074E-01 8.55968E-34
9.89962E-01 7.73268E-34
9.90814E-01 6.96388E-34
9.91627E-01 6.24985E-34
9.92404E-01 5.58745E-34
9.93143E-01 4.97374E-34
9.93844E-01 4.40602E-34
9.94508E-01 3.88176E-34
9.95134E-01 3.39866E-34
9.95722E-01 2.95460E-34
9.96273E-01 2.54762E-34
9.96786E-01 2.17592E-34
9.97261E-01 1.83790E-34
9.97698E-01 1.53205E-34
9.98097E-01 1.25706E-34
9.98459E-01 1.01171E-34
9.98782E-01 7.94962E-35
9.99067E-01 6.05860E-35
9.99315E-01 4.43584E-35
9.99524E-01 3.07443E-35
9.99695E-01 1.96838E-35
9.99829E-01 1.11306E-35
9.99924E-01 5.04724E-36
9.99981E-01 1.40748E-36
1.00000E+00 1.96653E-37
