 #
 # Subroutine ELSEPA. Elastic scattering of electrons and positrons
 #                    by neutral atoms and positive ions
 #
 # Projectile: electron
 # Kinetic energy = 8.00000E+07 eV = 2.93995E+06 a.u.
 #
 # WARNING: High-energy factorization with free-atom DF screening.
 #          Absorption, polarization and exchange corrections are
 #          switched off.
 #          Phase shifts are calculated for the bare nucleus.
 #          Scattering amplitudes are not evaluated.
 #
 # Element: Gd,  Z =  64,  atomic weight = 1.57250E+02 g/mol
 #
 # Nuclear model: Fermi distribution
 #                Average radius = 5.77538E-13 cm
 #                Skin thickness = 5.46000E-14 cm
 #
 # Number of electrons = 64
 #
 # Total elastic cross section = 7.39997E-18 cm**2 = 2.64258E-01 a0**2
 # 1st transport cross section = 1.22864E-24 cm**2 = 4.38756E-08 a0**2
 # 2nd transport cross section = 3.64418E-24 cm**2 = 1.30136E-07 a0**2
 #
 #
 # Differential cross section:                       MU=(1-COS(THETA))/2
 #
 #  THETA        MU          DCS          DCS        Sherman      error
 #  (deg)                 (cm**2/sr)   (a0**2/sr)    function
 #----------------------------------------------------------------------
0.00000E+00 5.57044E-10
7.61557E-13 5.55494E-10
1.18994E-12 5.54627E-10
1.71346E-12 5.53571E-10
2.33225E-12 5.52327E-10
3.04617E-12 5.50898E-10
3.85530E-12 5.49285E-10
4.75964E-12 5.47493E-10
5.75917E-12 5.45522E-10
6.85391E-12 5.43378E-10
8.04379E-12 5.41062E-10
9.32893E-12 5.38580E-10
1.07092E-11 5.35935E-10
1.21847E-11 5.33132E-10
1.37554E-11 5.30173E-10
1.54213E-11 5.27066E-10
1.71823E-11 5.23813E-10
1.90386E-11 5.20420E-10
2.09900E-11 5.16893E-10
2.30367E-11 5.13236E-10
2.51785E-11 5.09454E-10
2.74156E-11 5.05554E-10
2.97478E-11 5.01541E-10
3.21752E-11 4.97419E-10
3.46979E-11 4.93196E-10
3.73157E-11 4.88889E-10
4.00286E-11 4.84492E-10
4.28368E-11 4.80005E-10
4.57402E-11 4.75432E-10
4.87388E-11 4.70780E-10
5.18325E-11 4.66054E-10
5.50215E-11 4.61258E-10
5.83057E-11 4.56444E-10
6.16850E-11 4.51574E-10
6.51595E-11 4.46651E-10
6.87293E-11 4.41680E-10
7.23943E-11 4.36665E-10
7.61544E-11 4.31612E-10
1.18991E-10 3.80648E-10
1.71347E-10 3.31199E-10
2.33223E-10 2.86003E-10
3.04617E-10 2.46291E-10
3.85531E-10 2.12318E-10
4.75965E-10 1.83737E-10
5.75917E-10 1.59845E-10
6.85389E-10 1.39938E-10
8.04380E-10 1.23276E-10
9.32891E-10 1.09262E-10
1.07092E-09 9.73851E-11
1.21847E-09 8.72167E-11
1.37554E-09 7.84614E-11
1.54213E-09 7.08331E-11
1.71823E-09 6.41645E-11
1.90386E-09 5.82739E-11
2.09900E-09 5.30586E-11
2.30367E-09 4.84077E-11
2.51785E-09 4.42498E-11
2.74156E-09 4.05188E-11
2.97478E-09 3.71594E-11
3.21752E-09 3.41331E-11
3.46978E-09 3.13938E-11
3.73156E-09 2.87697E-11
4.00286E-09 2.64073E-11
4.28368E-09 2.43309E-11
4.57402E-09 2.24990E-11
4.87388E-09 2.08767E-11
5.18326E-09 1.94350E-11
5.50215E-09 1.81494E-11
5.83057E-09 1.68118E-11
6.16850E-09 1.56032E-11
6.51596E-09 1.45216E-11
6.87293E-09 1.35509E-11
7.23942E-09 1.26773E-11
7.61544E-09 1.18888E-11
1.18991E-08 6.43360E-12
1.71347E-08 3.78218E-12
2.33223E-08 2.34757E-12
3.04617E-08 1.52126E-12
3.85531E-08 1.02375E-12
4.75965E-08 7.12828E-13
5.75917E-08 5.12568E-13
6.85389E-08 3.78970E-13
8.04380E-08 2.87239E-13
9.32891E-08 2.22197E-13
1.07092E-07 1.74846E-13
1.21847E-07 1.39616E-13
1.37554E-07 1.12964E-13
1.54213E-07 9.23476E-14
1.71823E-07 7.62111E-14
1.90386E-07 6.33947E-14
2.09900E-07 5.31392E-14
2.30367E-07 4.48555E-14
2.51785E-07 3.81148E-14
2.74156E-07 3.25856E-14
2.97478E-07 2.80149E-14
3.21752E-07 2.42130E-14
3.46978E-07 2.10297E-14
3.73156E-07 1.83422E-14
4.00286E-07 1.60777E-14
4.28368E-07 1.41630E-14
4.57402E-07 1.25111E-14
4.87388E-07 1.11001E-14
5.18325E-07 9.88451E-15
5.50215E-07 8.82663E-15
5.83057E-07 7.91050E-15
6.16850E-07 7.10937E-15
6.51596E-07 6.40686E-15
6.87293E-07 5.79141E-15
7.23942E-07 5.24605E-15
7.61543E-07 4.76431E-15
1.18991E-06 2.03126E-15
1.71347E-06 1.00663E-15
2.33223E-06 5.53582E-16
3.04617E-06 3.28841E-16
3.85531E-06 2.07318E-16
4.75964E-06 1.37047E-16
5.75916E-06 9.41735E-17
6.85388E-06 6.68294E-17
8.04378E-06 4.87292E-17
9.32888E-06 3.63653E-17
1.07092E-05 2.76876E-17
1.21846E-05 2.14518E-17
1.37553E-05 1.68778E-17
1.54212E-05 1.34610E-17
1.71822E-05 1.08670E-17
1.90385E-05 8.86495E-18
2.09899E-05 7.31039E-18
2.30365E-05 6.08142E-18
2.51783E-05 5.09908E-18
2.74153E-05 4.30642E-18
2.97475E-05 3.66150E-18
3.21749E-05 3.13288E-18
3.46974E-05 2.69651E-18
3.73152E-05 2.33380E-18
4.00281E-05 2.03029E-18
4.28362E-05 1.77467E-18
4.57395E-05 1.55802E-18
4.87380E-05 1.37339E-18
5.18317E-05 1.21523E-18
5.50205E-05 1.07914E-18
5.83045E-05 9.61551E-19
6.16838E-05 8.59561E-19
6.51582E-05 7.70763E-19
6.87277E-05 6.93172E-19
7.23925E-05 6.25123E-19
7.61524E-05 5.65554E-19
9.21439E-05 3.87062E-19
1.09658E-04 2.73760E-19
1.28695E-04 1.99084E-19
1.49255E-04 1.48225E-19
1.71338E-04 1.12637E-19
1.94942E-04 8.71240E-20
2.20070E-04 6.84504E-20
2.46720E-04 5.45287E-20
2.74892E-04 4.39771E-20
3.04586E-04 3.58629E-20
3.35803E-04 2.95394E-20
3.68542E-04 2.45528E-20
4.02802E-04 2.05773E-20
4.38585E-04 1.73764E-20
4.75889E-04 1.47758E-20
5.14715E-04 1.26451E-20
5.55063E-04 1.08858E-20
5.96931E-04 9.42297E-21
6.40321E-04 8.19841E-21
6.85233E-04 7.16703E-21
7.31665E-04 6.29330E-21
7.79618E-04 5.54915E-21
8.29092E-04 4.91216E-21
8.80086E-04 4.36428E-21
9.32601E-04 3.89096E-21
9.86636E-04 3.48031E-21
1.04219E-03 3.12263E-21
1.09927E-03 2.80990E-21
1.15786E-03 2.53550E-21
1.21797E-03 2.29391E-21
1.27961E-03 2.08054E-21
1.34276E-03 1.89150E-21
1.40743E-03 1.72355E-21
1.47362E-03 1.57389E-21
1.54133E-03 1.44020E-21
1.61056E-03 1.32047E-21
1.68131E-03 1.21297E-21
1.75357E-03 1.11624E-21
1.82735E-03 1.02901E-21
1.90265E-03 9.50163E-22
1.97947E-03 8.78761E-22
2.05780E-03 8.13970E-22
2.13765E-03 7.55067E-22
2.21902E-03 7.01420E-22
2.30190E-03 6.52474E-22
2.38630E-03 6.07742E-22
2.47222E-03 5.66794E-22
2.55965E-03 5.29253E-22
2.64859E-03 4.94782E-22
2.73905E-03 4.63083E-22
2.83103E-03 4.33894E-22
2.92452E-03 4.06978E-22
3.01952E-03 3.82125E-22
3.11604E-03 3.59149E-22
3.21407E-03 3.37881E-22
3.31362E-03 3.18170E-22
3.41468E-03 2.99881E-22
3.51725E-03 2.82893E-22
3.62133E-03 2.67095E-22
3.72692E-03 2.52389E-22
3.83403E-03 2.38682E-22
3.94265E-03 2.25897E-22
4.05278E-03 2.13958E-22
4.16442E-03 2.02800E-22
4.27757E-03 1.92363E-22
4.39223E-03 1.82590E-22
4.50840E-03 1.73431E-22
4.62608E-03 1.64841E-22
4.74527E-03 1.56778E-22
4.86597E-03 1.49202E-22
4.98817E-03 1.42080E-22
5.11188E-03 1.35378E-22
5.23711E-03 1.29067E-22
5.36383E-03 1.23121E-22
5.49207E-03 1.17513E-22
5.62181E-03 1.12222E-22
5.75306E-03 1.07225E-22
5.88581E-03 1.02503E-22
6.02007E-03 9.80388E-23
6.15583E-03 9.38148E-23
6.29310E-03 8.98159E-23
6.43187E-03 8.60278E-23
6.57214E-03 8.24372E-23
6.71392E-03 7.90319E-23
6.85720E-03 7.58004E-23
7.00198E-03 7.27322E-23
7.14827E-03 6.98175E-23
7.29605E-03 6.70470E-23
7.44534E-03 6.44124E-23
7.59612E-03 6.19056E-23
7.97965E-03 5.61507E-23
8.37255E-03 5.10473E-23
8.77480E-03 4.65086E-23
9.18641E-03 4.24611E-23
9.60736E-03 3.88423E-23
1.00376E-02 3.55986E-23
1.04773E-02 3.26842E-23
1.09262E-02 3.00599E-23
1.13844E-02 2.76915E-23
1.18520E-02 2.55497E-23
1.23288E-02 2.36089E-23
1.28150E-02 2.18469E-23
1.33104E-02 2.02442E-23
1.38150E-02 1.87840E-23
1.43290E-02 1.74512E-23
1.48521E-02 1.62327E-23
1.53845E-02 1.51171E-23
1.59262E-02 1.40940E-23
1.64770E-02 1.31544E-23
1.70371E-02 1.22903E-23
1.76063E-02 1.14946E-23
1.81848E-02 1.07608E-23
1.87724E-02 1.00834E-23
1.93692E-02 9.45708E-24
1.99751E-02 8.87746E-24
2.05901E-02 8.34039E-24
2.12143E-02 7.84221E-24
2.18476E-02 7.37961E-24
2.24900E-02 6.94959E-24
2.31415E-02 6.54945E-24
2.38021E-02 6.17677E-24
2.44717E-02 5.82932E-24
2.51504E-02 5.50510E-24
2.58382E-02 5.20229E-24
2.65349E-02 4.91923E-24
2.72407E-02 4.65441E-24
2.79555E-02 4.40645E-24
2.86793E-02 4.17409E-24
2.94120E-02 3.95619E-24
3.01537E-02 3.75169E-24
3.09043E-02 3.55963E-24
3.16639E-02 3.37913E-24
3.24324E-02 3.20936E-24
3.32098E-02 3.04960E-24
3.39961E-02 2.89914E-24
3.47912E-02 2.75736E-24
3.55952E-02 2.62367E-24
3.64081E-02 2.49754E-24
3.72297E-02 2.37846E-24
3.80602E-02 2.26599E-24
3.88995E-02 2.15969E-24
3.97476E-02 2.05917E-24
4.06044E-02 1.96407E-24
4.14700E-02 1.87404E-24
4.23443E-02 1.78878E-24
4.32273E-02 1.70799E-24
4.41190E-02 1.63140E-24
4.50194E-02 1.55876E-24
4.59284E-02 1.48983E-24
4.68461E-02 1.42439E-24
4.87074E-02 1.30320E-24
5.06030E-02 1.19370E-24
5.25328E-02 1.09461E-24
5.44967E-02 1.00480E-24
5.64946E-02 9.23278E-25
5.85262E-02 8.49181E-25
6.05914E-02 7.81740E-25
6.26901E-02 7.20277E-25
6.48222E-02 6.64194E-25
6.69873E-02 6.12960E-25
6.91854E-02 5.66102E-25
7.14163E-02 5.23201E-25
7.36799E-02 4.83881E-25
7.59760E-02 4.47808E-25
7.83043E-02 4.14682E-25
8.06647E-02 3.84235E-25
8.30571E-02 3.56225E-25
8.54812E-02 3.30435E-25
8.79369E-02 3.06671E-25
9.04240E-02 2.84756E-25
9.29422E-02 2.64532E-25
9.54915E-02 2.45855E-25
9.80716E-02 2.28594E-25
1.00682E-01 2.12631E-25
1.03323E-01 1.97861E-25
1.05995E-01 1.84185E-25
1.08696E-01 1.71515E-25
1.11427E-01 1.59770E-25
1.14188E-01 1.48878E-25
1.16978E-01 1.38770E-25
1.19797E-01 1.29387E-25
1.22645E-01 1.20671E-25
1.25522E-01 1.12572E-25
1.28428E-01 1.05043E-25
1.31361E-01 9.80406E-26
1.34323E-01 9.15257E-26
1.37313E-01 8.54619E-26
1.40330E-01 7.98159E-26
1.43375E-01 7.45572E-26
1.46447E-01 6.96576E-26
1.49545E-01 6.50910E-26
1.52671E-01 6.08336E-26
1.55823E-01 5.68632E-26
1.59001E-01 5.31595E-26
1.62205E-01 4.97037E-26
1.65435E-01 4.64783E-26
1.68690E-01 4.34674E-26
1.71970E-01 4.06559E-26
1.75276E-01 3.80302E-26
1.78606E-01 3.55774E-26
1.81961E-01 3.32857E-26
1.85340E-01 3.11442E-26
1.88743E-01 2.91427E-26
1.92169E-01 2.72716E-26
1.95619E-01 2.55224E-26
1.99092E-01 2.38866E-26
2.02589E-01 2.23570E-26
2.06107E-01 2.09262E-26
2.09649E-01 1.95879E-26
2.13212E-01 1.83359E-26
2.16797E-01 1.71645E-26
2.20404E-01 1.60684E-26
2.24032E-01 1.50428E-26
2.27680E-01 1.40829E-26
2.31350E-01 1.31846E-26
2.35040E-01 1.23438E-26
2.38751E-01 1.15568E-26
2.42481E-01 1.08202E-26
2.46231E-01 1.01306E-26
2.50000E-01 9.48509E-27
2.53788E-01 8.88078E-27
2.57595E-01 8.31506E-27
2.61421E-01 7.78544E-27
2.65264E-01 7.28961E-27
2.69126E-01 6.82542E-27
2.73005E-01 6.39086E-27
2.76901E-01 5.98402E-27
2.80814E-01 5.60315E-27
2.84744E-01 5.24659E-27
2.88691E-01 4.91281E-27
2.92653E-01 4.60034E-27
2.96632E-01 4.30785E-27
3.00625E-01 4.03405E-27
3.04634E-01 3.77777E-27
3.08658E-01 3.53790E-27
3.12697E-01 3.31339E-27
3.16749E-01 3.10327E-27
3.20816E-01 2.90662E-27
3.24896E-01 2.72260E-27
3.28990E-01 2.55040E-27
3.33097E-01 2.38927E-27
3.37216E-01 2.23850E-27
3.41348E-01 2.09745E-27
3.45492E-01 1.96549E-27
3.49647E-01 1.84204E-27
3.53814E-01 1.72656E-27
3.57992E-01 1.61855E-27
3.62181E-01 1.51752E-27
3.66381E-01 1.42303E-27
3.70590E-01 1.33467E-27
3.74810E-01 1.25204E-27
3.79039E-01 1.17477E-27
3.83277E-01 1.10252E-27
3.87524E-01 1.03497E-27
3.91780E-01 9.71815E-28
3.96044E-01 9.12771E-28
4.00316E-01 8.57574E-28
4.04596E-01 8.05974E-28
4.08882E-01 7.57740E-28
4.13176E-01 7.12652E-28
4.17476E-01 6.70506E-28
4.21783E-01 6.31111E-28
4.26095E-01 5.94287E-28
4.30413E-01 5.59866E-28
4.34737E-01 5.27691E-28
4.39065E-01 4.97615E-28
4.43398E-01 4.69500E-28
4.47736E-01 4.43215E-28
4.52077E-01 4.18642E-28
4.56422E-01 3.95666E-28
4.60770E-01 3.74181E-28
4.65122E-01 3.54089E-28
4.69476E-01 3.35297E-28
4.73832E-01 3.17717E-28
4.78190E-01 3.01270E-28
4.82550E-01 2.85879E-28
4.86912E-01 2.71473E-28
4.91274E-01 2.57987E-28
4.95637E-01 2.45357E-28
5.00000E-01 2.33527E-28
5.04363E-01 2.22442E-28
5.08726E-01 2.12051E-28
5.13088E-01 2.02308E-28
5.17450E-01 1.93168E-28
5.21810E-01 1.84591E-28
5.26168E-01 1.76538E-28
5.30524E-01 1.68972E-28
5.34878E-01 1.61862E-28
5.39230E-01 1.55175E-28
5.43578E-01 1.48883E-28
5.47923E-01 1.42959E-28
5.52264E-01 1.37376E-28
5.56602E-01 1.32113E-28
5.60935E-01 1.27146E-28
5.65263E-01 1.22456E-28
5.69587E-01 1.18023E-28
5.73905E-01 1.13831E-28
5.78217E-01 1.09861E-28
5.82524E-01 1.06100E-28
5.86824E-01 1.02533E-28
5.91118E-01 9.91466E-29
5.95404E-01 9.59286E-29
5.99684E-01 9.28676E-29
6.03956E-01 8.99530E-29
6.08220E-01 8.71750E-29
6.12476E-01 8.45245E-29
6.16723E-01 8.19929E-29
6.20961E-01 7.95725E-29
6.25190E-01 7.72558E-29
6.29410E-01 7.50362E-29
6.33619E-01 7.29074E-29
6.37819E-01 7.08635E-29
6.42008E-01 6.88992E-29
6.46186E-01 6.70095E-29
6.50353E-01 6.51897E-29
6.54508E-01 6.34356E-29
6.58652E-01 6.17433E-29
6.62784E-01 6.01090E-29
6.66903E-01 5.85294E-29
6.71010E-01 5.70013E-29
6.75104E-01 5.55219E-29
6.79184E-01 5.40885E-29
6.83251E-01 5.26985E-29
6.87303E-01 5.13496E-29
6.91342E-01 5.00399E-29
6.95366E-01 4.87672E-29
6.99375E-01 4.75298E-29
7.03368E-01 4.63260E-29
7.07347E-01 4.51543E-29
7.11309E-01 4.40131E-29
7.15256E-01 4.29012E-29
7.19186E-01 4.18174E-29
7.23099E-01 4.07604E-29
7.26995E-01 3.97293E-29
7.30874E-01 3.87230E-29
7.34736E-01 3.77407E-29
7.38579E-01 3.67814E-29
7.42405E-01 3.58444E-29
7.46212E-01 3.49290E-29
7.50000E-01 3.40344E-29
7.53769E-01 3.31601E-29
7.57519E-01 3.23054E-29
7.61249E-01 3.14698E-29
7.64960E-01 3.06527E-29
7.68650E-01 2.98537E-29
7.72320E-01 2.90723E-29
7.75968E-01 2.83080E-29
7.79596E-01 2.75604E-29
7.83203E-01 2.68291E-29
7.86788E-01 2.61139E-29
7.90351E-01 2.54142E-29
7.93893E-01 2.47298E-29
7.97411E-01 2.40604E-29
8.00908E-01 2.34055E-29
8.04381E-01 2.27651E-29
8.07831E-01 2.21387E-29
8.11257E-01 2.15260E-29
8.14660E-01 2.09269E-29
8.18039E-01 2.03411E-29
8.21394E-01 1.97682E-29
8.24724E-01 1.92081E-29
8.28030E-01 1.86606E-29
8.31310E-01 1.81253E-29
8.34565E-01 1.76022E-29
8.37795E-01 1.70908E-29
8.40999E-01 1.65912E-29
8.44177E-01 1.61029E-29
8.47329E-01 1.56259E-29
8.50455E-01 1.51599E-29
8.53553E-01 1.47047E-29
8.56625E-01 1.42602E-29
8.59670E-01 1.38260E-29
8.62687E-01 1.34021E-29
8.65677E-01 1.29883E-29
8.68639E-01 1.25844E-29
8.71572E-01 1.21901E-29
8.74478E-01 1.18053E-29
8.77355E-01 1.14298E-29
8.80203E-01 1.10635E-29
8.83022E-01 1.07062E-29
8.85812E-01 1.03577E-29
8.88573E-01 1.00178E-29
8.91304E-01 9.68642E-30
8.94005E-01 9.36331E-30
8.96677E-01 9.04835E-30
8.99318E-01 8.74137E-30
9.01928E-01 8.44222E-30
9.04508E-01 8.15074E-30
9.07058E-01 7.86677E-30
9.09576E-01 7.59017E-30
9.12063E-01 7.32078E-30
9.14519E-01 7.05846E-30
9.16943E-01 6.80306E-30
9.19335E-01 6.55445E-30
9.21696E-01 6.31247E-30
9.24024E-01 6.07700E-30
9.26320E-01 5.84790E-30
9.28584E-01 5.62503E-30
9.30815E-01 5.40826E-30
9.33013E-01 5.19747E-30
9.35178E-01 4.99253E-30
9.37310E-01 4.79331E-30
9.39409E-01 4.59969E-30
9.41474E-01 4.41156E-30
9.43505E-01 4.22880E-30
9.45503E-01 4.05129E-30
9.47467E-01 3.87892E-30
9.49397E-01 3.71158E-30
9.51293E-01 3.54916E-30
9.53154E-01 3.39156E-30
9.54981E-01 3.23868E-30
9.56773E-01 3.09042E-30
9.58530E-01 2.94667E-30
9.60252E-01 2.80735E-30
9.61940E-01 2.67235E-30
9.63592E-01 2.54160E-30
9.65209E-01 2.41500E-30
9.66790E-01 2.29246E-30
9.68336E-01 2.17390E-30
9.69846E-01 2.05925E-30
9.71321E-01 1.94841E-30
9.72759E-01 1.84132E-30
9.74162E-01 1.73790E-30
9.75528E-01 1.63807E-30
9.76858E-01 1.54177E-30
9.78152E-01 1.44893E-30
9.79410E-01 1.35948E-30
9.80631E-01 1.27335E-30
9.81815E-01 1.19050E-30
9.82963E-01 1.11085E-30
9.84074E-01 1.03436E-30
9.85148E-01 9.60959E-31
9.86185E-01 8.90601E-31
9.87185E-01 8.23235E-31
9.88148E-01 7.58811E-31
9.89074E-01 6.97281E-31
9.89962E-01 6.38602E-31
9.90814E-01 5.82730E-31
9.91627E-01 5.29625E-31
9.92404E-01 4.79246E-31
9.93143E-01 4.31557E-31
9.93844E-01 3.86523E-31
9.94508E-01 3.44110E-31
9.95134E-01 3.04287E-31
9.95722E-01 2.67024E-31
9.96273E-01 2.32293E-31
9.96786E-01 2.00070E-31
9.97261E-01 1.70329E-31
9.97698E-01 1.43048E-31
9.98097E-01 1.18208E-31
9.98459E-01 9.57887E-32
9.98782E-01 7.57745E-32
9.99067E-01 5.81501E-32
9.99315E-01 4.29023E-32
9.99524E-01 3.00196E-32
9.99695E-01 1.94924E-32
9.99829E-01 1.13127E-32
9.99924E-01 5.47448E-33
9.99981E-01 1.97331E-33
1.00000E+00 8.06462E-34
