 #
 # Subroutine ELSEPA. Elastic scattering of electrons and positrons
 #                    by neutral atoms and positive ions
 #
 # Projectile: electron
 # Kinetic energy = 2.00000E+08 eV = 7.34987E+06 a.u.
 #
 # WARNING: High-energy factorization with free-atom DF screening.
 #          Absorption, polarization and exchange corrections are
 #          switched off.
 #          Phase shifts are calculated for the bare nucleus.
 #          Scattering amplitudes are not evaluated.
 #
 # Element: Gd,  Z =  64,  atomic weight = 1.57250E+02 g/mol
 #
 # Nuclear model: Fermi distribution
 #                Average radius = 5.77538E-13 cm
 #                Skin thickness = 5.46000E-14 cm
 #
 # Number of electrons = 64
 #
 # Total elastic cross section = 7.40118E-18 cm**2 = 2.64301E-01 a0**2
 # 1st transport cross section = 1.97165E-25 cm**2 = 7.04089E-09 a0**2
 # 2nd transport cross section = 5.90176E-25 cm**2 = 2.10756E-08 a0**2
 #
 #
 # Differential cross section:                       MU=(1-COS(THETA))/2
 #
 #  THETA        MU          DCS          DCS        Sherman      error
 #  (deg)                 (cm**2/sr)   (a0**2/sr)    function
 #----------------------------------------------------------------------
0.00000E+00 3.45506E-09
7.61557E-13 3.39625E-09
1.18994E-12 3.36392E-09
1.71346E-12 3.32509E-09
2.33225E-12 3.28014E-09
3.04617E-12 3.22952E-09
3.85530E-12 3.17370E-09
4.75964E-12 3.11318E-09
5.75917E-12 3.04852E-09
6.85391E-12 2.98041E-09
8.04379E-12 2.90901E-09
9.32893E-12 2.83506E-09
1.07092E-11 2.75934E-09
1.21847E-11 2.68183E-09
1.37554E-11 2.60352E-09
1.54213E-11 2.52472E-09
1.71823E-11 2.44542E-09
1.90386E-11 2.36691E-09
2.09900E-11 2.28879E-09
2.30367E-11 2.21130E-09
2.51785E-11 2.13565E-09
2.74156E-11 2.06101E-09
2.97478E-11 1.98803E-09
3.21752E-11 1.91719E-09
3.46979E-11 1.84785E-09
3.73157E-11 1.78091E-09
4.00286E-11 1.71610E-09
4.28368E-11 1.65306E-09
4.57402E-11 1.59285E-09
4.87388E-11 1.53458E-09
5.18325E-11 1.47833E-09
5.50215E-11 1.42476E-09
5.83057E-11 1.37302E-09
6.16850E-11 1.32347E-09
6.51595E-11 1.27618E-09
6.87293E-11 1.23064E-09
7.23943E-11 1.18728E-09
7.61544E-11 1.14579E-09
1.18991E-10 8.18914E-10
1.71347E-10 6.07894E-10
2.33223E-10 4.65309E-10
3.04617E-10 3.64063E-10
3.85531E-10 2.89223E-10
4.75965E-10 2.32352E-10
5.75917E-10 1.88281E-10
6.85389E-10 1.52291E-10
8.04380E-10 1.25991E-10
9.32891E-10 1.05331E-10
1.07092E-09 8.78381E-11
1.21847E-09 7.44473E-11
1.37554E-09 6.32869E-11
1.54213E-09 5.40608E-11
1.71823E-09 4.67370E-11
1.90386E-09 4.03418E-11
2.09900E-09 3.50898E-11
2.30367E-09 3.07632E-11
2.51785E-09 2.69087E-11
2.74156E-09 2.37205E-11
2.97478E-09 2.09843E-11
3.21752E-09 1.85719E-11
3.46978E-09 1.65387E-11
3.73156E-09 1.47393E-11
4.00286E-09 1.31679E-11
4.28368E-09 1.18232E-11
4.57402E-09 1.06078E-11
4.87388E-09 9.55313E-12
5.18326E-09 8.63276E-12
5.50215E-09 7.80196E-12
5.83057E-09 7.07691E-12
6.16850E-09 6.43275E-12
6.51596E-09 5.85547E-12
6.87293E-09 5.34650E-12
7.23942E-09 4.88852E-12
7.61544E-09 4.47905E-12
1.18991E-08 2.06729E-12
1.71347E-08 1.09867E-12
2.33223E-08 6.41062E-13
3.04617E-08 3.98552E-13
3.85531E-08 2.59796E-13
4.75965E-08 1.76179E-13
5.75917E-08 1.23477E-13
6.85389E-08 8.90735E-14
8.04380E-08 6.58610E-14
9.32891E-08 4.97549E-14
1.07092E-07 3.82996E-14
1.21847E-07 2.99674E-14
1.37554E-07 2.37880E-14
1.54213E-07 1.91254E-14
1.71823E-07 1.55527E-14
1.90386E-07 1.27772E-14
2.09900E-07 1.05943E-14
2.30367E-07 8.85814E-15
2.51785E-07 7.46328E-15
2.74156E-07 6.33173E-15
2.97478E-07 5.40642E-15
3.21752E-07 4.64390E-15
3.46978E-07 4.01096E-15
3.73156E-07 3.48207E-15
4.00286E-07 3.03739E-15
4.28368E-07 2.66134E-15
4.57402E-07 2.34161E-15
4.87388E-07 2.06839E-15
5.18325E-07 1.83381E-15
5.50215E-07 1.63151E-15
5.83057E-07 1.45629E-15
6.16850E-07 1.30393E-15
6.51596E-07 1.17095E-15
6.87293E-07 1.05449E-15
7.23942E-07 9.52141E-16
7.61543E-07 8.61903E-16
1.18991E-06 3.57696E-16
1.71347E-06 1.74049E-16
2.33223E-06 9.45758E-17
3.04617E-06 5.57247E-17
3.85531E-06 3.49297E-17
4.75964E-06 2.29914E-17
5.75916E-06 1.57442E-17
6.85388E-06 1.11401E-17
8.04378E-06 8.10220E-18
9.32888E-06 6.03256E-18
1.07092E-05 4.58342E-18
1.21846E-05 3.54436E-18
1.37553E-05 2.78370E-18
1.54212E-05 2.21656E-18
1.71822E-05 1.78676E-18
1.90385E-05 1.45559E-18
2.09899E-05 1.19883E-18
2.30365E-05 9.96140E-19
2.51783E-05 8.34348E-19
2.74153E-05 7.03960E-19
2.97475E-05 5.98003E-19
3.21749E-05 5.11246E-19
3.46974E-05 4.39704E-19
3.73152E-05 3.80295E-19
4.00281E-05 3.30627E-19
4.28362E-05 2.88828E-19
4.57395E-05 2.53431E-19
4.87380E-05 2.23286E-19
5.18317E-05 1.97480E-19
5.50205E-05 1.75289E-19
5.83045E-05 1.56127E-19
6.16838E-05 1.39514E-19
6.51582E-05 1.25058E-19
6.87277E-05 1.12433E-19
7.23925E-05 1.01365E-19
7.61524E-05 9.19111E-20
9.21439E-05 6.28721E-20
1.09658E-04 4.44555E-20
1.28695E-04 3.23249E-20
1.49255E-04 2.40665E-20
1.71338E-04 1.82892E-20
1.94942E-04 1.41481E-20
2.20070E-04 1.11171E-20
2.46720E-04 8.85738E-21
2.74892E-04 7.14447E-21
3.04586E-04 5.82706E-21
3.35803E-04 4.80021E-21
3.68542E-04 3.99027E-21
4.02802E-04 3.34443E-21
4.38585E-04 2.82431E-21
4.75889E-04 2.40162E-21
5.14715E-04 2.05522E-21
5.55063E-04 1.76916E-21
5.96931E-04 1.53124E-21
6.40321E-04 1.33200E-21
6.85233E-04 1.16415E-21
7.31665E-04 1.02192E-21
7.79618E-04 9.00771E-22
8.29092E-04 7.97046E-22
8.80086E-04 7.07819E-22
9.32601E-04 6.30722E-22
9.86636E-04 5.63827E-22
1.04219E-03 5.05554E-22
1.09927E-03 4.54602E-22
1.15786E-03 4.09892E-22
1.21797E-03 3.70528E-22
1.27961E-03 3.35761E-22
1.34276E-03 3.04960E-22
1.40743E-03 2.77595E-22
1.47362E-03 2.53215E-22
1.54133E-03 2.31438E-22
1.61056E-03 2.11937E-22
1.68131E-03 1.94432E-22
1.75357E-03 1.78684E-22
1.82735E-03 1.64485E-22
1.90265E-03 1.51655E-22
1.97947E-03 1.40040E-22
2.05780E-03 1.29504E-22
2.13765E-03 1.19929E-22
2.21902E-03 1.11212E-22
2.30190E-03 1.03263E-22
2.38630E-03 9.60009E-23
2.47222E-03 8.93571E-23
2.55965E-03 8.32693E-23
2.64859E-03 7.76827E-23
2.73905E-03 7.25487E-23
2.83103E-03 6.78241E-23
2.92452E-03 6.34707E-23
3.01952E-03 5.94539E-23
3.11604E-03 5.57433E-23
3.21407E-03 5.23113E-23
3.31362E-03 4.91333E-23
3.41468E-03 4.61873E-23
3.51725E-03 4.34533E-23
3.62133E-03 4.09134E-23
3.72692E-03 3.85513E-23
3.83403E-03 3.63525E-23
3.94265E-03 3.43037E-23
4.05278E-03 3.23929E-23
4.16442E-03 3.06091E-23
4.27757E-03 2.89424E-23
4.39223E-03 2.73839E-23
4.50840E-03 2.59253E-23
4.62608E-03 2.45590E-23
4.74527E-03 2.32783E-23
4.86597E-03 2.20768E-23
4.98817E-03 2.09488E-23
5.11188E-03 1.98890E-23
5.23711E-03 1.88927E-23
5.36383E-03 1.79553E-23
5.49207E-03 1.70728E-23
5.62181E-03 1.62414E-23
5.75306E-03 1.54577E-23
5.88581E-03 1.47184E-23
6.02007E-03 1.40207E-23
6.15583E-03 1.33618E-23
6.29310E-03 1.27392E-23
6.43187E-03 1.21506E-23
6.57214E-03 1.15937E-23
6.71392E-03 1.10667E-23
6.85720E-03 1.05676E-23
7.00198E-03 1.00947E-23
7.14827E-03 9.64641E-24
7.29605E-03 9.22128E-24
7.44534E-03 8.81789E-24
7.59612E-03 8.43496E-24
7.97965E-03 7.55943E-24
8.37255E-03 6.78775E-24
8.77480E-03 6.10584E-24
9.18641E-03 5.50177E-24
9.60736E-03 4.96541E-24
1.00376E-02 4.48814E-24
1.04773E-02 4.06254E-24
1.09262E-02 3.68227E-24
1.13844E-02 3.34186E-24
1.18520E-02 3.03658E-24
1.23288E-02 2.76235E-24
1.28150E-02 2.51560E-24
1.33104E-02 2.29324E-24
1.38150E-02 2.09256E-24
1.43290E-02 1.91120E-24
1.48521E-02 1.74707E-24
1.53845E-02 1.59835E-24
1.59262E-02 1.46342E-24
1.64770E-02 1.34088E-24
1.70371E-02 1.22945E-24
1.76063E-02 1.12802E-24
1.81848E-02 1.03561E-24
1.87724E-02 9.51324E-25
1.93692E-02 8.74386E-25
1.99751E-02 8.04091E-25
2.05901E-02 7.39813E-25
2.12143E-02 6.80990E-25
2.18476E-02 6.27119E-25
2.24900E-02 5.77747E-25
2.31415E-02 5.32468E-25
2.38021E-02 4.90915E-25
2.44717E-02 4.52758E-25
2.51504E-02 4.17699E-25
2.58382E-02 3.85469E-25
2.65349E-02 3.55823E-25
2.72407E-02 3.28540E-25
2.79555E-02 3.03421E-25
2.86793E-02 2.80282E-25
2.94120E-02 2.58960E-25
3.01537E-02 2.39303E-25
3.09043E-02 2.21174E-25
3.16639E-02 2.04450E-25
3.24324E-02 1.89015E-25
3.32098E-02 1.74765E-25
3.39961E-02 1.61607E-25
3.47912E-02 1.49453E-25
3.55952E-02 1.38224E-25
3.64081E-02 1.27846E-25
3.72297E-02 1.18254E-25
3.80602E-02 1.09385E-25
3.88995E-02 1.01184E-25
3.97476E-02 9.36002E-26
4.06044E-02 8.65849E-26
4.14700E-02 8.00951E-26
4.23443E-02 7.40907E-26
4.32273E-02 6.85348E-26
4.41190E-02 6.33936E-26
4.50194E-02 5.86357E-26
4.59284E-02 5.42324E-26
4.68461E-02 5.01570E-26
4.87074E-02 4.28938E-26
5.06030E-02 3.66718E-26
5.25328E-02 3.13421E-26
5.44967E-02 2.67777E-26
5.64946E-02 2.28697E-26
5.85262E-02 1.95250E-26
6.05914E-02 1.66637E-26
6.26901E-02 1.42173E-26
6.48222E-02 1.21270E-26
6.69873E-02 1.03421E-26
6.91854E-02 8.81918E-27
7.14163E-02 7.52089E-27
7.36799E-02 6.41506E-27
7.59760E-02 5.47403E-27
7.83043E-02 4.67401E-27
8.06647E-02 3.99452E-27
8.30571E-02 3.41797E-27
8.54812E-02 2.92923E-27
8.79369E-02 2.51531E-27
9.04240E-02 2.16504E-27
9.29422E-02 1.86886E-27
9.54915E-02 1.61856E-27
9.80716E-02 1.40712E-27
1.00682E-01 1.22852E-27
1.03323E-01 1.07764E-27
1.05995E-01 9.50111E-28
1.08696E-01 8.42197E-28
1.11427E-01 7.50738E-28
1.14188E-01 6.73051E-28
1.16978E-01 6.06864E-28
1.19797E-01 5.50262E-28
1.22645E-01 5.01629E-28
1.25522E-01 4.59613E-28
1.28428E-01 4.23080E-28
1.31361E-01 3.91084E-28
1.34323E-01 3.62840E-28
1.37313E-01 3.37699E-28
1.40330E-01 3.15126E-28
1.43375E-01 2.94680E-28
1.46447E-01 2.76006E-28
1.49545E-01 2.58811E-28
1.52671E-01 2.42863E-28
1.55823E-01 2.27974E-28
1.59001E-01 2.13996E-28
1.62205E-01 2.00809E-28
1.65435E-01 1.88324E-28
1.68690E-01 1.76469E-28
1.71970E-01 1.65187E-28
1.75276E-01 1.54439E-28
1.78606E-01 1.44191E-28
1.81961E-01 1.34420E-28
1.85340E-01 1.25106E-28
1.88743E-01 1.16237E-28
1.92169E-01 1.07799E-28
1.95619E-01 9.97842E-29
1.99092E-01 9.21834E-29
2.02589E-01 8.49888E-29
2.06107E-01 7.81924E-29
2.09649E-01 7.17861E-29
2.13212E-01 6.57610E-29
2.16797E-01 6.01080E-29
2.20404E-01 5.48168E-29
2.24032E-01 4.98768E-29
2.27680E-01 4.52764E-29
2.31350E-01 4.10035E-29
2.35040E-01 3.70454E-29
2.38751E-01 3.33887E-29
2.42481E-01 3.00199E-29
2.46231E-01 2.69251E-29
2.50000E-01 2.40901E-29
2.53788E-01 2.15007E-29
2.57595E-01 1.91427E-29
2.61421E-01 1.70021E-29
2.65264E-01 1.50648E-29
2.69126E-01 1.33172E-29
2.73005E-01 1.17460E-29
2.76901E-01 1.03382E-29
2.80814E-01 9.08123E-30
2.84744E-01 7.96314E-30
2.88691E-01 6.97236E-30
2.92653E-01 6.09790E-30
2.96632E-01 5.32932E-30
3.00625E-01 4.65678E-30
3.04634E-01 4.07097E-30
3.08658E-01 3.56322E-30
3.12697E-01 3.12540E-30
3.16749E-01 2.74995E-30
3.20816E-01 2.42987E-30
3.24896E-01 2.15871E-30
3.28990E-01 1.93054E-30
3.33097E-01 1.73993E-30
3.37216E-01 1.58193E-30
3.41348E-01 1.45206E-30
3.45492E-01 1.34626E-30
3.49647E-01 1.26089E-30
3.53814E-01 1.19269E-30
3.57992E-01 1.13875E-30
3.62181E-01 1.09652E-30
3.66381E-01 1.06374E-30
3.70590E-01 1.03843E-30
3.74810E-01 1.01888E-30
3.79039E-01 1.00361E-30
3.83277E-01 9.91380E-31
3.87524E-01 9.81120E-31
3.91780E-01 9.71950E-31
3.96044E-01 9.63144E-31
4.00316E-01 9.54118E-31
4.04596E-01 9.44412E-31
4.08882E-01 9.33675E-31
4.13176E-01 9.21653E-31
4.17476E-01 9.08171E-31
4.21783E-01 8.93128E-31
4.26095E-01 8.76481E-31
4.30413E-01 8.58238E-31
4.34737E-01 8.38448E-31
4.39065E-01 8.17192E-31
4.43398E-01 7.94581E-31
4.47736E-01 7.70742E-31
4.52077E-01 7.45820E-31
4.56422E-01 7.19967E-31
4.60770E-01 6.93343E-31
4.65122E-01 6.66109E-31
4.69476E-01 6.38426E-31
4.73832E-01 6.10450E-31
4.78190E-01 5.82334E-31
4.82550E-01 5.54221E-31
4.86912E-01 5.26248E-31
4.91274E-01 4.98541E-31
4.95637E-01 4.71217E-31
5.00000E-01 4.44381E-31
5.04363E-01 4.18129E-31
5.08726E-01 3.92545E-31
5.13088E-01 3.67702E-31
5.17450E-01 3.43662E-31
5.21810E-01 3.20478E-31
5.26168E-01 2.98192E-31
5.30524E-01 2.76839E-31
5.34878E-01 2.56442E-31
5.39230E-01 2.37017E-31
5.43578E-01 2.18574E-31
5.47923E-01 2.01113E-31
5.52264E-01 1.84632E-31
5.56602E-01 1.69118E-31
5.60935E-01 1.54558E-31
5.65263E-01 1.40931E-31
5.69587E-01 1.28214E-31
5.73905E-01 1.16380E-31
5.78217E-01 1.05398E-31
5.82524E-01 9.52384E-32
5.86824E-01 8.58658E-32
5.91118E-01 7.72454E-32
5.95404E-01 6.93408E-32
5.99684E-01 6.21154E-32
6.03956E-01 5.55319E-32
6.08220E-01 4.95532E-32
6.12476E-01 4.41424E-32
6.16723E-01 3.92630E-32
6.20961E-01 3.48793E-32
6.25190E-01 3.09564E-32
6.29410E-01 2.74604E-32
6.33619E-01 2.43586E-32
6.37819E-01 2.16196E-32
6.42008E-01 1.92131E-32
6.46186E-01 1.71104E-32
6.50353E-01 1.52842E-32
6.54508E-01 1.37085E-32
6.58652E-01 1.23589E-32
6.62784E-01 1.12125E-32
6.66903E-01 1.02478E-32
6.71010E-01 9.44474E-33
6.75104E-01 8.78471E-33
6.79184E-01 8.25045E-33
6.83251E-01 7.82605E-33
6.87303E-01 7.49688E-33
6.91342E-01 7.24955E-33
6.95366E-01 7.07186E-33
6.99375E-01 6.95273E-33
7.03368E-01 6.88214E-33
7.07347E-01 6.85108E-33
7.11309E-01 6.85151E-33
7.15256E-01 6.87623E-33
7.19186E-01 6.91892E-33
7.23099E-01 6.97400E-33
7.26995E-01 7.03660E-33
7.30874E-01 7.10254E-33
7.34736E-01 7.16820E-33
7.38579E-01 7.23055E-33
7.42405E-01 7.28704E-33
7.46212E-01 7.33560E-33
7.50000E-01 7.37454E-33
7.53769E-01 7.40258E-33
7.57519E-01 7.41874E-33
7.61249E-01 7.42235E-33
7.64960E-01 7.41298E-33
7.68650E-01 7.39046E-33
7.72320E-01 7.35479E-33
7.75968E-01 7.30615E-33
7.79596E-01 7.24487E-33
7.83203E-01 7.17138E-33
7.86788E-01 7.08623E-33
7.90351E-01 6.99005E-33
7.93893E-01 6.88353E-33
7.97411E-01 6.76741E-33
8.00908E-01 6.64246E-33
8.04381E-01 6.50948E-33
8.07831E-01 6.36928E-33
8.11257E-01 6.22266E-33
8.14660E-01 6.07043E-33
8.18039E-01 5.91338E-33
8.21394E-01 5.75228E-33
8.24724E-01 5.58788E-33
8.28030E-01 5.42089E-33
8.31310E-01 5.25200E-33
8.34565E-01 5.08187E-33
8.37795E-01 4.91111E-33
8.40999E-01 4.74029E-33
8.44177E-01 4.56996E-33
8.47329E-01 4.40062E-33
8.50455E-01 4.23271E-33
8.53553E-01 4.06668E-33
8.56625E-01 3.90289E-33
8.59670E-01 3.74170E-33
8.62687E-01 3.58341E-33
8.65677E-01 3.42830E-33
8.68639E-01 3.27660E-33
8.71572E-01 3.12853E-33
8.74478E-01 2.98426E-33
8.77355E-01 2.84394E-33
8.80203E-01 2.70768E-33
8.83022E-01 2.57559E-33
8.85812E-01 2.44774E-33
8.88573E-01 2.32417E-33
8.91304E-01 2.20491E-33
8.94005E-01 2.08997E-33
8.96677E-01 1.97935E-33
8.99318E-01 1.87302E-33
9.01928E-01 1.77095E-33
9.04508E-01 1.67307E-33
9.07058E-01 1.57934E-33
9.09576E-01 1.48968E-33
9.12063E-01 1.40401E-33
9.14519E-01 1.32224E-33
9.16943E-01 1.24428E-33
9.19335E-01 1.17002E-33
9.21696E-01 1.09937E-33
9.24024E-01 1.03221E-33
9.26320E-01 9.68438E-34
9.28584E-01 9.07936E-34
9.30815E-01 8.50588E-34
9.33013E-01 7.96281E-34
9.35178E-01 7.44900E-34
9.37310E-01 6.96329E-34
9.39409E-01 6.50453E-34
9.41474E-01 6.07159E-34
9.43505E-01 5.66335E-34
9.45503E-01 5.27872E-34
9.47467E-01 4.91662E-34
9.49397E-01 4.57598E-34
9.51293E-01 4.25580E-34
9.53154E-01 3.95507E-34
9.54981E-01 3.67281E-34
9.56773E-01 3.40808E-34
9.58530E-01 3.15998E-34
9.60252E-01 2.92763E-34
9.61940E-01 2.71017E-34
9.63592E-01 2.50680E-34
9.65209E-01 2.31673E-34
9.66790E-01 2.13920E-34
9.68336E-01 1.97352E-34
9.69846E-01 1.81898E-34
9.71321E-01 1.67494E-34
9.72759E-01 1.54076E-34
9.74162E-01 1.41586E-34
9.75528E-01 1.29966E-34
9.76858E-01 1.19164E-34
9.78152E-01 1.09127E-34
9.79410E-01 9.98084E-35
9.80631E-01 9.11615E-35
9.81815E-01 8.31437E-35
9.82963E-01 7.57141E-35
9.84074E-01 6.88344E-35
9.85148E-01 6.24683E-35
9.86185E-01 5.65817E-35
9.87185E-01 5.11426E-35
9.88148E-01 4.61212E-35
9.89074E-01 4.14892E-35
9.89962E-01 3.72207E-35
9.90814E-01 3.32904E-35
9.91627E-01 2.96760E-35
9.92404E-01 2.63559E-35
9.93143E-01 2.33102E-35
9.93844E-01 2.05204E-35
9.94508E-01 1.79696E-35
9.95134E-01 1.56417E-35
9.95722E-01 1.35223E-35
9.96273E-01 1.15979E-35
9.96786E-01 9.85632E-36
9.97261E-01 8.28608E-36
9.97698E-01 6.87726E-36
9.98097E-01 5.62052E-36
9.98459E-01 4.50762E-36
9.98782E-01 3.53096E-36
9.99067E-01 2.68419E-36
9.99315E-01 1.96167E-36
9.99524E-01 1.35836E-36
9.99695E-01 8.70325E-37
9.99829E-01 4.94115E-37
9.99924E-01 2.27200E-37
9.99981E-01 6.78108E-38
1.00000E+00 1.46841E-38
