 #
 # Subroutine ELSEPA. Elastic scattering of electrons and positrons
 #                    by neutral atoms and positive ions
 #
 # Projectile: electron
 # Kinetic energy = 1.00000E+07 eV = 3.67493E+05 a.u.
 #
 # WARNING: High-energy factorization with free-atom DF screening.
 #          Absorption, polarization and exchange corrections are
 #          switched off.
 #          Phase shifts are calculated for the bare nucleus.
 #          Scattering amplitudes are not evaluated.
 #
 # Element: Gd,  Z =  64,  atomic weight = 1.57250E+02 g/mol
 #
 # Nuclear model: Fermi distribution
 #                Average radius = 5.77538E-13 cm
 #                Skin thickness = 5.46000E-14 cm
 #
 # Number of electrons = 64
 #
 # Total elastic cross section = 7.42023E-18 cm**2 = 2.64981E-01 a0**2
 # 1st transport cross section = 6.59339E-23 cm**2 = 2.35454E-06 a0**2
 # 2nd transport cross section = 1.83618E-22 cm**2 = 6.55712E-06 a0**2
 #
 #
 # Differential cross section:                       MU=(1-COS(THETA))/2
 #
 #  THETA        MU          DCS          DCS        Sherman      error
 #  (deg)                 (cm**2/sr)   (a0**2/sr)    function
 #----------------------------------------------------------------------
0.00000E+00 9.49440E-12
7.61557E-13 9.49394E-12
1.18994E-12 9.49369E-12
1.71346E-12 9.49338E-12
2.33225E-12 9.49301E-12
3.04617E-12 9.49259E-12
3.85530E-12 9.49211E-12
4.75964E-12 9.49158E-12
5.75917E-12 9.49099E-12
6.85391E-12 9.49034E-12
8.04379E-12 9.48964E-12
9.32893E-12 9.48888E-12
1.07092E-11 9.48807E-12
1.21847E-11 9.48720E-12
1.37554E-11 9.48627E-12
1.54213E-11 9.48529E-12
1.71823E-11 9.48425E-12
1.90386E-11 9.48316E-12
2.09900E-11 9.48201E-12
2.30367E-11 9.48081E-12
2.51785E-11 9.47955E-12
2.74156E-11 9.47823E-12
2.97478E-11 9.47686E-12
3.21752E-11 9.47543E-12
3.46979E-11 9.47395E-12
3.73157E-11 9.47241E-12
4.00286E-11 9.47082E-12
4.28368E-11 9.46917E-12
4.57402E-11 9.46746E-12
4.87388E-11 9.46570E-12
5.18325E-11 9.46389E-12
5.50215E-11 9.46202E-12
5.83057E-11 9.46009E-12
6.16850E-11 9.45811E-12
6.51595E-11 9.45608E-12
6.87293E-11 9.45399E-12
7.23943E-11 9.45184E-12
7.61544E-11 9.44964E-12
1.18991E-10 9.42464E-12
1.71347E-10 9.39423E-12
2.33223E-10 9.35851E-12
3.04617E-10 9.31756E-12
3.85531E-10 9.27152E-12
4.75965E-10 9.22049E-12
5.75917E-10 9.16464E-12
6.85389E-10 9.10410E-12
8.04380E-10 9.03905E-12
9.32891E-10 8.96965E-12
1.07092E-09 8.89609E-12
1.21847E-09 8.81855E-12
1.37554E-09 8.73724E-12
1.54213E-09 8.65235E-12
1.71823E-09 8.56409E-12
1.90386E-09 8.47268E-12
2.09900E-09 8.37835E-12
2.30367E-09 8.28161E-12
2.51785E-09 8.18219E-12
2.74156E-09 8.08032E-12
2.97478E-09 7.97618E-12
3.21752E-09 7.86997E-12
3.46978E-09 7.76283E-12
3.73156E-09 7.65418E-12
4.00286E-09 7.54404E-12
4.28368E-09 7.43263E-12
4.57402E-09 7.32010E-12
4.87388E-09 7.20752E-12
5.18326E-09 7.09468E-12
5.50215E-09 6.98124E-12
5.83057E-09 6.86736E-12
6.16850E-09 6.75321E-12
6.51596E-09 6.63959E-12
6.87293E-09 6.52688E-12
7.23942E-09 6.41431E-12
7.61544E-09 6.30199E-12
1.18991E-08 5.23427E-12
1.71347E-08 4.31037E-12
2.33223E-08 3.55207E-12
3.04617E-08 2.94697E-12
3.85531E-08 2.46911E-12
4.75965E-08 2.09108E-12
5.75917E-08 1.78922E-12
6.85389E-08 1.54491E-12
8.04380E-08 1.34421E-12
9.32891E-08 1.17704E-12
1.07092E-07 1.03608E-12
1.21847E-07 9.15982E-13
1.37554E-07 8.12775E-13
1.54213E-07 7.23488E-13
1.71823E-07 6.45829E-13
1.90386E-07 5.78000E-13
2.09900E-07 5.18104E-13
2.30367E-07 4.62237E-13
2.51785E-07 4.15102E-13
2.74156E-07 3.75073E-13
2.97478E-07 3.40864E-13
3.21752E-07 3.11456E-13
3.46978E-07 2.82173E-13
3.73156E-07 2.56356E-13
4.00286E-07 2.33976E-13
4.28368E-07 2.14481E-13
4.57402E-07 1.97421E-13
4.87388E-07 1.81211E-13
5.18325E-07 1.66324E-13
5.50215E-07 1.53198E-13
5.83057E-07 1.41583E-13
6.16850E-07 1.31265E-13
6.51596E-07 1.21678E-13
6.87293E-07 1.12605E-13
7.23942E-07 1.04496E-13
7.61543E-07 9.72274E-14
1.18991E-06 5.00035E-14
1.71347E-06 2.79226E-14
2.33223E-06 1.66405E-14
3.04617E-06 1.05096E-14
3.85531E-06 6.98736E-15
4.75964E-06 4.85113E-15
5.75916E-06 3.48726E-15
6.85388E-06 2.57673E-15
8.04378E-06 1.94830E-15
9.32888E-06 1.50050E-15
1.07092E-05 1.17321E-15
1.21846E-05 9.29547E-16
1.37553E-05 7.45476E-16
1.54212E-05 6.04519E-16
1.71822E-05 4.95138E-16
1.90385E-05 4.09048E-16
2.09899E-05 3.41075E-16
2.30365E-05 2.86455E-16
2.51783E-05 2.42615E-16
2.74153E-05 2.06563E-16
2.97475E-05 1.77132E-16
3.21749E-05 1.52649E-16
3.46974E-05 1.32357E-16
3.73152E-05 1.15301E-16
4.00281E-05 1.00965E-16
4.28362E-05 8.87743E-17
4.57395E-05 7.83906E-17
4.87380E-05 6.94732E-17
5.18317E-05 6.17938E-17
5.50205E-05 5.51436E-17
5.83045E-05 4.93652E-17
6.16838E-05 4.43270E-17
6.51582E-05 3.99151E-17
6.87277E-05 3.60440E-17
7.23925E-05 3.26289E-17
7.61524E-05 2.96136E-17
9.21439E-05 2.05294E-17
1.09658E-04 1.46736E-17
1.28695E-04 1.07637E-17
1.49255E-04 8.07163E-18
1.71338E-04 6.17054E-18
1.94942E-04 4.79702E-18
2.20070E-04 3.78508E-18
2.46720E-04 3.02641E-18
2.74892E-04 2.44863E-18
3.04586E-04 2.00247E-18
3.35803E-04 1.65352E-18
3.68542E-04 1.37746E-18
4.02802E-04 1.15676E-18
4.38585E-04 9.78605E-19
4.75889E-04 8.33530E-19
5.14715E-04 7.14420E-19
5.55063E-04 6.15893E-19
5.96931E-04 5.33819E-19
6.40321E-04 4.65004E-19
6.85233E-04 4.06956E-19
7.31665E-04 3.57714E-19
7.79618E-04 3.15718E-19
8.29092E-04 2.79725E-19
8.80086E-04 2.48732E-19
9.32601E-04 2.21927E-19
9.86636E-04 1.98648E-19
1.04219E-03 1.78352E-19
1.09927E-03 1.60590E-19
1.15786E-03 1.44992E-19
1.21797E-03 1.31249E-19
1.27961E-03 1.19101E-19
1.34276E-03 1.08331E-19
1.40743E-03 9.87561E-20
1.47362E-03 9.02193E-20
1.54133E-03 8.25886E-20
1.61056E-03 7.57508E-20
1.68131E-03 6.96087E-20
1.75357E-03 6.40791E-20
1.82735E-03 5.90900E-20
1.90265E-03 5.45790E-20
1.97947E-03 5.04922E-20
2.05780E-03 4.67824E-20
2.13765E-03 4.34085E-20
2.21902E-03 4.03348E-20
2.30190E-03 3.75298E-20
2.38630E-03 3.49655E-20
2.47222E-03 3.26174E-20
2.55965E-03 3.04642E-20
2.64859E-03 2.84868E-20
2.73905E-03 2.66681E-20
2.83103E-03 2.49928E-20
2.92452E-03 2.34479E-20
3.01952E-03 2.20212E-20
3.11604E-03 2.07020E-20
3.21407E-03 1.94807E-20
3.31362E-03 1.83486E-20
3.41468E-03 1.72981E-20
3.51725E-03 1.63223E-20
3.62133E-03 1.54147E-20
3.72692E-03 1.45697E-20
3.83403E-03 1.37822E-20
3.94265E-03 1.30476E-20
4.05278E-03 1.23617E-20
4.16442E-03 1.17205E-20
4.27757E-03 1.11207E-20
4.39223E-03 1.05591E-20
4.50840E-03 1.00327E-20
4.62608E-03 9.53899E-21
4.74527E-03 9.07551E-21
4.86597E-03 8.64007E-21
4.98817E-03 8.23065E-21
5.11188E-03 7.84540E-21
5.23711E-03 7.48261E-21
5.36383E-03 7.14074E-21
5.49207E-03 6.81835E-21
5.62181E-03 6.51411E-21
5.75306E-03 6.22680E-21
5.88581E-03 5.95531E-21
6.02007E-03 5.69859E-21
6.15583E-03 5.45570E-21
6.29310E-03 5.22573E-21
6.43187E-03 5.00786E-21
6.57214E-03 4.80136E-21
6.71392E-03 4.60549E-21
6.85720E-03 4.41961E-21
7.00198E-03 4.24312E-21
7.14827E-03 4.07544E-21
7.29605E-03 3.91605E-21
7.44534E-03 3.76447E-21
7.59612E-03 3.62022E-21
7.97965E-03 3.28904E-21
8.37255E-03 2.99527E-21
8.77480E-03 2.73395E-21
9.18641E-03 2.50084E-21
9.60736E-03 2.29234E-21
1.00376E-02 2.10539E-21
1.04773E-02 1.93735E-21
1.09262E-02 1.78596E-21
1.13844E-02 1.64927E-21
1.18520E-02 1.52559E-21
1.23288E-02 1.41345E-21
1.28150E-02 1.31157E-21
1.33104E-02 1.21884E-21
1.38150E-02 1.13429E-21
1.43290E-02 1.05705E-21
1.48521E-02 9.86381E-22
1.53845E-02 9.21614E-22
1.59262E-02 8.62163E-22
1.64770E-02 8.07509E-22
1.70371E-02 7.57190E-22
1.76063E-02 7.10797E-22
1.81848E-02 6.67966E-22
1.87724E-02 6.28371E-22
1.93692E-02 5.91720E-22
1.99751E-02 5.57753E-22
2.05901E-02 5.26233E-22
2.12143E-02 4.96951E-22
2.18476E-02 4.69716E-22
2.24900E-02 4.44359E-22
2.31415E-02 4.20724E-22
2.38021E-02 3.98671E-22
2.44717E-02 3.78074E-22
2.51504E-02 3.58817E-22
2.58382E-02 3.40797E-22
2.65349E-02 3.23917E-22
2.72407E-02 3.08092E-22
2.79555E-02 2.93242E-22
2.86793E-02 2.79296E-22
2.94120E-02 2.66188E-22
3.01537E-02 2.53857E-22
3.09043E-02 2.42248E-22
3.16639E-02 2.31309E-22
3.24324E-02 2.20995E-22
3.32098E-02 2.11263E-22
3.39961E-02 2.02074E-22
3.47912E-02 1.93390E-22
3.55952E-02 1.85179E-22
3.64081E-02 1.77409E-22
3.72297E-02 1.70053E-22
3.80602E-02 1.63082E-22
3.88995E-02 1.56474E-22
3.97476E-02 1.50206E-22
4.06044E-02 1.44256E-22
4.14700E-02 1.38605E-22
4.23443E-02 1.33235E-22
4.32273E-02 1.28129E-22
4.41190E-02 1.23271E-22
4.50194E-02 1.18647E-22
4.59284E-02 1.14243E-22
4.68461E-02 1.10047E-22
4.87074E-02 1.02231E-22
5.06030E-02 9.51136E-23
5.25328E-02 8.86200E-23
5.44967E-02 8.26848E-23
5.64946E-02 7.72502E-23
5.85262E-02 7.22659E-23
6.05914E-02 6.76871E-23
6.26901E-02 6.34742E-23
6.48222E-02 5.95920E-23
6.69873E-02 5.60095E-23
6.91854E-02 5.26988E-23
7.14163E-02 4.96351E-23
7.36799E-02 4.67963E-23
7.59760E-02 4.41625E-23
7.83043E-02 4.17158E-23
8.06647E-02 3.94403E-23
8.30571E-02 3.73217E-23
8.54812E-02 3.53466E-23
8.79369E-02 3.35036E-23
9.04240E-02 3.17819E-23
9.29422E-02 3.01719E-23
9.54915E-02 2.86649E-23
9.80716E-02 2.72529E-23
1.00682E-01 2.59286E-23
1.03323E-01 2.46855E-23
1.05995E-01 2.35177E-23
1.08696E-01 2.24194E-23
1.11427E-01 2.13859E-23
1.14188E-01 2.04124E-23
1.16978E-01 1.94947E-23
1.19797E-01 1.86290E-23
1.22645E-01 1.78117E-23
1.25522E-01 1.70395E-23
1.28428E-01 1.63094E-23
1.31361E-01 1.56187E-23
1.34323E-01 1.49647E-23
1.37313E-01 1.43451E-23
1.40330E-01 1.37577E-23
1.43375E-01 1.32005E-23
1.46447E-01 1.26716E-23
1.49545E-01 1.21693E-23
1.52671E-01 1.16919E-23
1.55823E-01 1.12379E-23
1.59001E-01 1.08060E-23
1.62205E-01 1.03949E-23
1.65435E-01 1.00033E-23
1.68690E-01 9.63009E-24
1.71970E-01 9.27427E-24
1.75276E-01 8.93484E-24
1.78606E-01 8.61089E-24
1.81961E-01 8.30155E-24
1.85340E-01 8.00604E-24
1.88743E-01 7.72359E-24
1.92169E-01 7.45352E-24
1.95619E-01 7.19517E-24
1.99092E-01 6.94791E-24
2.02589E-01 6.71118E-24
2.06107E-01 6.48442E-24
2.09649E-01 6.26714E-24
2.13212E-01 6.05885E-24
2.16797E-01 5.85910E-24
2.20404E-01 5.66746E-24
2.24032E-01 5.48350E-24
2.27680E-01 5.30689E-24
2.31350E-01 5.13726E-24
2.35040E-01 4.97429E-24
2.38751E-01 4.81765E-24
2.42481E-01 4.66705E-24
2.46231E-01 4.52221E-24
2.50000E-01 4.38286E-24
2.53788E-01 4.24875E-24
2.57595E-01 4.11964E-24
2.61421E-01 3.99530E-24
2.65264E-01 3.87552E-24
2.69126E-01 3.76011E-24
2.73005E-01 3.64886E-24
2.76901E-01 3.54160E-24
2.80814E-01 3.43815E-24
2.84744E-01 3.33835E-24
2.88691E-01 3.24205E-24
2.92653E-01 3.14909E-24
2.96632E-01 3.05934E-24
3.00625E-01 2.97266E-24
3.04634E-01 2.88892E-24
3.08658E-01 2.80801E-24
3.12697E-01 2.72981E-24
3.16749E-01 2.65422E-24
3.20816E-01 2.58111E-24
3.24896E-01 2.51041E-24
3.28990E-01 2.44201E-24
3.33097E-01 2.37582E-24
3.37216E-01 2.31176E-24
3.41348E-01 2.24974E-24
3.45492E-01 2.18968E-24
3.49647E-01 2.13152E-24
3.53814E-01 2.07517E-24
3.57992E-01 2.02058E-24
3.62181E-01 1.96767E-24
3.66381E-01 1.91639E-24
3.70590E-01 1.86666E-24
3.74810E-01 1.81845E-24
3.79039E-01 1.77168E-24
3.83277E-01 1.72632E-24
3.87524E-01 1.68230E-24
3.91780E-01 1.63958E-24
3.96044E-01 1.59812E-24
4.00316E-01 1.55787E-24
4.04596E-01 1.51879E-24
4.08882E-01 1.48083E-24
4.13176E-01 1.44396E-24
4.17476E-01 1.40815E-24
4.21783E-01 1.37335E-24
4.26095E-01 1.33953E-24
4.30413E-01 1.30666E-24
4.34737E-01 1.27470E-24
4.39065E-01 1.24364E-24
4.43398E-01 1.21342E-24
4.47736E-01 1.18404E-24
4.52077E-01 1.15546E-24
4.56422E-01 1.12766E-24
4.60770E-01 1.10060E-24
4.65122E-01 1.07427E-24
4.69476E-01 1.04865E-24
4.73832E-01 1.02370E-24
4.78190E-01 9.99417E-25
4.82550E-01 9.75771E-25
4.86912E-01 9.52743E-25
4.91274E-01 9.30315E-25
4.95637E-01 9.08469E-25
5.00000E-01 8.87185E-25
5.04363E-01 8.66448E-25
5.08726E-01 8.46240E-25
5.13088E-01 8.26546E-25
5.17450E-01 8.07351E-25
5.21810E-01 7.88638E-25
5.26168E-01 7.70395E-25
5.30524E-01 7.52606E-25
5.34878E-01 7.35260E-25
5.39230E-01 7.18342E-25
5.43578E-01 7.01840E-25
5.47923E-01 6.85743E-25
5.52264E-01 6.70039E-25
5.56602E-01 6.54716E-25
5.60935E-01 6.39764E-25
5.65263E-01 6.25172E-25
5.69587E-01 6.10930E-25
5.73905E-01 5.97028E-25
5.78217E-01 5.83456E-25
5.82524E-01 5.70206E-25
5.86824E-01 5.57269E-25
5.91118E-01 5.44636E-25
5.95404E-01 5.32298E-25
5.99684E-01 5.20248E-25
6.03956E-01 5.08478E-25
6.08220E-01 4.96980E-25
6.12476E-01 4.85748E-25
6.16723E-01 4.74773E-25
6.20961E-01 4.64049E-25
6.25190E-01 4.53569E-25
6.29410E-01 4.43328E-25
6.33619E-01 4.33318E-25
6.37819E-01 4.23535E-25
6.42008E-01 4.13971E-25
6.46186E-01 4.04621E-25
6.50353E-01 3.95480E-25
6.54508E-01 3.86542E-25
6.58652E-01 3.77802E-25
6.62784E-01 3.69256E-25
6.66903E-01 3.60897E-25
6.71010E-01 3.52723E-25
6.75104E-01 3.44727E-25
6.79184E-01 3.36906E-25
6.83251E-01 3.29255E-25
6.87303E-01 3.21770E-25
6.91342E-01 3.14446E-25
6.95366E-01 3.07281E-25
6.99375E-01 3.00270E-25
7.03368E-01 2.93410E-25
7.07347E-01 2.86696E-25
7.11309E-01 2.80125E-25
7.15256E-01 2.73694E-25
7.19186E-01 2.67400E-25
7.23099E-01 2.61239E-25
7.26995E-01 2.55208E-25
7.30874E-01 2.49304E-25
7.34736E-01 2.43524E-25
7.38579E-01 2.37866E-25
7.42405E-01 2.32326E-25
7.46212E-01 2.26902E-25
7.50000E-01 2.21591E-25
7.53769E-01 2.16390E-25
7.57519E-01 2.11297E-25
7.61249E-01 2.06310E-25
7.64960E-01 2.01426E-25
7.68650E-01 1.96643E-25
7.72320E-01 1.91958E-25
7.75968E-01 1.87370E-25
7.79596E-01 1.82876E-25
7.83203E-01 1.78475E-25
7.86788E-01 1.74163E-25
7.90351E-01 1.69940E-25
7.93893E-01 1.65803E-25
7.97411E-01 1.61751E-25
8.00908E-01 1.57781E-25
8.04381E-01 1.53893E-25
8.07831E-01 1.50083E-25
8.11257E-01 1.46351E-25
8.14660E-01 1.42695E-25
8.18039E-01 1.39114E-25
8.21394E-01 1.35605E-25
8.24724E-01 1.32167E-25
8.28030E-01 1.28799E-25
8.31310E-01 1.25500E-25
8.34565E-01 1.22267E-25
8.37795E-01 1.19100E-25
8.40999E-01 1.15998E-25
8.44177E-01 1.12958E-25
8.47329E-01 1.09980E-25
8.50455E-01 1.07063E-25
8.53553E-01 1.04205E-25
8.56625E-01 1.01405E-25
8.59670E-01 9.86628E-26
8.62687E-01 9.59762E-26
8.65677E-01 9.33444E-26
8.68639E-01 9.07665E-26
8.71572E-01 8.82413E-26
8.74478E-01 8.57681E-26
8.77355E-01 8.33456E-26
8.80203E-01 8.09731E-26
8.83022E-01 7.86496E-26
8.85812E-01 7.63741E-26
8.88573E-01 7.41459E-26
8.91304E-01 7.19640E-26
8.94005E-01 6.98277E-26
8.96677E-01 6.77361E-26
8.99318E-01 6.56884E-26
9.01928E-01 6.36839E-26
9.04508E-01 6.17217E-26
9.07058E-01 5.98013E-26
9.09576E-01 5.79218E-26
9.12063E-01 5.60826E-26
9.14519E-01 5.42830E-26
9.16943E-01 5.25222E-26
9.19335E-01 5.07998E-26
9.21696E-01 4.91151E-26
9.24024E-01 4.74673E-26
9.26320E-01 4.58561E-26
9.28584E-01 4.42807E-26
9.30815E-01 4.27406E-26
9.33013E-01 4.12352E-26
9.35178E-01 3.97641E-26
9.37310E-01 3.83267E-26
9.39409E-01 3.69225E-26
9.41474E-01 3.55509E-26
9.43505E-01 3.42116E-26
9.45503E-01 3.29040E-26
9.47467E-01 3.16277E-26
9.49397E-01 3.03823E-26
9.51293E-01 2.91672E-26
9.53154E-01 2.79822E-26
9.54981E-01 2.68267E-26
9.56773E-01 2.57005E-26
9.58530E-01 2.46030E-26
9.60252E-01 2.35340E-26
9.61940E-01 2.24930E-26
9.63592E-01 2.14797E-26
9.65209E-01 2.04938E-26
9.66790E-01 1.95350E-26
9.68336E-01 1.86028E-26
9.69846E-01 1.76971E-26
9.71321E-01 1.68174E-26
9.72759E-01 1.59636E-26
9.74162E-01 1.51353E-26
9.75528E-01 1.43322E-26
9.76858E-01 1.35541E-26
9.78152E-01 1.28007E-26
9.79410E-01 1.20717E-26
9.80631E-01 1.13670E-26
9.81815E-01 1.06863E-26
9.82963E-01 1.00294E-26
9.84074E-01 9.39598E-27
9.85148E-01 8.78595E-27
9.86185E-01 8.19906E-27
9.87185E-01 7.63514E-27
9.88148E-01 7.09398E-27
9.89074E-01 6.57543E-27
9.89962E-01 6.07930E-27
9.90814E-01 5.60545E-27
9.91627E-01 5.15371E-27
9.92404E-01 4.72394E-27
9.93143E-01 4.31600E-27
9.93844E-01 3.92976E-27
9.94508E-01 3.56510E-27
9.95134E-01 3.22189E-27
9.95722E-01 2.90003E-27
9.96273E-01 2.59942E-27
9.96786E-01 2.31995E-27
9.97261E-01 2.06154E-27
9.97698E-01 1.82411E-27
9.98097E-01 1.60757E-27
9.98459E-01 1.41187E-27
9.98782E-01 1.23693E-27
9.99067E-01 1.08271E-27
9.99315E-01 9.49146E-28
9.99524E-01 8.36204E-28
9.99695E-01 7.43847E-28
9.99829E-01 6.72043E-28
9.99924E-01 6.20771E-28
9.99981E-01 5.90015E-28
1.00000E+00 5.79764E-28
