 #
 # Subroutine ELSEPA. Elastic scattering of electrons and positrons
 #                    by neutral atoms and positive ions
 #
 # Projectile: electron
 # Kinetic energy = 9.00000E+08 eV = 3.30744E+07 a.u.
 #
 # WARNING: High-energy factorization with free-atom DF screening.
 #          Absorption, polarization and exchange corrections are
 #          switched off.
 #          Phase shifts are calculated for the bare nucleus.
 #          Scattering amplitudes are not evaluated.
 #
 # Element:  H,  Z =   1,  atomic weight = 1.00790E+00 g/mol
 #
 # Nuclear model: Fermi distribution
 #                Average radius = 1.07281E-13 cm
 #                Skin thickness = 5.46000E-14 cm
 #
 # Number of electrons =  1
 #
 # Total elastic cross section = 1.08019E-20 cm**2 = 3.85744E-04 a0**2
 # 1st transport cross section = 3.12831E-30 cm**2 = 1.11714E-13 a0**2
 # 2nd transport cross section = 9.38094E-30 cm**2 = 3.34999E-13 a0**2
 #
 #
 # Differential cross section:                       MU=(1-COS(THETA))/2
 #
 #  THETA        MU          DCS          DCS        Sherman      error
 #  (deg)                 (cm**2/sr)   (a0**2/sr)    function
 #----------------------------------------------------------------------
0.00000E+00 8.69579E-11
7.61557E-13 7.63638E-11
1.18994E-12 7.11819E-11
1.71346E-12 6.54934E-11
2.33225E-12 5.93519E-11
3.04617E-12 5.35492E-11
3.85530E-12 4.76583E-11
4.75964E-12 4.21886E-11
5.75917E-12 3.72284E-11
6.85391E-12 3.25060E-11
8.04379E-12 2.83889E-11
9.32893E-12 2.47194E-11
1.07092E-11 2.14427E-11
1.21847E-11 1.86353E-11
1.37554E-11 1.61569E-11
1.54213E-11 1.40175E-11
1.71823E-11 1.21926E-11
1.90386E-11 1.05903E-11
2.09900E-11 9.22585E-12
2.30367E-11 8.05520E-12
2.51785E-11 7.03810E-12
2.74156E-11 6.16942E-12
2.97478E-11 5.41853E-12
3.21752E-11 4.76923E-12
3.46979E-11 4.20582E-12
3.73157E-11 3.69334E-12
4.00286E-11 3.25503E-12
4.28368E-11 2.87865E-12
4.57402E-11 2.55421E-12
4.87388E-11 2.27350E-12
5.18325E-11 2.02974E-12
5.50215E-11 1.81733E-12
5.83057E-11 1.63163E-12
6.16850E-11 1.46875E-12
6.51595E-11 1.32546E-12
6.87293E-11 1.19903E-12
7.23943E-11 1.08715E-12
7.61544E-11 9.87891E-13
1.18991E-10 4.20625E-13
1.71347E-10 2.07228E-13
2.33223E-10 1.13319E-13
3.04617E-10 6.69913E-14
3.85531E-10 4.20670E-14
4.75965E-10 2.77159E-14
5.75917E-10 1.89891E-14
6.85389E-10 1.34393E-14
8.04380E-10 9.77522E-15
9.32891E-10 7.27817E-15
1.07092E-09 5.52945E-15
1.21847E-09 4.27549E-15
1.37554E-09 3.35752E-15
1.54213E-09 2.67310E-15
1.71823E-09 2.15446E-15
1.90386E-09 1.75567E-15
2.09900E-09 1.44500E-15
2.30367E-09 1.20008E-15
2.51785E-09 1.00491E-15
2.74156E-09 8.47842E-16
2.97478E-09 7.20288E-16
3.21752E-09 6.15839E-16
3.46978E-09 5.29650E-16
3.73156E-09 4.58023E-16
4.00286E-09 3.98103E-16
4.28368E-09 3.47667E-16
4.57402E-09 3.04970E-16
4.87388E-09 2.68629E-16
5.18326E-09 2.37543E-16
5.50215E-09 2.10826E-16
5.83057E-09 1.87761E-16
6.16850E-09 1.67766E-16
6.51596E-09 1.50362E-16
6.87293E-09 1.35158E-16
7.23942E-09 1.21827E-16
7.61544E-09 1.10100E-16
1.18991E-08 4.51154E-17
1.71347E-08 2.17618E-17
2.33223E-08 1.17481E-17
3.04617E-08 6.88709E-18
3.85531E-08 4.29983E-18
4.75965E-08 2.82124E-18
5.75917E-08 1.92701E-18
6.85389E-08 1.36063E-18
8.04380E-08 9.87869E-19
9.32891E-08 7.34458E-19
1.07092E-07 5.57339E-19
1.21847E-07 4.30536E-19
1.37554E-07 3.37829E-19
1.54213E-07 2.68786E-19
1.71823E-07 2.16513E-19
1.90386E-07 1.76352E-19
2.09900E-07 1.45086E-19
2.30367E-07 1.20452E-19
2.51785E-07 1.00831E-19
2.74156E-07 8.50478E-20
2.97478E-07 7.22353E-20
3.21752E-07 6.17472E-20
3.46978E-07 5.30953E-20
3.73156E-07 4.59071E-20
4.00286E-07 3.98953E-20
4.28368E-07 3.48361E-20
4.57402E-07 3.05540E-20
4.87388E-07 2.69101E-20
5.18325E-07 2.37936E-20
5.50215E-07 2.11155E-20
5.83057E-07 1.88038E-20
6.16850E-07 1.68000E-20
6.51596E-07 1.50561E-20
6.87293E-07 1.35327E-20
7.23942E-07 1.21972E-20
7.61543E-07 1.10225E-20
1.18991E-06 4.51486E-21
1.71347E-06 2.17732E-21
2.33223E-06 1.17527E-21
3.04617E-06 6.88927E-22
3.85531E-06 4.30096E-22
4.75964E-06 2.82188E-22
5.75916E-06 1.92739E-22
6.85388E-06 1.36088E-22
8.04378E-06 9.88036E-23
9.32888E-06 7.34576E-23
1.07092E-05 5.57425E-23
1.21846E-05 4.30600E-23
1.37553E-05 3.37879E-23
1.54212E-05 2.68825E-23
1.71822E-05 2.16545E-23
1.90385E-05 1.76378E-23
2.09899E-05 1.45108E-23
2.30365E-05 1.20470E-23
2.51783E-05 1.00847E-23
2.74153E-05 8.50611E-24
2.97475E-05 7.22469E-24
3.21749E-05 6.17573E-24
3.46974E-05 5.31043E-24
3.73152E-05 4.59151E-24
4.00281E-05 3.99024E-24
4.28362E-05 3.48424E-24
4.57395E-05 3.05598E-24
4.87380E-05 2.69153E-24
5.18317E-05 2.37984E-24
5.50205E-05 2.11198E-24
5.83045E-05 1.88078E-24
6.16838E-05 1.68036E-24
6.51582E-05 1.50594E-24
6.87277E-05 1.35358E-24
7.23925E-05 1.22001E-24
7.61524E-05 1.10252E-24
9.21439E-05 7.53057E-25
1.09658E-04 5.31725E-25
1.28695E-04 3.79474E-25
1.49255E-04 2.87031E-25
1.71338E-04 2.17817E-25
1.94942E-04 1.68264E-25
2.20070E-04 1.32036E-25
2.46720E-04 1.01648E-25
2.74892E-04 8.15751E-26
3.04586E-04 6.61837E-26
3.35803E-04 5.42260E-26
3.68542E-04 4.48245E-26
4.02802E-04 3.73540E-26
4.38585E-04 3.13583E-26
4.75889E-04 2.65036E-26
5.14715E-04 2.25399E-26
5.55063E-04 1.92789E-26
5.96931E-04 1.65774E-26
6.40321E-04 1.43244E-26
6.85233E-04 1.24343E-26
7.31665E-04 1.08395E-26
7.79618E-04 9.48693E-27
8.29092E-04 8.33398E-27
8.80086E-04 7.34664E-27
9.32601E-04 6.49751E-27
9.86636E-04 5.76417E-27
1.04219E-03 5.12845E-27
1.09927E-03 4.57530E-27
1.15786E-03 4.09235E-27
1.21797E-03 3.66933E-27
1.27961E-03 3.29763E-27
1.34276E-03 2.97009E-27
1.40743E-03 2.68064E-27
1.47362E-03 2.42419E-27
1.54133E-03 2.19639E-27
1.61056E-03 1.99355E-27
1.68131E-03 1.81254E-27
1.75357E-03 1.65063E-27
1.82735E-03 1.50552E-27
1.90265E-03 1.37520E-27
1.97947E-03 1.25795E-27
2.05780E-03 1.15224E-27
2.13765E-03 1.05679E-27
2.21902E-03 9.70453E-28
2.30190E-03 8.92226E-28
2.38630E-03 8.21243E-28
2.47222E-03 7.56734E-28
2.55965E-03 6.98026E-28
2.64859E-03 6.44523E-28
2.73905E-03 5.95698E-28
2.83103E-03 5.51087E-28
2.92452E-03 5.10273E-28
3.01952E-03 4.72891E-28
3.11604E-03 4.38613E-28
3.21407E-03 4.07145E-28
3.31362E-03 3.78227E-28
3.41468E-03 3.51624E-28
3.51725E-03 3.27128E-28
3.62133E-03 3.04549E-28
3.72692E-03 2.83718E-28
3.83403E-03 2.64483E-28
3.94265E-03 2.46705E-28
4.05278E-03 2.30262E-28
4.16442E-03 2.15039E-28
4.27757E-03 2.00936E-28
4.39223E-03 1.87860E-28
4.50840E-03 1.75728E-28
4.62608E-03 1.64463E-28
4.74527E-03 1.53996E-28
4.86597E-03 1.44264E-28
4.98817E-03 1.35210E-28
5.11188E-03 1.26780E-28
5.23711E-03 1.18928E-28
5.36383E-03 1.11609E-28
5.49207E-03 1.04783E-28
5.62181E-03 9.84137E-29
5.75306E-03 9.24667E-29
5.88581E-03 8.69115E-29
6.02007E-03 8.17194E-29
6.15583E-03 7.68644E-29
6.29310E-03 7.23224E-29
6.43187E-03 6.80712E-29
6.57214E-03 6.40904E-29
6.71392E-03 6.03611E-29
6.85720E-03 5.68660E-29
7.00198E-03 5.35889E-29
7.14827E-03 5.05151E-29
7.29605E-03 4.76307E-29
7.44534E-03 4.49231E-29
7.59612E-03 4.23805E-29
7.97965E-03 3.66760E-29
8.37255E-03 3.17864E-29
8.77480E-03 2.75866E-29
9.18641E-03 2.39726E-29
9.60736E-03 2.08572E-29
1.00376E-02 1.81670E-29
1.04773E-02 1.58405E-29
1.09262E-02 1.38255E-29
1.13844E-02 1.20779E-29
1.18520E-02 1.05604E-29
1.23288E-02 9.24099E-30
1.28150E-02 8.09256E-30
1.33104E-02 7.09189E-30
1.38150E-02 6.21910E-30
1.43290E-02 5.45712E-30
1.48521E-02 4.79131E-30
1.53845E-02 4.20904E-30
1.59262E-02 3.69944E-30
1.64770E-02 3.25311E-30
1.70371E-02 2.86192E-30
1.76063E-02 2.51884E-30
1.81848E-02 2.21777E-30
1.87724E-02 1.95341E-30
1.93692E-02 1.72116E-30
1.99751E-02 1.51701E-30
2.05901E-02 1.33749E-30
2.12143E-02 1.17954E-30
2.18476E-02 1.04052E-30
2.24900E-02 9.18110E-31
2.31415E-02 8.10284E-31
2.38021E-02 7.15272E-31
2.44717E-02 6.31524E-31
2.51504E-02 5.57680E-31
2.58382E-02 4.92553E-31
2.65349E-02 4.35096E-31
2.72407E-02 3.84395E-31
2.79555E-02 3.39643E-31
2.86793E-02 3.00136E-31
2.94120E-02 2.65249E-31
3.01537E-02 2.34439E-31
3.09043E-02 2.07223E-31
3.16639E-02 1.83178E-31
3.24324E-02 1.61933E-31
3.32098E-02 1.43157E-31
3.39961E-02 1.26563E-31
3.47912E-02 1.11896E-31
3.55952E-02 9.89292E-32
3.64081E-02 8.74658E-32
3.72297E-02 7.73304E-32
3.80602E-02 6.83688E-32
3.88995E-02 6.04444E-32
3.97476E-02 5.34368E-32
4.06044E-02 4.72397E-32
4.14700E-02 4.17595E-32
4.23443E-02 3.69130E-32
4.32273E-02 3.26269E-32
4.41190E-02 2.88363E-32
4.50194E-02 2.54841E-32
4.59284E-02 2.25195E-32
4.68461E-02 1.98980E-32
4.87074E-02 1.55300E-32
5.06030E-02 1.21150E-32
5.25328E-02 9.44586E-33
5.44967E-02 7.36034E-33
5.64946E-02 5.73140E-33
5.85262E-02 4.45973E-33
6.05914E-02 3.46742E-33
6.26901E-02 2.69358E-33
6.48222E-02 2.09048E-33
6.69873E-02 1.62081E-33
6.91854E-02 1.25530E-33
7.14163E-02 9.71106E-34
7.36799E-02 7.50315E-34
7.59760E-02 5.78967E-34
7.83043E-02 4.46127E-34
8.06647E-02 3.43252E-34
8.30571E-02 2.63687E-34
8.54812E-02 2.02225E-34
8.79369E-02 1.54815E-34
9.04240E-02 1.18297E-34
9.29422E-02 9.02182E-35
9.54915E-02 6.86598E-35
9.80716E-02 5.21385E-35
1.00682E-01 3.94992E-35
1.03323E-01 2.98507E-35
1.05995E-01 2.24984E-35
1.08696E-01 1.69117E-35
1.11427E-01 1.26753E-35
1.14188E-01 9.46882E-36
1.16978E-01 7.05134E-36
1.19797E-01 5.23281E-36
1.22645E-01 3.87044E-36
1.25522E-01 2.85094E-36
1.28428E-01 2.09065E-36
1.31361E-01 1.52691E-36
1.34323E-01 1.11066E-36
1.37313E-01 8.03556E-37
1.40330E-01 5.79058E-37
1.43375E-01 4.14827E-37
1.46447E-01 2.95873E-37
1.49545E-01 2.10062E-37
1.52671E-01 1.48162E-37
1.55823E-01 1.04079E-37
1.59001E-01 7.25954E-38
1.62205E-01 5.05848E-38
1.65435E-01 3.49845E-38
1.68690E-01 2.41907E-38
1.71970E-01 1.67478E-38
1.75276E-01 1.15563E-38
1.78606E-01 8.00140E-39
1.81961E-01 5.60107E-39
1.85340E-01 3.97123E-39
1.88743E-01 2.88507E-39
1.92169E-01 2.14449E-39
1.95619E-01 1.65509E-39
1.99092E-01 1.31473E-39
2.02589E-01 1.10593E-39
2.06107E-01 9.67586E-40
2.09649E-01 8.88978E-40
2.13212E-01 8.45163E-40
2.16797E-01 8.34674E-40
2.20404E-01 8.34737E-40
2.24032E-01 8.77867E-40
2.27680E-01 9.13191E-40
2.31350E-01 9.67923E-40
2.35040E-01 1.03211E-39
2.38751E-01 1.09598E-39
2.42481E-01 1.17643E-39
2.46231E-01 1.24468E-39
2.50000E-01 1.31689E-39
2.53788E-01 1.38549E-39
2.57595E-01 1.46281E-39
2.61421E-01 1.51508E-39
2.65264E-01 1.59173E-39
2.69126E-01 1.64502E-39
2.73005E-01 1.69460E-39
2.76901E-01 1.74667E-39
2.80814E-01 1.78121E-39
2.84744E-01 1.80543E-39
2.88691E-01 1.83445E-39
2.92653E-01 1.82640E-39
2.96632E-01 1.82333E-39
3.00625E-01 1.81461E-39
3.04634E-01 1.78981E-39
3.08658E-01 1.78986E-39
3.12697E-01 1.76191E-39
3.16749E-01 1.73513E-39
3.20816E-01 1.70720E-39
3.24896E-01 1.66993E-39
3.28990E-01 1.63736E-39
3.33097E-01 1.61046E-39
3.37216E-01 1.57758E-39
3.41348E-01 1.52025E-39
3.45492E-01 1.47140E-39
3.49647E-01 1.41315E-39
3.53814E-01 1.37327E-39
3.57992E-01 1.32200E-39
3.62181E-01 1.26486E-39
3.66381E-01 1.22537E-39
3.70590E-01 1.16073E-39
3.74810E-01 1.12506E-39
3.79039E-01 1.07525E-39
3.83277E-01 1.02721E-39
3.87524E-01 9.80573E-40
3.91780E-01 9.46458E-40
3.96044E-01 9.02756E-40
4.00316E-01 8.62393E-40
4.04596E-01 8.12144E-40
4.08882E-01 7.81318E-40
4.13176E-01 7.43432E-40
4.17476E-01 6.98194E-40
4.21783E-01 6.70980E-40
4.26095E-01 6.24960E-40
4.30413E-01 5.98178E-40
4.34737E-01 5.60539E-40
4.39065E-01 5.38477E-40
4.43398E-01 5.09315E-40
4.47736E-01 4.85433E-40
4.52077E-01 4.55408E-40
4.56422E-01 4.39909E-40
4.60770E-01 4.14152E-40
4.65122E-01 3.98543E-40
4.69476E-01 3.75294E-40
4.73832E-01 3.50568E-40
4.78190E-01 3.34195E-40
4.82550E-01 3.17589E-40
4.86912E-01 2.99992E-40
4.91274E-01 2.77595E-40
4.95637E-01 2.66401E-40
5.00000E-01 2.53023E-40
5.04363E-01 2.37737E-40
5.08726E-01 2.21698E-40
5.13088E-01 2.15942E-40
5.17450E-01 2.01726E-40
5.21810E-01 1.94037E-40
5.26168E-01 1.85718E-40
5.30524E-01 1.75008E-40
5.34878E-01 1.60948E-40
5.39230E-01 1.57064E-40
5.43578E-01 1.47585E-40
5.47923E-01 1.38581E-40
5.52264E-01 1.31675E-40
5.56602E-01 1.22184E-40
5.60935E-01 1.15858E-40
5.65263E-01 1.14599E-40
5.69587E-01 1.03445E-40
5.73905E-01 1.00707E-40
5.78217E-01 9.27984E-41
5.82524E-01 8.80635E-41
5.86824E-01 8.28251E-41
5.91118E-01 8.01184E-41
5.95404E-01 7.49321E-41
5.99684E-01 7.13190E-41
6.03956E-01 6.84786E-41
6.08220E-01 6.89458E-41
6.12476E-01 6.30373E-41
6.16723E-01 5.79896E-41
6.20961E-01 5.64352E-41
6.25190E-01 5.57628E-41
6.29410E-01 5.06834E-41
6.33619E-01 4.81743E-41
6.37819E-01 4.39814E-41
6.42008E-01 4.23969E-41
6.46186E-01 3.81502E-41
6.50353E-01 3.87205E-41
6.54508E-01 3.60464E-41
6.58652E-01 3.46388E-41
6.62784E-01 3.31531E-41
6.66903E-01 3.31333E-41
6.71010E-01 3.15138E-41
6.75104E-01 3.02824E-41
6.79184E-01 2.71537E-41
6.83251E-01 2.79571E-41
6.87303E-01 2.46587E-41
6.91342E-01 2.55475E-41
6.95366E-01 2.35819E-41
6.99375E-01 2.27451E-41
7.03368E-01 2.05163E-41
7.07347E-01 1.91558E-41
7.11309E-01 1.76816E-41
7.15256E-01 1.66515E-41
7.19186E-01 1.60261E-41
7.23099E-01 1.56178E-41
7.26995E-01 1.50453E-41
7.30874E-01 1.48002E-41
7.34736E-01 1.41497E-41
7.38579E-01 1.39629E-41
7.42405E-01 1.34595E-41
7.46212E-01 1.24850E-41
7.50000E-01 1.25314E-41
7.53769E-01 1.24232E-41
7.57519E-01 1.11417E-41
7.61249E-01 1.10207E-41
7.64960E-01 9.47497E-42
7.68650E-01 8.53818E-42
7.72320E-01 8.24758E-42
7.75968E-01 9.22693E-42
7.79596E-01 8.06129E-42
7.83203E-01 7.42191E-42
7.86788E-01 6.75196E-42
7.90351E-01 7.74363E-42
7.93893E-01 5.56831E-42
7.97411E-01 6.97171E-42
8.00908E-01 6.29391E-42
8.04381E-01 6.56332E-42
8.07831E-01 6.19315E-42
8.11257E-01 6.44543E-42
8.14660E-01 5.78336E-42
8.18039E-01 6.15415E-42
8.21394E-01 5.13751E-42
8.24724E-01 5.11129E-42
8.28030E-01 4.42026E-42
8.31310E-01 4.45531E-42
8.34565E-01 4.06240E-42
8.37795E-01 4.33840E-42
8.40999E-01 3.84234E-42
8.44177E-01 3.85647E-42
8.47329E-01 4.32741E-42
8.50455E-01 3.12143E-42
8.53553E-01 3.41803E-42
8.56625E-01 2.81252E-42
8.59670E-01 2.48346E-42
8.62687E-01 2.60572E-42
8.65677E-01 3.10805E-42
8.68639E-01 3.27202E-42
8.71572E-01 2.59760E-42
8.74478E-01 2.51628E-42
8.77355E-01 1.95179E-42
8.80203E-01 2.44378E-42
8.83022E-01 2.15394E-42
8.85812E-01 2.16063E-42
8.88573E-01 2.10847E-42
8.91304E-01 1.14826E-42
8.94005E-01 2.31594E-42
8.96677E-01 2.00921E-42
8.99318E-01 1.35756E-42
9.01928E-01 1.88316E-42
9.04508E-01 1.74809E-42
9.07058E-01 1.20325E-42
9.09576E-01 1.67783E-42
9.12063E-01 1.67219E-42
9.14519E-01 9.42693E-43
9.16943E-01 9.17003E-43
9.19335E-01 9.10924E-43
9.21696E-01 1.16831E-42
9.24024E-01 9.33604E-43
9.26320E-01 9.27283E-43
9.28584E-01 1.06939E-42
9.30815E-01 9.67213E-43
9.33013E-01 6.44062E-43
9.35178E-01 9.61588E-43
9.37310E-01 1.17829E-42
9.39409E-01 8.07919E-43
9.41474E-01 6.21290E-43
9.43505E-01 5.99214E-43
9.45503E-01 9.33290E-43
9.47467E-01 2.54477E-43
9.49397E-01 2.07474E-43
9.51293E-01 3.00346E-43
9.53154E-01 6.02535E-43
9.54981E-01 3.61414E-43
9.56773E-01 4.21481E-43
9.58530E-01 3.56289E-43
9.60252E-01 3.85200E-43
9.61940E-01 5.42879E-43
9.63592E-01 5.00038E-43
9.65209E-01 3.42443E-43
9.66790E-01 4.95387E-43
9.68336E-01 3.42126E-43
9.69846E-01 5.38967E-43
9.71321E-01 4.78398E-43
9.72759E-01 1.88516E-43
9.74162E-01 4.97113E-43
9.75528E-01 3.57368E-43
9.76858E-01 4.40849E-43
9.78152E-01 1.76627E-43
9.79410E-01 5.24262E-43
9.80631E-01 7.74271E-43
9.81815E-01 4.82652E-43
9.82963E-01 4.36504E-43
9.84074E-01 5.69210E-43
9.85148E-01 2.01649E-43
9.86185E-01 1.36930E-43
9.87185E-01 3.73382E-44
9.88148E-01 1.07034E-43
9.89074E-01 3.97668E-43
9.89962E-01 1.07996E-42
9.90814E-01 1.47214E-44
9.91627E-01 3.48950E-43
9.92404E-01 1.07715E-42
9.93143E-01 3.30757E-43
9.93844E-01 2.39251E-43
9.94508E-01 3.02977E-43
9.95134E-01 1.16227E-43
9.95722E-01 4.55033E-43
9.96273E-01 5.40093E-43
9.96786E-01 3.72937E-45
9.97261E-01 1.13626E-43
9.97698E-01 5.12024E-43
9.98097E-01 7.63486E-44
9.98459E-01 1.59735E-43
9.98782E-01 3.61986E-43
9.99067E-01 1.26981E-43
9.99315E-01 8.90448E-44
9.99524E-01 1.00000E-45
9.99695E-01 1.00000E-45
9.99829E-01 1.00000E-45
9.99924E-01 1.00000E-45
9.99981E-01 1.00000E-45
1.00000E+00 1.00000E-45
