 #
 # Subroutine ELSEPA. Elastic scattering of electrons and positrons
 #                    by neutral atoms and positive ions
 #
 # Projectile: electron
 # Kinetic energy = 7.00000E+06 eV = 2.57245E+05 a.u.
 #
 # WARNING: High-energy factorization with free-atom DF screening.
 #          Absorption, polarization and exchange corrections are
 #          switched off.
 #          Phase shifts are calculated for the bare nucleus.
 #          Scattering amplitudes are not evaluated.
 #
 # Element:  H,  Z =   1,  atomic weight = 1.00790E+00 g/mol
 #
 # Nuclear model: Fermi distribution
 #                Average radius = 1.07281E-13 cm
 #                Skin thickness = 5.46000E-14 cm
 #
 # Number of electrons =  1
 #
 # Total elastic cross section = 1.09015E-20 cm**2 = 3.89298E-04 a0**2
 # 1st transport cross section = 3.33526E-26 cm**2 = 1.19104E-09 a0**2
 # 2nd transport cross section = 9.65294E-26 cm**2 = 3.44713E-09 a0**2
 #
 #
 # Differential cross section:                       MU=(1-COS(THETA))/2
 #
 #  THETA        MU          DCS          DCS        Sherman      error
 #  (deg)                 (cm**2/sr)   (a0**2/sr)    function
 #----------------------------------------------------------------------
0.00000E+00 6.04960E-15
7.61557E-13 6.04954E-15
1.18994E-12 6.04951E-15
1.71346E-12 6.04947E-15
2.33225E-12 6.04942E-15
3.04617E-12 6.04937E-15
3.85530E-12 6.04931E-15
4.75964E-12 6.04925E-15
5.75917E-12 6.04917E-15
6.85391E-12 6.04909E-15
8.04379E-12 6.04900E-15
9.32893E-12 6.04891E-15
1.07092E-11 6.04881E-15
1.21847E-11 6.04870E-15
1.37554E-11 6.04859E-15
1.54213E-11 6.04846E-15
1.71823E-11 6.04833E-15
1.90386E-11 6.04820E-15
2.09900E-11 6.04805E-15
2.30367E-11 6.04790E-15
2.51785E-11 6.04775E-15
2.74156E-11 6.04758E-15
2.97478E-11 6.04741E-15
3.21752E-11 6.04724E-15
3.46979E-11 6.04705E-15
3.73157E-11 6.04686E-15
4.00286E-11 6.04666E-15
4.28368E-11 6.04645E-15
4.57402E-11 6.04624E-15
4.87388E-11 6.04602E-15
5.18325E-11 6.04579E-15
5.50215E-11 6.04556E-15
5.83057E-11 6.04532E-15
6.16850E-11 6.04507E-15
6.51595E-11 6.04482E-15
6.87293E-11 6.04456E-15
7.23943E-11 6.04429E-15
7.61544E-11 6.04401E-15
1.18991E-10 6.04088E-15
1.71347E-10 6.03705E-15
2.33223E-10 6.03253E-15
3.04617E-10 6.02732E-15
3.85531E-10 6.02142E-15
4.75965E-10 6.01484E-15
5.75917E-10 6.00757E-15
6.85389E-10 5.99963E-15
8.04380E-10 5.99102E-15
9.32891E-10 5.98173E-15
1.07092E-09 5.97179E-15
1.21847E-09 5.96117E-15
1.37554E-09 5.94992E-15
1.54213E-09 5.93799E-15
1.71823E-09 5.92545E-15
1.90386E-09 5.91223E-15
2.09900E-09 5.89841E-15
2.30367E-09 5.88393E-15
2.51785E-09 5.86887E-15
2.74156E-09 5.85316E-15
2.97478E-09 5.83688E-15
3.21752E-09 5.81997E-15
3.46978E-09 5.80249E-15
3.73156E-09 5.78442E-15
4.00286E-09 5.76577E-15
4.28368E-09 5.74657E-15
4.57402E-09 5.72679E-15
4.87388E-09 5.70650E-15
5.18326E-09 5.68561E-15
5.50215E-09 5.66426E-15
5.83057E-09 5.64231E-15
6.16850E-09 5.61995E-15
6.51596E-09 5.59696E-15
6.87293E-09 5.57361E-15
7.23942E-09 5.54964E-15
7.61544E-09 5.52532E-15
1.18991E-08 5.25782E-15
1.71347E-08 4.95481E-15
2.33223E-08 4.62728E-15
3.04617E-08 4.27581E-15
3.85531E-08 3.92907E-15
4.75965E-08 3.58692E-15
5.75917E-08 3.25797E-15
6.85389E-08 2.94040E-15
8.04380E-08 2.64833E-15
9.32891E-08 2.37026E-15
1.07092E-07 2.12272E-15
1.21847E-07 1.88936E-15
1.37554E-07 1.68628E-15
1.54213E-07 1.49627E-15
1.71823E-07 1.33301E-15
1.90386E-07 1.18181E-15
2.09900E-07 1.05184E-15
2.30367E-07 9.33748E-16
2.51785E-07 8.31430E-16
2.74156E-07 7.39663E-16
2.97478E-07 6.59605E-16
3.21752E-07 5.88403E-16
3.46978E-07 5.25908E-16
3.73156E-07 4.70595E-16
4.00286E-07 4.21785E-16
4.28368E-07 3.78680E-16
4.57402E-07 3.40462E-16
4.87388E-07 3.06720E-16
5.18325E-07 2.75464E-16
5.50215E-07 2.47519E-16
5.83057E-07 2.22955E-16
6.16850E-07 2.01307E-16
6.51596E-07 1.82178E-16
6.87293E-07 1.65231E-16
7.23942E-07 1.50179E-16
7.61543E-07 1.36777E-16
1.18991E-06 5.91844E-17
1.71347E-06 2.94245E-17
2.33223E-06 1.61807E-17
3.04617E-06 9.60089E-18
3.85531E-06 6.04425E-18
4.75964E-06 3.98958E-18
5.75916E-06 2.73714E-18
6.85388E-06 1.93919E-18
8.04378E-06 1.41165E-18
9.32888E-06 1.05173E-18
1.07092E-05 7.99452E-19
1.21846E-05 6.18422E-19
1.37553E-05 4.85817E-19
1.54212E-05 3.86903E-19
1.71822E-05 3.11915E-19
1.90385E-05 2.54236E-19
2.09899E-05 2.09288E-19
2.30365E-05 1.73844E-19
2.51783E-05 1.45593E-19
2.74153E-05 1.22853E-19
2.97475E-05 1.04382E-19
3.21749E-05 8.92547E-20
3.46974E-05 7.67703E-20
3.73152E-05 6.63938E-20
4.00281E-05 5.77123E-20
4.28362E-05 5.04041E-20
4.57395E-05 4.42168E-20
4.87380E-05 3.89502E-20
5.18317E-05 3.44447E-20
5.50205E-05 3.05721E-20
5.83045E-05 2.72287E-20
6.16838E-05 2.43300E-20
6.51582E-05 2.18070E-20
6.87277E-05 1.96026E-20
7.23925E-05 1.76698E-20
7.61524E-05 1.59695E-20
9.21439E-05 1.09108E-20
1.09658E-04 7.70564E-21
1.28695E-04 5.59490E-21
1.49255E-04 4.16083E-21
1.71338E-04 3.15783E-21
1.94942E-04 2.43965E-21
2.20070E-04 1.91452E-21
2.46720E-04 1.52300E-21
2.74892E-04 1.22687E-21
3.04586E-04 9.99349E-22
3.35803E-04 8.22209E-22
3.68542E-04 6.82626E-22
4.02802E-04 5.71455E-22
4.38585E-04 4.82013E-22
4.75889E-04 4.09410E-22
5.14715E-04 3.49974E-22
5.55063E-04 3.00942E-22
5.96931E-04 2.60206E-22
6.40321E-04 2.26132E-22
6.85233E-04 1.97460E-22
7.31665E-04 1.73190E-22
7.79618E-04 1.52537E-22
8.29092E-04 1.34873E-22
8.80086E-04 1.19693E-22
9.32601E-04 1.06590E-22
9.86636E-04 9.52317E-23
1.04219E-03 8.53470E-23
1.09927E-03 7.67120E-23
1.15786E-03 6.91418E-23
1.21797E-03 6.24829E-23
1.27961E-03 5.66065E-23
1.34276E-03 5.14051E-23
1.40743E-03 4.67874E-23
1.47362E-03 4.26769E-23
1.54133E-03 3.90080E-23
1.61056E-03 3.57249E-23
1.68131E-03 3.27801E-23
1.75357E-03 3.01325E-23
1.82735E-03 2.77469E-23
1.90265E-03 2.55927E-23
1.97947E-03 2.36436E-23
2.05780E-03 2.18765E-23
2.13765E-03 2.02715E-23
2.21902E-03 1.88110E-23
2.30190E-03 1.74796E-23
2.38630E-03 1.62640E-23
2.47222E-03 1.51522E-23
2.55965E-03 1.41338E-23
2.64859E-03 1.31995E-23
2.73905E-03 1.23412E-23
2.83103E-03 1.15515E-23
2.92452E-03 1.08239E-23
3.01952E-03 1.01527E-23
3.11604E-03 9.53278E-24
3.21407E-03 8.95942E-24
3.31362E-03 8.42852E-24
3.41468E-03 7.93635E-24
3.51725E-03 7.47959E-24
3.62133E-03 7.05521E-24
3.72692E-03 6.66049E-24
3.83403E-03 6.29300E-24
3.94265E-03 5.95049E-24
4.05278E-03 5.63097E-24
4.16442E-03 5.33261E-24
4.27757E-03 5.05374E-24
4.39223E-03 4.79286E-24
4.50840E-03 4.54859E-24
4.62608E-03 4.31968E-24
4.74527E-03 4.10499E-24
4.86597E-03 3.90347E-24
4.98817E-03 3.71416E-24
5.11188E-03 3.53618E-24
5.23711E-03 3.36873E-24
5.36383E-03 3.21108E-24
5.49207E-03 3.06254E-24
5.62181E-03 2.92248E-24
5.75306E-03 2.79034E-24
5.88581E-03 2.66558E-24
6.02007E-03 2.54771E-24
6.15583E-03 2.43628E-24
6.29310E-03 2.33087E-24
6.43187E-03 2.23111E-24
6.57214E-03 2.13662E-24
6.71392E-03 2.04707E-24
6.85720E-03 1.96217E-24
7.00198E-03 1.88162E-24
7.14827E-03 1.80516E-24
7.29605E-03 1.73255E-24
7.44534E-03 1.66354E-24
7.59612E-03 1.59794E-24
7.97965E-03 1.44752E-24
8.37255E-03 1.31439E-24
8.77480E-03 1.19621E-24
9.18641E-03 1.09100E-24
9.60736E-03 9.97109E-25
1.00376E-02 9.13094E-25
1.04773E-02 8.37737E-25
1.09262E-02 7.69991E-25
1.13844E-02 7.08950E-25
1.18520E-02 6.53835E-25
1.23288E-02 6.03968E-25
1.28150E-02 5.58761E-25
1.33104E-02 5.17702E-25
1.38150E-02 4.80341E-25
1.43290E-02 4.46287E-25
1.48521E-02 4.15195E-25
1.53845E-02 3.86760E-25
1.59262E-02 3.60716E-25
1.64770E-02 3.36824E-25
1.70371E-02 3.14876E-25
1.76063E-02 2.94684E-25
1.81848E-02 2.76082E-25
1.87724E-02 2.58923E-25
1.93692E-02 2.43075E-25
1.99751E-02 2.28419E-25
2.05901E-02 2.14849E-25
2.12143E-02 2.02270E-25
2.18476E-02 1.90597E-25
2.24900E-02 1.79752E-25
2.31415E-02 1.69666E-25
2.38021E-02 1.60277E-25
2.44717E-02 1.51526E-25
2.51504E-02 1.43364E-25
2.58382E-02 1.35742E-25
2.65349E-02 1.28619E-25
2.72407E-02 1.21956E-25
2.79555E-02 1.15718E-25
2.86793E-02 1.09873E-25
2.94120E-02 1.04392E-25
3.01537E-02 9.92466E-26
3.09043E-02 9.44139E-26
3.16639E-02 8.98709E-26
3.24324E-02 8.55972E-26
3.32098E-02 8.15737E-26
3.39961E-02 7.77832E-26
3.47912E-02 7.42096E-26
3.55952E-02 7.08382E-26
3.64081E-02 6.76555E-26
3.72297E-02 6.46489E-26
3.80602E-02 6.18069E-26
3.88995E-02 5.91189E-26
3.97476E-02 5.65748E-26
4.06044E-02 5.41656E-26
4.14700E-02 5.18829E-26
4.23443E-02 4.97186E-26
4.32273E-02 4.76656E-26
4.41190E-02 4.57170E-26
4.50194E-02 4.38665E-26
4.59284E-02 4.21084E-26
4.68461E-02 4.04370E-26
4.87074E-02 3.73348E-26
5.06030E-02 3.45231E-26
5.25328E-02 3.19699E-26
5.44967E-02 2.96473E-26
5.64946E-02 2.75307E-26
5.85262E-02 2.55987E-26
6.05914E-02 2.38323E-26
6.26901E-02 2.22148E-26
6.48222E-02 2.07314E-26
6.69873E-02 1.93690E-26
6.91854E-02 1.81159E-26
7.14163E-02 1.69619E-26
7.36799E-02 1.58977E-26
7.59760E-02 1.49151E-26
7.83043E-02 1.40066E-26
8.06647E-02 1.31657E-26
8.30571E-02 1.23865E-26
8.54812E-02 1.16635E-26
8.79369E-02 1.09922E-26
9.04240E-02 1.03679E-26
9.29422E-02 9.78701E-27
9.54915E-02 9.24581E-27
9.80716E-02 8.74113E-27
1.00682E-01 8.27007E-27
1.03323E-01 7.82998E-27
1.05995E-01 7.41845E-27
1.08696E-01 7.03330E-27
1.11427E-01 6.67254E-27
1.14188E-01 6.33433E-27
1.16978E-01 6.01702E-27
1.19797E-01 5.71908E-27
1.22645E-01 5.43911E-27
1.25522E-01 5.17583E-27
1.28428E-01 4.92807E-27
1.31361E-01 4.69474E-27
1.34323E-01 4.47486E-27
1.37313E-01 4.26751E-27
1.40330E-01 4.07184E-27
1.43375E-01 3.88708E-27
1.46447E-01 3.71250E-27
1.49545E-01 3.54746E-27
1.52671E-01 3.39132E-27
1.55823E-01 3.24353E-27
1.59001E-01 3.10355E-27
1.62205E-01 2.97090E-27
1.65435E-01 2.84513E-27
1.68690E-01 2.72581E-27
1.71970E-01 2.61256E-27
1.75276E-01 2.50500E-27
1.78606E-01 2.40280E-27
1.81961E-01 2.30565E-27
1.85340E-01 2.21325E-27
1.88743E-01 2.12533E-27
1.92169E-01 2.04162E-27
1.95619E-01 1.96190E-27
1.99092E-01 1.88593E-27
2.02589E-01 1.81352E-27
2.06107E-01 1.74445E-27
2.09649E-01 1.67856E-27
2.13212E-01 1.61566E-27
2.16797E-01 1.55560E-27
2.20404E-01 1.49823E-27
2.24032E-01 1.44340E-27
2.27680E-01 1.39098E-27
2.31350E-01 1.34085E-27
2.35040E-01 1.29288E-27
2.38751E-01 1.24697E-27
2.42481E-01 1.20302E-27
2.46231E-01 1.16092E-27
2.50000E-01 1.12059E-27
2.53788E-01 1.08193E-27
2.57595E-01 1.04486E-27
2.61421E-01 1.00931E-27
2.65264E-01 9.75210E-28
2.69126E-01 9.42478E-28
2.73005E-01 9.11056E-28
2.76901E-01 8.80882E-28
2.80814E-01 8.51896E-28
2.84744E-01 8.24044E-28
2.88691E-01 7.97274E-28
2.92653E-01 7.71534E-28
2.96632E-01 7.46780E-28
3.00625E-01 7.22967E-28
3.04634E-01 7.00052E-28
3.08658E-01 6.77998E-28
3.12697E-01 6.56762E-28
3.16749E-01 6.36313E-28
3.20816E-01 6.16614E-28
3.24896E-01 5.97633E-28
3.28990E-01 5.79340E-28
3.33097E-01 5.61705E-28
3.37216E-01 5.44701E-28
3.41348E-01 5.28300E-28
3.45492E-01 5.12478E-28
3.49647E-01 4.97210E-28
3.53814E-01 4.82475E-28
3.57992E-01 4.68250E-28
3.62181E-01 4.54513E-28
3.66381E-01 4.41248E-28
3.70590E-01 4.28431E-28
3.74810E-01 4.16049E-28
3.79039E-01 4.04081E-28
3.83277E-01 3.92512E-28
3.87524E-01 3.81327E-28
3.91780E-01 3.70512E-28
3.96044E-01 3.60050E-28
4.00316E-01 3.49929E-28
4.04596E-01 3.40136E-28
4.08882E-01 3.30659E-28
4.13176E-01 3.21484E-28
4.17476E-01 3.12602E-28
4.21783E-01 3.04001E-28
4.26095E-01 2.95670E-28
4.30413E-01 2.87601E-28
4.34737E-01 2.79783E-28
4.39065E-01 2.72207E-28
4.43398E-01 2.64865E-28
4.47736E-01 2.57747E-28
4.52077E-01 2.50845E-28
4.56422E-01 2.44154E-28
4.60770E-01 2.37664E-28
4.65122E-01 2.31369E-28
4.69476E-01 2.25261E-28
4.73832E-01 2.19334E-28
4.78190E-01 2.13583E-28
4.82550E-01 2.08000E-28
4.86912E-01 2.02581E-28
4.91274E-01 1.97319E-28
4.95637E-01 1.92210E-28
5.00000E-01 1.87248E-28
5.04363E-01 1.82428E-28
5.08726E-01 1.77745E-28
5.13088E-01 1.73196E-28
5.17450E-01 1.68775E-28
5.21810E-01 1.64478E-28
5.26168E-01 1.60302E-28
5.30524E-01 1.56242E-28
5.34878E-01 1.52293E-28
5.39230E-01 1.48455E-28
5.43578E-01 1.44722E-28
5.47923E-01 1.41091E-28
5.52264E-01 1.37558E-28
5.56602E-01 1.34122E-28
5.60935E-01 1.30778E-28
5.65263E-01 1.27525E-28
5.69587E-01 1.24357E-28
5.73905E-01 1.21275E-28
5.78217E-01 1.18274E-28
5.82524E-01 1.15352E-28
5.86824E-01 1.12508E-28
5.91118E-01 1.09738E-28
5.95404E-01 1.07040E-28
5.99684E-01 1.04412E-28
6.03956E-01 1.01852E-28
6.08220E-01 9.93586E-29
6.12476E-01 9.69283E-29
6.16723E-01 9.45603E-29
6.20961E-01 9.22531E-29
6.25190E-01 9.00045E-29
6.29410E-01 8.78121E-29
6.33619E-01 8.56752E-29
6.37819E-01 8.35917E-29
6.42008E-01 8.15606E-29
6.46186E-01 7.95796E-29
6.50353E-01 7.76485E-29
6.54508E-01 7.57646E-29
6.58652E-01 7.39273E-29
6.62784E-01 7.21350E-29
6.66903E-01 7.03868E-29
6.71010E-01 6.86808E-29
6.75104E-01 6.70165E-29
6.79184E-01 6.53920E-29
6.83251E-01 6.38075E-29
6.87303E-01 6.22603E-29
6.91342E-01 6.07510E-29
6.95366E-01 5.92772E-29
6.99375E-01 5.78388E-29
7.03368E-01 5.64342E-29
7.07347E-01 5.50630E-29
7.11309E-01 5.37242E-29
7.15256E-01 5.24169E-29
7.19186E-01 5.11404E-29
7.23099E-01 4.98937E-29
7.26995E-01 4.86761E-29
7.30874E-01 4.74869E-29
7.34736E-01 4.63252E-29
7.38579E-01 4.51905E-29
7.42405E-01 4.40818E-29
7.46212E-01 4.29987E-29
7.50000E-01 4.19406E-29
7.53769E-01 4.09068E-29
7.57519E-01 3.98963E-29
7.61249E-01 3.89091E-29
7.64960E-01 3.79441E-29
7.68650E-01 3.70011E-29
7.72320E-01 3.60796E-29
7.75968E-01 3.51791E-29
7.79596E-01 3.42986E-29
7.83203E-01 3.34379E-29
7.86788E-01 3.25966E-29
7.90351E-01 3.17745E-29
7.93893E-01 3.09701E-29
7.97411E-01 3.01845E-29
8.00908E-01 2.94160E-29
8.04381E-01 2.86648E-29
8.07831E-01 2.79301E-29
8.11257E-01 2.72120E-29
8.14660E-01 2.65096E-29
8.18039E-01 2.58230E-29
8.21394E-01 2.51512E-29
8.24724E-01 2.44946E-29
8.28030E-01 2.38523E-29
8.31310E-01 2.32244E-29
8.34565E-01 2.26102E-29
8.37795E-01 2.20097E-29
8.40999E-01 2.14223E-29
8.44177E-01 2.08479E-29
8.47329E-01 2.02863E-29
8.50455E-01 1.97366E-29
8.53553E-01 1.91994E-29
8.56625E-01 1.86738E-29
8.59670E-01 1.81599E-29
8.62687E-01 1.76574E-29
8.65677E-01 1.71661E-29
8.68639E-01 1.66855E-29
8.71572E-01 1.62153E-29
8.74478E-01 1.57557E-29
8.77355E-01 1.53060E-29
8.80203E-01 1.48667E-29
8.83022E-01 1.44368E-29
8.85812E-01 1.40166E-29
8.88573E-01 1.36056E-29
8.91304E-01 1.32036E-29
8.94005E-01 1.28112E-29
8.96677E-01 1.24270E-29
8.99318E-01 1.20514E-29
9.01928E-01 1.16847E-29
9.04508E-01 1.13259E-29
9.07058E-01 1.09752E-29
9.09576E-01 1.06327E-29
9.12063E-01 1.02979E-29
9.14519E-01 9.97043E-30
9.16943E-01 9.65082E-30
9.19335E-01 9.33851E-30
9.21696E-01 9.03350E-30
9.24024E-01 8.73542E-30
9.26320E-01 8.44436E-30
9.28584E-01 8.16017E-30
9.30815E-01 7.88261E-30
9.33013E-01 7.61157E-30
9.35178E-01 7.34723E-30
9.37310E-01 7.08918E-30
9.39409E-01 6.83724E-30
9.41474E-01 6.59147E-30
9.43505E-01 6.35181E-30
9.45503E-01 6.11816E-30
9.47467E-01 5.89003E-30
9.49397E-01 5.66787E-30
9.51293E-01 5.45148E-30
9.53154E-01 5.24057E-30
9.54981E-01 5.03507E-30
9.56773E-01 4.83499E-30
9.58530E-01 4.64025E-30
9.60252E-01 4.45070E-30
9.61940E-01 4.26637E-30
9.63592E-01 4.08699E-30
9.65209E-01 3.91263E-30
9.66790E-01 3.74328E-30
9.68336E-01 3.57868E-30
9.69846E-01 3.41900E-30
9.71321E-01 3.26387E-30
9.72759E-01 3.11352E-30
9.74162E-01 2.96786E-30
9.75528E-01 2.82653E-30
9.76858E-01 2.68997E-30
9.78152E-01 2.55758E-30
9.79410E-01 2.42983E-30
9.80631E-01 2.30628E-30
9.81815E-01 2.18700E-30
9.82963E-01 2.07194E-30
9.84074E-01 1.96112E-30
9.85148E-01 1.85434E-30
9.86185E-01 1.75166E-30
9.87185E-01 1.65312E-30
9.88148E-01 1.55872E-30
9.89074E-01 1.46832E-30
9.89962E-01 1.38167E-30
9.90814E-01 1.29903E-30
9.91627E-01 1.22038E-30
9.92404E-01 1.14550E-30
9.93143E-01 1.07445E-30
9.93844E-01 1.00723E-30
9.94508E-01 9.43860E-31
9.95134E-01 8.84153E-31
9.95722E-01 8.28186E-31
9.96273E-01 7.75797E-31
9.96786E-01 7.27337E-31
9.97261E-01 6.82368E-31
9.97698E-01 6.41218E-31
9.98097E-01 6.03619E-31
9.98459E-01 5.69687E-31
9.98782E-01 5.39310E-31
9.99067E-01 5.12571E-31
9.99315E-01 4.89368E-31
9.99524E-01 4.69875E-31
9.99695E-01 4.53734E-31
9.99829E-01 4.41329E-31
9.99924E-01 4.32398E-31
9.99981E-01 4.27174E-31
1.00000E+00 4.25777E-31
