 #
 # Subroutine ELSEPA. Elastic scattering of electrons and positrons
 #                    by neutral atoms and positive ions
 #
 # Projectile: electron
 # Kinetic energy = 2.00000E+07 eV = 7.34987E+05 a.u.
 #
 # WARNING: High-energy factorization with free-atom DF screening.
 #          Absorption, polarization and exchange corrections are
 #          switched off.
 #          Phase shifts are calculated for the bare nucleus.
 #          Scattering amplitudes are not evaluated.
 #
 # Element:  H,  Z =   1,  atomic weight = 1.00790E+00 g/mol
 #
 # Nuclear model: Fermi distribution
 #                Average radius = 1.07281E-13 cm
 #                Skin thickness = 5.46000E-14 cm
 #
 # Number of electrons =  1
 #
 # Total elastic cross section = 1.08399E-20 cm**2 = 3.87101E-04 a0**2
 # 1st transport cross section = 5.04984E-27 cm**2 = 1.80333E-10 a0**2
 # 2nd transport cross section = 1.46913E-26 cm**2 = 5.24635E-10 a0**2
 #
 #
 # Differential cross section:                       MU=(1-COS(THETA))/2
 #
 #  THETA        MU          DCS          DCS        Sherman      error
 #  (deg)                 (cm**2/sr)   (a0**2/sr)    function
 #----------------------------------------------------------------------
0.00000E+00 4.51133E-14
7.61557E-13 4.51102E-14
1.18994E-12 4.51084E-14
1.71346E-12 4.51063E-14
2.33225E-12 4.51037E-14
3.04617E-12 4.51008E-14
3.85530E-12 4.50975E-14
4.75964E-12 4.50938E-14
5.75917E-12 4.50897E-14
6.85391E-12 4.50852E-14
8.04379E-12 4.50804E-14
9.32893E-12 4.50751E-14
1.07092E-11 4.50695E-14
1.21847E-11 4.50634E-14
1.37554E-11 4.50570E-14
1.54213E-11 4.50502E-14
1.71823E-11 4.50430E-14
1.90386E-11 4.50354E-14
2.09900E-11 4.50275E-14
2.30367E-11 4.50191E-14
2.51785E-11 4.50104E-14
2.74156E-11 4.50012E-14
2.97478E-11 4.49917E-14
3.21752E-11 4.49818E-14
3.46979E-11 4.49716E-14
3.73157E-11 4.49609E-14
4.00286E-11 4.49498E-14
4.28368E-11 4.49384E-14
4.57402E-11 4.49266E-14
4.87388E-11 4.49144E-14
5.18325E-11 4.49018E-14
5.50215E-11 4.48888E-14
5.83057E-11 4.48755E-14
6.16850E-11 4.48617E-14
6.51595E-11 4.48476E-14
6.87293E-11 4.48331E-14
7.23943E-11 4.48183E-14
7.61544E-11 4.48030E-14
1.18991E-10 4.46298E-14
1.71347E-10 4.44194E-14
2.33223E-10 4.41726E-14
3.04617E-10 4.38899E-14
3.85531E-10 4.35730E-14
4.75965E-10 4.32221E-14
5.75917E-10 4.28392E-14
6.85389E-10 4.24248E-14
8.04380E-10 4.19810E-14
9.32891E-10 4.15089E-14
1.07092E-09 4.10098E-14
1.21847E-09 4.04860E-14
1.37554E-09 3.99377E-14
1.54213E-09 3.93685E-14
1.71823E-09 3.87777E-14
1.90386E-09 3.81693E-14
2.09900E-09 3.75433E-14
2.30367E-09 3.69023E-14
2.51785E-09 3.62480E-14
2.74156E-09 3.55810E-14
2.97478E-09 3.49050E-14
3.21752E-09 3.42186E-14
3.46978E-09 3.35268E-14
3.73156E-09 3.28128E-14
4.00286E-09 3.20612E-14
4.28368E-09 3.13261E-14
4.57402E-09 3.06082E-14
4.87388E-09 2.99083E-14
5.18326E-09 2.92267E-14
5.50215E-09 2.85639E-14
5.83057E-09 2.78816E-14
6.16850E-09 2.71420E-14
6.51596E-09 2.64265E-14
6.87293E-09 2.57349E-14
7.23942E-09 2.50668E-14
7.61544E-09 2.44219E-14
1.18991E-08 1.83270E-14
1.71347E-08 1.34271E-14
2.33223E-08 9.75471E-15
3.04617E-08 7.05310E-15
3.85531E-08 5.13717E-15
4.75965E-08 3.76523E-15
5.75917E-08 2.79435E-15
6.85389E-08 2.09117E-15
8.04380E-08 1.56785E-15
9.32891E-08 1.19616E-15
1.07092E-07 9.27045E-16
1.21847E-07 7.28714E-16
1.37554E-07 5.80186E-16
1.54213E-07 4.67315E-16
1.71823E-07 3.80389E-16
1.90386E-07 3.12622E-16
2.09900E-07 2.59197E-16
2.30367E-07 2.16643E-16
2.51785E-07 1.82427E-16
2.74156E-07 1.54672E-16
2.97478E-07 1.31975E-16
3.21752E-07 1.13275E-16
3.46978E-07 9.77588E-17
3.73156E-07 8.48005E-17
4.00286E-07 7.39121E-17
4.28368E-07 6.47107E-17
4.57402E-07 5.68930E-17
4.87388E-07 5.02176E-17
5.18325E-07 4.44903E-17
5.50215E-07 3.95545E-17
5.83057E-07 3.52829E-17
6.16850E-07 3.15713E-17
6.51596E-07 2.83341E-17
6.87293E-07 2.55004E-17
7.23942E-07 2.30116E-17
7.61543E-07 2.08185E-17
1.18991E-06 8.59362E-18
1.71347E-06 4.16186E-18
2.33223E-06 2.25221E-18
3.04617E-06 1.32240E-18
3.85531E-06 8.26513E-19
4.75964E-06 5.42719E-19
5.75916E-06 3.70910E-19
6.85388E-06 2.62009E-19
8.04378E-06 1.90294E-19
9.32888E-06 1.41518E-19
1.07092E-05 1.07414E-19
1.21846E-05 8.29906E-20
1.37553E-05 6.51303E-20
1.54212E-05 5.18260E-20
1.71822E-05 4.17516E-20
1.90385E-05 3.40104E-20
2.09899E-05 2.79829E-20
2.30365E-05 2.32333E-20
2.51783E-05 1.94500E-20
2.74153E-05 1.64064E-20
2.97475E-05 1.39355E-20
3.21749E-05 1.19127E-20
3.46974E-05 1.02439E-20
3.73152E-05 8.85741E-21
4.00281E-05 7.69773E-21
4.28362E-05 6.72178E-21
4.57395E-05 5.89571E-21
4.87380E-05 5.19273E-21
5.18317E-05 4.59147E-21
5.50205E-05 4.07477E-21
5.83045E-05 3.62875E-21
6.16838E-05 3.24212E-21
6.51582E-05 2.90564E-21
6.87277E-05 2.61170E-21
7.23925E-05 2.35401E-21
7.61524E-05 2.12733E-21
9.21439E-05 1.45309E-21
1.09658E-04 1.02604E-21
1.28695E-04 7.44874E-22
1.49255E-04 5.53891E-22
1.71338E-04 4.20332E-22
1.94942E-04 3.24712E-22
2.20070E-04 2.54802E-22
2.46720E-04 2.02682E-22
2.74892E-04 1.63265E-22
3.04586E-04 1.32982E-22
3.35803E-04 1.09407E-22
3.68542E-04 9.08303E-23
4.02802E-04 7.60358E-23
4.38585E-04 6.41335E-23
4.75889E-04 5.44722E-23
5.14715E-04 4.65633E-23
5.55063E-04 4.00390E-23
5.96931E-04 3.46186E-23
6.40321E-04 3.00850E-23
6.85233E-04 2.62700E-23
7.31665E-04 2.30408E-23
7.79618E-04 2.02929E-23
8.29092E-04 1.79428E-23
8.80086E-04 1.59231E-23
9.32601E-04 1.41799E-23
9.86636E-04 1.26687E-23
1.04219E-03 1.13537E-23
1.09927E-03 1.02048E-23
1.15786E-03 9.19773E-24
1.21797E-03 8.31185E-24
1.27961E-03 7.53007E-24
1.34276E-03 6.83810E-24
1.40743E-03 6.22379E-24
1.47362E-03 5.67695E-24
1.54133E-03 5.18886E-24
1.61056E-03 4.75211E-24
1.68131E-03 4.36037E-24
1.75357E-03 4.00815E-24
1.82735E-03 3.69080E-24
1.90265E-03 3.40424E-24
1.97947E-03 3.14495E-24
2.05780E-03 2.90989E-24
2.13765E-03 2.69637E-24
2.21902E-03 2.50209E-24
2.30190E-03 2.32498E-24
2.38630E-03 2.16327E-24
2.47222E-03 2.01538E-24
2.55965E-03 1.87991E-24
2.64859E-03 1.75563E-24
2.73905E-03 1.64145E-24
2.83103E-03 1.53641E-24
2.92452E-03 1.43963E-24
3.01952E-03 1.35035E-24
3.11604E-03 1.26788E-24
3.21407E-03 1.19162E-24
3.31362E-03 1.12100E-24
3.41468E-03 1.05553E-24
3.51725E-03 9.94774E-25
3.62133E-03 9.38325E-25
3.72692E-03 8.85823E-25
3.83403E-03 8.36941E-25
3.94265E-03 7.91383E-25
4.05278E-03 7.48882E-25
4.16442E-03 7.09196E-25
4.27757E-03 6.72103E-25
4.39223E-03 6.37403E-25
4.50840E-03 6.04913E-25
4.62608E-03 5.74466E-25
4.74527E-03 5.45910E-25
4.86597E-03 5.19106E-25
4.98817E-03 4.93926E-25
5.11188E-03 4.70254E-25
5.23711E-03 4.47983E-25
5.36383E-03 4.27013E-25
5.49207E-03 4.07257E-25
5.62181E-03 3.88629E-25
5.75306E-03 3.71053E-25
5.88581E-03 3.54459E-25
6.02007E-03 3.38782E-25
6.15583E-03 3.23962E-25
6.29310E-03 3.09943E-25
6.43187E-03 2.96674E-25
6.57214E-03 2.84107E-25
6.71392E-03 2.72198E-25
6.85720E-03 2.60906E-25
7.00198E-03 2.50193E-25
7.14827E-03 2.40024E-25
7.29605E-03 2.30366E-25
7.44534E-03 2.21189E-25
7.59612E-03 2.12464E-25
7.97965E-03 1.92460E-25
8.37255E-03 1.74754E-25
8.77480E-03 1.59037E-25
9.18641E-03 1.45046E-25
9.60736E-03 1.32559E-25
1.00376E-02 1.21387E-25
1.04773E-02 1.11366E-25
1.09262E-02 1.02357E-25
1.13844E-02 9.42395E-26
1.18520E-02 8.69104E-26
1.23288E-02 8.02794E-26
1.28150E-02 7.42682E-26
1.33104E-02 6.88085E-26
1.38150E-02 6.38408E-26
1.43290E-02 5.93128E-26
1.48521E-02 5.51786E-26
1.53845E-02 5.13980E-26
1.59262E-02 4.79351E-26
1.64770E-02 4.47586E-26
1.70371E-02 4.18405E-26
1.76063E-02 3.91559E-26
1.81848E-02 3.66829E-26
1.87724E-02 3.44017E-26
1.93692E-02 3.22947E-26
1.99751E-02 3.03463E-26
2.05901E-02 2.85424E-26
2.12143E-02 2.68702E-26
2.18476E-02 2.53184E-26
2.24900E-02 2.38768E-26
2.31415E-02 2.25362E-26
2.38021E-02 2.12881E-26
2.44717E-02 2.01250E-26
2.51504E-02 1.90400E-26
2.58382E-02 1.80270E-26
2.65349E-02 1.70803E-26
2.72407E-02 1.61947E-26
2.79555E-02 1.53657E-26
2.86793E-02 1.45889E-26
2.94120E-02 1.38603E-26
3.01537E-02 1.31766E-26
3.09043E-02 1.25344E-26
3.16639E-02 1.19306E-26
3.24324E-02 1.13627E-26
3.32098E-02 1.08281E-26
3.39961E-02 1.03244E-26
3.47912E-02 9.84955E-27
3.55952E-02 9.40159E-27
3.64081E-02 8.97871E-27
3.72297E-02 8.57924E-27
3.80602E-02 8.20166E-27
3.88995E-02 7.84453E-27
3.97476E-02 7.50654E-27
4.06044E-02 7.18648E-27
4.14700E-02 6.88323E-27
4.23443E-02 6.59572E-27
4.32273E-02 6.32300E-27
4.41190E-02 6.06417E-27
4.50194E-02 5.81837E-27
4.59284E-02 5.58484E-27
4.68461E-02 5.36285E-27
4.87074E-02 4.95082E-27
5.06030E-02 4.57741E-27
5.25328E-02 4.23835E-27
5.44967E-02 3.92994E-27
5.64946E-02 3.64890E-27
5.85262E-02 3.39239E-27
6.05914E-02 3.15788E-27
6.26901E-02 2.94315E-27
6.48222E-02 2.74623E-27
6.69873E-02 2.56540E-27
6.91854E-02 2.39909E-27
7.14163E-02 2.24594E-27
7.36799E-02 2.10471E-27
7.59760E-02 1.97432E-27
7.83043E-02 1.85379E-27
8.06647E-02 1.74222E-27
8.30571E-02 1.63885E-27
8.54812E-02 1.54296E-27
8.79369E-02 1.45391E-27
9.04240E-02 1.37112E-27
9.29422E-02 1.29408E-27
9.54915E-02 1.22232E-27
9.80716E-02 1.15541E-27
1.00682E-01 1.09295E-27
1.03323E-01 1.03461E-27
1.05995E-01 9.80065E-28
1.08696E-01 9.29018E-28
1.11427E-01 8.81208E-28
1.14188E-01 8.36391E-28
1.16978E-01 7.94348E-28
1.19797E-01 7.54874E-28
1.22645E-01 7.17787E-28
1.25522E-01 6.82914E-28
1.28428E-01 6.50099E-28
1.31361E-01 6.19200E-28
1.34323E-01 5.90085E-28
1.37313E-01 5.62631E-28
1.40330E-01 5.36727E-28
1.43375E-01 5.12270E-28
1.46447E-01 4.89165E-28
1.49545E-01 4.67323E-28
1.52671E-01 4.46662E-28
1.55823E-01 4.27108E-28
1.59001E-01 4.08589E-28
1.62205E-01 3.91044E-28
1.65435E-01 3.74408E-28
1.68690E-01 3.58629E-28
1.71970E-01 3.43654E-28
1.75276E-01 3.29434E-28
1.78606E-01 3.15924E-28
1.81961E-01 3.03083E-28
1.85340E-01 2.90872E-28
1.88743E-01 2.79253E-28
1.92169E-01 2.68194E-28
1.95619E-01 2.57662E-28
1.99092E-01 2.47628E-28
2.02589E-01 2.38064E-28
2.06107E-01 2.28944E-28
2.09649E-01 2.20244E-28
2.13212E-01 2.11941E-28
2.16797E-01 2.04014E-28
2.20404E-01 1.96442E-28
2.24032E-01 1.89207E-28
2.27680E-01 1.82291E-28
2.31350E-01 1.75678E-28
2.35040E-01 1.69351E-28
2.38751E-01 1.63297E-28
2.42481E-01 1.57502E-28
2.46231E-01 1.51952E-28
2.50000E-01 1.46636E-28
2.53788E-01 1.41541E-28
2.57595E-01 1.36657E-28
2.61421E-01 1.31973E-28
2.65264E-01 1.27480E-28
2.69126E-01 1.23170E-28
2.73005E-01 1.19032E-28
2.76901E-01 1.15059E-28
2.80814E-01 1.11243E-28
2.84744E-01 1.07578E-28
2.88691E-01 1.04055E-28
2.92653E-01 1.00668E-28
2.96632E-01 9.74119E-29
3.00625E-01 9.42800E-29
3.04634E-01 9.12666E-29
3.08658E-01 8.83670E-29
3.12697E-01 8.55756E-29
3.16749E-01 8.28879E-29
3.20816E-01 8.02993E-29
3.24896E-01 7.78056E-29
3.28990E-01 7.54028E-29
3.33097E-01 7.30869E-29
3.37216E-01 7.08542E-29
3.41348E-01 6.87010E-29
3.45492E-01 6.66243E-29
3.49647E-01 6.46207E-29
3.53814E-01 6.26875E-29
3.57992E-01 6.08215E-29
3.62181E-01 5.90199E-29
3.66381E-01 5.72805E-29
3.70590E-01 5.56002E-29
3.74810E-01 5.39773E-29
3.79039E-01 5.24090E-29
3.83277E-01 5.08934E-29
3.87524E-01 4.94283E-29
3.91780E-01 4.80119E-29
3.96044E-01 4.66421E-29
4.00316E-01 4.53173E-29
4.04596E-01 4.40355E-29
4.08882E-01 4.27954E-29
4.13176E-01 4.15953E-29
4.17476E-01 4.04335E-29
4.21783E-01 3.93089E-29
4.26095E-01 3.82198E-29
4.30413E-01 3.71651E-29
4.34737E-01 3.61435E-29
4.39065E-01 3.51538E-29
4.43398E-01 3.41947E-29
4.47736E-01 3.32653E-29
4.52077E-01 3.23642E-29
4.56422E-01 3.14909E-29
4.60770E-01 3.06439E-29
4.65122E-01 2.98227E-29
4.69476E-01 2.90260E-29
4.73832E-01 2.82532E-29
4.78190E-01 2.75034E-29
4.82550E-01 2.67758E-29
4.86912E-01 2.60697E-29
4.91274E-01 2.53842E-29
4.95637E-01 2.47188E-29
5.00000E-01 2.40727E-29
5.04363E-01 2.34452E-29
5.08726E-01 2.28358E-29
5.13088E-01 2.22439E-29
5.17450E-01 2.16688E-29
5.21810E-01 2.11101E-29
5.26168E-01 2.05671E-29
5.30524E-01 2.00394E-29
5.34878E-01 1.95263E-29
5.39230E-01 1.90277E-29
5.43578E-01 1.85428E-29
5.47923E-01 1.80714E-29
5.52264E-01 1.76128E-29
5.56602E-01 1.71668E-29
5.60935E-01 1.67330E-29
5.65263E-01 1.63111E-29
5.69587E-01 1.59004E-29
5.73905E-01 1.55008E-29
5.78217E-01 1.51119E-29
5.82524E-01 1.47334E-29
5.86824E-01 1.43649E-29
5.91118E-01 1.40062E-29
5.95404E-01 1.36569E-29
5.99684E-01 1.33168E-29
6.03956E-01 1.29857E-29
6.08220E-01 1.26632E-29
6.12476E-01 1.23489E-29
6.16723E-01 1.20428E-29
6.20961E-01 1.17446E-29
6.25190E-01 1.14541E-29
6.29410E-01 1.11709E-29
6.33619E-01 1.08950E-29
6.37819E-01 1.06260E-29
6.42008E-01 1.03639E-29
6.46186E-01 1.01084E-29
6.50353E-01 9.85930E-30
6.54508E-01 9.61639E-30
6.58652E-01 9.37956E-30
6.62784E-01 9.14860E-30
6.66903E-01 8.92339E-30
6.71010E-01 8.70370E-30
6.75104E-01 8.48941E-30
6.79184E-01 8.28033E-30
6.83251E-01 8.07645E-30
6.87303E-01 7.87744E-30
6.91342E-01 7.68335E-30
6.95366E-01 7.49389E-30
6.99375E-01 7.30903E-30
7.03368E-01 7.12857E-30
7.07347E-01 6.95246E-30
7.11309E-01 6.78055E-30
7.15256E-01 6.61275E-30
7.19186E-01 6.44895E-30
7.23099E-01 6.28903E-30
7.26995E-01 6.13288E-30
7.30874E-01 5.98042E-30
7.34736E-01 5.83153E-30
7.38579E-01 5.68615E-30
7.42405E-01 5.54415E-30
7.46212E-01 5.40546E-30
7.50000E-01 5.27003E-30
7.53769E-01 5.13773E-30
7.57519E-01 5.00846E-30
7.61249E-01 4.88222E-30
7.64960E-01 4.75884E-30
7.68650E-01 4.63831E-30
7.72320E-01 4.52057E-30
7.75968E-01 4.40557E-30
7.79596E-01 4.29313E-30
7.83203E-01 4.18326E-30
7.86788E-01 4.07590E-30
7.90351E-01 3.97103E-30
7.93893E-01 3.86844E-30
7.97411E-01 3.76829E-30
8.00908E-01 3.67034E-30
8.04381E-01 3.57463E-30
8.07831E-01 3.48106E-30
8.11257E-01 3.38962E-30
8.14660E-01 3.30020E-30
8.18039E-01 3.21283E-30
8.21394E-01 3.12737E-30
8.24724E-01 3.04387E-30
8.28030E-01 2.96220E-30
8.31310E-01 2.88240E-30
8.34565E-01 2.80436E-30
8.37795E-01 2.72809E-30
8.40999E-01 2.65349E-30
8.44177E-01 2.58057E-30
8.47329E-01 2.50930E-30
8.50455E-01 2.43956E-30
8.53553E-01 2.37143E-30
8.56625E-01 2.30479E-30
8.59670E-01 2.23965E-30
8.62687E-01 2.17598E-30
8.65677E-01 2.11374E-30
8.68639E-01 2.05288E-30
8.71572E-01 1.99335E-30
8.74478E-01 1.93517E-30
8.77355E-01 1.87828E-30
8.80203E-01 1.82270E-30
8.83022E-01 1.76835E-30
8.85812E-01 1.71522E-30
8.88573E-01 1.66328E-30
8.91304E-01 1.61248E-30
8.94005E-01 1.56291E-30
8.96677E-01 1.51441E-30
8.99318E-01 1.46699E-30
9.01928E-01 1.42070E-30
9.04508E-01 1.37544E-30
9.07058E-01 1.33120E-30
9.09576E-01 1.28801E-30
9.12063E-01 1.24580E-30
9.14519E-01 1.20453E-30
9.16943E-01 1.16425E-30
9.19335E-01 1.12491E-30
9.21696E-01 1.08650E-30
9.24024E-01 1.04897E-30
9.26320E-01 1.01233E-30
9.28584E-01 9.76567E-31
9.30815E-01 9.41648E-31
9.33013E-01 9.07555E-31
9.35178E-01 8.74314E-31
9.37310E-01 8.41875E-31
9.39409E-01 8.10206E-31
9.41474E-01 7.79324E-31
9.43505E-01 7.49214E-31
9.45503E-01 7.19871E-31
9.47467E-01 6.91222E-31
9.49397E-01 6.63330E-31
9.51293E-01 6.36167E-31
9.53154E-01 6.09706E-31
9.54981E-01 5.83922E-31
9.56773E-01 5.58826E-31
9.58530E-01 5.34401E-31
9.60252E-01 5.10636E-31
9.61940E-01 4.87526E-31
9.63592E-01 4.65047E-31
9.65209E-01 4.43194E-31
9.66790E-01 4.21977E-31
9.68336E-01 4.01359E-31
9.69846E-01 3.81361E-31
9.71321E-01 3.61941E-31
9.72759E-01 3.43112E-31
9.74162E-01 3.24881E-31
9.75528E-01 3.07197E-31
9.76858E-01 2.90103E-31
9.78152E-01 2.73542E-31
9.79410E-01 2.57560E-31
9.80631E-01 2.42110E-31
9.81815E-01 2.27189E-31
9.82963E-01 2.12804E-31
9.84074E-01 1.98950E-31
9.85148E-01 1.85601E-31
9.86185E-01 1.72771E-31
9.87185E-01 1.60451E-31
9.88148E-01 1.48656E-31
9.89074E-01 1.37360E-31
9.89962E-01 1.26547E-31
9.90814E-01 1.16215E-31
9.91627E-01 1.06394E-31
9.92404E-01 9.70478E-32
9.93143E-01 8.81703E-32
9.93844E-01 7.97769E-32
9.94508E-01 7.18625E-32
9.95134E-01 6.44072E-32
9.95722E-01 5.74244E-32
9.96273E-01 5.08894E-32
9.96786E-01 4.48329E-32
9.97261E-01 3.92246E-32
9.97698E-01 3.40803E-32
9.98097E-01 2.93948E-32
9.98459E-01 2.51563E-32
9.98782E-01 2.13698E-32
9.99067E-01 1.80280E-32
9.99315E-01 1.51365E-32
9.99524E-01 1.26997E-32
9.99695E-01 1.06913E-32
9.99829E-01 9.14112E-33
9.99924E-01 8.02727E-33
9.99981E-01 7.36799E-33
1.00000E+00 7.16525E-33
