 #
 # Subroutine ELSEPA. Elastic scattering of electrons and positrons
 #                    by neutral atoms and positive ions
 #
 # Projectile: electron
 # Kinetic energy = 3.00000E+08 eV = 1.10248E+07 a.u.
 #
 # WARNING: High-energy factorization with free-atom DF screening.
 #          Absorption, polarization and exchange corrections are
 #          switched off.
 #          Phase shifts are calculated for the bare nucleus.
 #          Scattering amplitudes are not evaluated.
 #
 # Element:  H,  Z =   1,  atomic weight = 1.00790E+00 g/mol
 #
 # Nuclear model: Fermi distribution
 #                Average radius = 1.07281E-13 cm
 #                Skin thickness = 5.46000E-14 cm
 #
 # Number of electrons =  1
 #
 # Total elastic cross section = 1.08328E-20 cm**2 = 3.86847E-04 a0**2
 # 1st transport cross section = 2.79626E-29 cm**2 = 9.98562E-13 a0**2
 # 2nd transport cross section = 8.35892E-29 cm**2 = 2.98503E-12 a0**2
 #
 #
 # Differential cross section:                       MU=(1-COS(THETA))/2
 #
 #  THETA        MU          DCS          DCS        Sherman      error
 #  (deg)                 (cm**2/sr)   (a0**2/sr)    function
 #----------------------------------------------------------------------
0.00000E+00 9.68393E-12
7.61557E-13 9.54166E-12
1.18994E-12 9.46292E-12
1.71346E-12 9.36791E-12
2.33225E-12 9.25733E-12
3.04617E-12 9.13201E-12
3.85530E-12 8.99281E-12
4.75964E-12 8.84063E-12
5.75917E-12 8.67656E-12
6.85391E-12 8.50171E-12
8.04379E-12 8.31718E-12
9.32893E-12 8.12411E-12
1.07092E-11 7.92364E-12
1.21847E-11 7.71693E-12
1.37554E-11 7.50507E-12
1.54213E-11 7.28909E-12
1.71823E-11 7.06867E-12
1.90386E-11 6.83265E-12
2.09900E-11 6.60432E-12
2.30367E-11 6.38418E-12
2.51785E-11 6.17256E-12
2.74156E-11 5.95703E-12
2.97478E-11 5.72745E-12
3.21752E-11 5.50890E-12
3.46979E-11 5.30119E-12
3.73157E-11 5.10407E-12
4.00286E-11 4.89803E-12
4.28368E-11 4.69144E-12
4.57402E-11 4.49655E-12
4.87388E-11 4.31279E-12
5.18325E-11 4.13960E-12
5.50215E-11 3.95510E-12
5.83057E-11 3.77890E-12
6.16850E-11 3.61344E-12
6.51595E-11 3.45805E-12
6.87293E-11 3.30944E-12
7.23943E-11 3.15487E-12
7.61544E-11 3.01003E-12
1.18991E-10 1.88041E-12
1.71347E-10 1.17570E-12
2.33223E-10 7.47428E-13
3.04617E-10 4.86863E-13
3.85531E-10 3.19258E-13
4.75965E-10 2.16883E-13
5.75917E-10 1.52057E-13
6.85389E-10 1.09544E-13
8.04380E-10 8.07979E-14
9.32891E-10 6.08335E-14
1.07092E-09 4.66378E-14
1.21847E-09 3.63312E-14
1.37554E-09 2.87083E-14
1.54213E-09 2.29758E-14
1.71823E-09 1.86002E-14
1.90386E-09 1.52149E-14
2.09900E-09 1.25636E-14
2.30367E-09 1.04638E-14
2.51785E-09 8.78387E-15
2.74156E-09 7.42712E-15
2.97478E-09 6.32192E-15
3.21752E-09 5.41443E-15
3.46978E-09 4.66378E-15
3.73156E-09 4.03859E-15
4.00286E-09 3.51456E-15
4.28368E-09 3.07271E-15
4.57402E-09 2.69805E-15
4.87388E-09 2.37872E-15
5.18326E-09 2.10520E-15
5.50215E-09 1.86984E-15
5.83057E-09 1.66644E-15
6.16850E-09 1.48992E-15
6.51596E-09 1.33614E-15
6.87293E-09 1.20169E-15
7.23942E-09 1.08371E-15
7.61544E-09 9.79845E-16
1.18991E-08 4.02802E-16
1.71347E-08 1.94636E-16
2.33223E-08 1.05185E-16
3.04617E-08 6.17050E-17
3.85531E-08 3.85426E-17
4.75965E-08 2.52974E-17
5.75917E-08 1.72833E-17
6.85389E-08 1.22058E-17
8.04380E-08 8.86318E-18
9.32891E-08 6.59035E-18
1.07092E-07 5.00152E-18
1.21847E-07 3.86389E-18
1.37554E-07 3.03208E-18
1.54213E-07 2.41253E-18
1.71823E-07 1.94344E-18
1.90386E-07 1.58301E-18
2.09900E-07 1.30240E-18
2.30367E-07 1.08130E-18
2.51785E-07 9.05184E-19
2.74156E-07 7.63509E-19
2.97478E-07 6.48498E-19
3.21752E-07 5.54350E-19
3.46978E-07 4.76684E-19
3.73156E-07 4.12155E-19
4.00286E-07 3.58184E-19
4.28368E-07 3.12766E-19
4.57402E-07 2.74323E-19
4.87388E-07 2.41610E-19
5.18325E-07 2.13630E-19
5.50215E-07 1.89586E-19
5.83057E-07 1.68832E-19
6.16850E-07 1.50841E-19
6.51596E-07 1.35184E-19
6.87293E-07 1.21507E-19
7.23942E-07 1.09517E-19
7.61543E-07 9.89694E-20
1.18991E-06 4.05395E-20
1.71347E-06 1.95508E-20
2.33223E-06 1.05532E-20
3.04617E-06 6.18619E-21
3.85531E-06 3.86205E-21
4.75964E-06 2.53391E-21
5.75916E-06 1.73071E-21
6.85388E-06 1.22201E-21
8.04378E-06 8.87215E-22
9.32888E-06 6.59619E-22
1.07092E-05 5.00545E-22
1.21846E-05 3.86662E-22
1.37553E-05 3.03402E-22
1.54212E-05 2.41394E-22
1.71822E-05 1.94449E-22
1.90385E-05 1.58381E-22
2.09899E-05 1.30301E-22
2.30365E-05 1.08178E-22
2.51783E-05 9.05566E-23
2.74153E-05 7.63818E-23
2.97475E-05 6.48750E-23
3.21749E-05 5.54558E-23
3.46974E-05 4.76857E-23
3.73152E-05 4.12301E-23
4.00281E-05 3.58309E-23
4.28362E-05 3.12873E-23
4.57395E-05 2.74416E-23
4.87380E-05 2.41690E-23
5.18317E-05 2.13701E-23
5.50205E-05 1.89648E-23
5.83045E-05 1.68887E-23
6.16838E-05 1.50890E-23
6.51582E-05 1.35228E-23
6.87277E-05 1.21547E-23
7.23925E-05 1.09553E-23
7.61524E-05 9.90021E-24
9.21439E-05 6.76218E-24
1.09658E-04 4.77470E-24
1.28695E-04 3.45962E-24
1.49255E-04 2.57744E-24
1.71338E-04 1.95592E-24
1.94942E-04 1.51095E-24
2.20070E-04 1.18564E-24
2.46720E-04 9.39672E-25
2.74892E-04 7.56607E-25
3.04586E-04 6.15996E-25
3.35803E-04 5.06554E-25
3.68542E-04 4.20340E-25
4.02802E-04 3.51696E-25
4.38585E-04 2.96485E-25
4.75889E-04 2.51682E-25
5.14715E-04 2.15016E-25
5.55063E-04 1.84778E-25
5.96931E-04 1.59664E-25
6.40321E-04 1.38665E-25
6.85233E-04 1.21001E-25
7.31665E-04 1.06054E-25
7.79618E-04 9.33400E-26
8.29092E-04 8.24698E-26
8.80086E-04 7.31318E-26
9.32601E-04 6.50749E-26
9.86636E-04 5.80934E-26
1.04219E-03 5.20203E-26
1.09927E-03 4.67173E-26
1.15786E-03 4.20703E-26
1.21797E-03 3.79846E-26
1.27961E-03 3.43806E-26
1.34276E-03 3.11921E-26
1.40743E-03 2.83628E-26
1.47362E-03 2.58455E-26
1.54133E-03 2.35998E-26
1.61056E-03 2.15914E-26
1.68131E-03 1.97908E-26
1.75357E-03 1.81728E-26
1.82735E-03 1.67157E-26
1.90265E-03 1.54008E-26
1.97947E-03 1.42117E-26
2.05780E-03 1.31343E-26
2.13765E-03 1.21562E-26
2.21902E-03 1.12668E-26
2.30190E-03 1.04565E-26
2.38630E-03 9.71717E-27
2.47222E-03 9.04141E-27
2.55965E-03 8.42281E-27
2.64859E-03 7.85570E-27
2.73905E-03 7.33502E-27
2.83103E-03 6.85633E-27
2.92452E-03 6.41561E-27
3.01952E-03 6.00934E-27
3.11604E-03 5.63435E-27
3.21407E-03 5.28780E-27
3.31362E-03 4.96716E-27
3.41468E-03 4.67013E-27
3.51725E-03 4.39469E-27
3.62133E-03 4.13897E-27
3.72692E-03 3.90133E-27
3.83403E-03 3.68025E-27
3.94265E-03 3.47437E-27
4.05278E-03 3.28247E-27
4.16442E-03 3.10343E-27
4.27757E-03 2.93624E-27
4.39223E-03 2.77996E-27
4.50840E-03 2.63377E-27
4.62608E-03 2.49689E-27
4.74527E-03 2.36863E-27
4.86597E-03 2.24835E-27
4.98817E-03 2.13546E-27
5.11188E-03 2.02943E-27
5.23711E-03 1.92978E-27
5.36383E-03 1.83604E-27
5.49207E-03 1.74780E-27
5.62181E-03 1.66469E-27
5.75306E-03 1.58636E-27
5.88581E-03 1.51247E-27
6.02007E-03 1.44274E-27
6.15583E-03 1.37690E-27
6.29310E-03 1.31467E-27
6.43187E-03 1.25584E-27
6.57214E-03 1.20018E-27
6.71392E-03 1.14749E-27
6.85720E-03 1.09759E-27
7.00198E-03 1.05030E-27
7.14827E-03 1.00546E-27
7.29605E-03 9.62923E-28
7.44534E-03 9.22550E-28
7.59612E-03 8.84212E-28
7.97965E-03 7.96495E-28
8.37255E-03 7.19091E-28
8.77480E-03 6.50595E-28
9.18641E-03 5.89818E-28
9.60736E-03 5.35753E-28
1.00376E-02 4.87540E-28
1.04773E-02 4.44445E-28
1.09262E-02 4.05840E-28
1.13844E-02 3.71183E-28
1.18520E-02 3.40005E-28
1.23288E-02 3.11904E-28
1.28150E-02 2.86528E-28
1.33104E-02 2.63571E-28
1.38150E-02 2.42768E-28
1.43290E-02 2.23883E-28
1.48521E-02 2.06714E-28
1.53845E-02 1.91081E-28
1.59262E-02 1.76824E-28
1.64770E-02 1.63805E-28
1.70371E-02 1.51899E-28
1.76063E-02 1.40997E-28
1.81848E-02 1.31002E-28
1.87724E-02 1.21826E-28
1.93692E-02 1.13393E-28
1.99751E-02 1.05633E-28
2.05901E-02 9.84854E-29
2.12143E-02 9.18942E-29
2.18476E-02 8.58098E-29
2.24900E-02 8.01877E-29
2.31415E-02 7.49877E-29
2.38021E-02 7.01735E-29
2.44717E-02 6.57124E-29
2.51504E-02 6.15750E-29
2.58382E-02 5.77343E-29
2.65349E-02 5.41663E-29
2.72407E-02 5.08487E-29
2.79555E-02 4.77618E-29
2.86793E-02 4.48871E-29
2.94120E-02 4.22083E-29
3.01537E-02 3.97100E-29
3.09043E-02 3.73786E-29
3.16639E-02 3.52014E-29
3.24324E-02 3.31669E-29
3.32098E-02 3.12646E-29
3.39961E-02 2.94846E-29
3.47912E-02 2.78183E-29
3.55952E-02 2.62572E-29
3.64081E-02 2.47941E-29
3.72297E-02 2.34220E-29
3.80602E-02 2.21345E-29
3.88995E-02 2.09258E-29
3.97476E-02 1.97905E-29
4.06044E-02 1.87235E-29
4.14700E-02 1.77203E-29
4.23443E-02 1.67767E-29
4.32273E-02 1.58886E-29
4.41190E-02 1.50524E-29
4.50194E-02 1.42648E-29
4.59284E-02 1.35226E-29
4.68461E-02 1.28228E-29
4.87074E-02 1.15403E-29
5.06030E-02 1.03976E-29
5.25328E-02 9.37816E-30
5.44967E-02 8.46727E-30
5.64946E-02 7.65229E-30
5.85262E-02 6.92216E-30
6.05914E-02 6.26724E-30
6.26901E-02 5.67909E-30
6.48222E-02 5.15030E-30
6.69873E-02 4.67437E-30
6.91854E-02 4.24557E-30
7.14163E-02 3.85884E-30
7.36799E-02 3.50973E-30
7.59760E-02 3.19429E-30
7.83043E-02 2.90902E-30
8.06647E-02 2.65083E-30
8.30571E-02 2.41695E-30
8.54812E-02 2.20493E-30
8.79369E-02 2.01259E-30
9.04240E-02 1.83797E-30
9.29422E-02 1.67934E-30
9.54915E-02 1.53514E-30
9.80716E-02 1.40396E-30
1.00682E-01 1.28457E-30
1.03323E-01 1.17584E-30
1.05995E-01 1.07675E-30
1.08696E-01 9.86416E-31
1.11427E-01 9.04010E-31
1.14188E-01 8.28798E-31
1.16978E-01 7.60121E-31
1.19797E-01 6.97381E-31
1.22645E-01 6.40040E-31
1.25522E-01 5.87608E-31
1.28428E-01 5.39643E-31
1.31361E-01 4.95749E-31
1.34323E-01 4.55565E-31
1.37313E-01 4.18760E-31
1.40330E-01 3.85041E-31
1.43375E-01 3.54134E-31
1.46447E-01 3.25798E-31
1.49545E-01 2.99810E-31
1.52671E-01 2.75964E-31
1.55823E-01 2.54080E-31
1.59001E-01 2.33988E-31
1.62205E-01 2.15538E-31
1.65435E-01 1.98589E-31
1.68690E-01 1.83014E-31
1.71970E-01 1.68700E-31
1.75276E-01 1.55539E-31
1.78606E-01 1.43435E-31
1.81961E-01 1.32302E-31
1.85340E-01 1.22057E-31
1.88743E-01 1.12629E-31
1.92169E-01 1.03950E-31
1.95619E-01 9.59586E-32
1.99092E-01 8.85981E-32
2.02589E-01 8.18179E-32
2.06107E-01 7.55705E-32
2.09649E-01 6.98130E-32
2.13212E-01 6.45056E-32
2.16797E-01 5.96123E-32
2.20404E-01 5.50995E-32
2.24032E-01 5.09377E-32
2.27680E-01 4.70977E-32
2.31350E-01 4.35547E-32
2.35040E-01 4.02849E-32
2.38751E-01 3.72665E-32
2.42481E-01 3.44800E-32
2.46231E-01 3.19067E-32
2.50000E-01 2.95301E-32
2.53788E-01 2.73348E-32
2.57595E-01 2.53066E-32
2.61421E-01 2.34323E-32
2.65264E-01 2.17004E-32
2.69126E-01 2.00993E-32
2.73005E-01 1.86192E-32
2.76901E-01 1.72507E-32
2.80814E-01 1.59850E-32
2.84744E-01 1.48143E-32
2.88691E-01 1.37314E-32
2.92653E-01 1.27293E-32
2.96632E-01 1.18020E-32
3.00625E-01 1.09439E-32
3.04634E-01 1.01494E-32
3.08658E-01 9.41418E-33
3.12697E-01 8.73323E-33
3.16749E-01 8.10267E-33
3.20816E-01 7.51868E-33
3.24896E-01 6.97769E-33
3.28990E-01 6.47654E-33
3.33097E-01 6.01225E-33
3.37216E-01 5.58198E-33
3.41348E-01 5.18307E-33
3.45492E-01 4.81337E-33
3.49647E-01 4.47058E-33
3.53814E-01 4.15286E-33
3.57992E-01 3.85817E-33
3.62181E-01 3.58483E-33
3.66381E-01 3.33138E-33
3.70590E-01 3.09612E-33
3.74810E-01 2.87798E-33
3.79039E-01 2.67549E-33
3.83277E-01 2.48757E-33
3.87524E-01 2.31314E-33
3.91780E-01 2.15127E-33
3.96044E-01 2.00094E-33
4.00316E-01 1.86137E-33
4.04596E-01 1.73171E-33
4.08882E-01 1.61136E-33
4.13176E-01 1.49954E-33
4.17476E-01 1.39563E-33
4.21783E-01 1.29915E-33
4.26095E-01 1.20942E-33
4.30413E-01 1.12609E-33
4.34737E-01 1.04859E-33
4.39065E-01 9.76608E-34
4.43398E-01 9.09649E-34
4.47736E-01 8.47403E-34
4.52077E-01 7.89489E-34
4.56422E-01 7.35674E-34
4.60770E-01 6.85576E-34
4.65122E-01 6.39004E-34
4.69476E-01 5.95643E-34
4.73832E-01 5.55286E-34
4.78190E-01 5.17757E-34
4.82550E-01 4.82824E-34
4.86912E-01 4.50301E-34
4.91274E-01 4.20003E-34
4.95637E-01 3.91829E-34
5.00000E-01 3.65584E-34
5.04363E-01 3.41132E-34
5.08726E-01 3.18349E-34
5.13088E-01 2.97159E-34
5.17450E-01 2.77385E-34
5.21810E-01 2.58980E-34
5.26168E-01 2.41823E-34
5.30524E-01 2.25823E-34
5.34878E-01 2.10896E-34
5.39230E-01 1.97012E-34
5.43578E-01 1.84049E-34
5.47923E-01 1.71961E-34
5.52264E-01 1.60695E-34
5.56602E-01 1.50177E-34
5.60935E-01 1.40375E-34
5.65263E-01 1.31245E-34
5.69587E-01 1.22695E-34
5.73905E-01 1.14741E-34
5.78217E-01 1.07300E-34
5.82524E-01 1.00363E-34
5.86824E-01 9.38837E-35
5.91118E-01 8.78412E-35
5.95404E-01 8.21905E-35
5.99684E-01 7.69172E-35
6.03956E-01 7.19935E-35
6.08220E-01 6.74041E-35
6.12476E-01 6.30977E-35
6.16723E-01 5.90758E-35
6.20961E-01 5.53273E-35
6.25190E-01 5.18266E-35
6.29410E-01 4.85418E-35
6.33619E-01 4.54776E-35
6.37819E-01 4.26075E-35
6.42008E-01 3.99304E-35
6.46186E-01 3.74186E-35
6.50353E-01 3.50823E-35
6.54508E-01 3.28872E-35
6.58652E-01 3.08366E-35
6.62784E-01 2.89173E-35
6.66903E-01 2.71247E-35
6.71010E-01 2.54428E-35
6.75104E-01 2.38692E-35
6.79184E-01 2.23910E-35
6.83251E-01 2.10170E-35
6.87303E-01 1.97200E-35
6.91342E-01 1.85158E-35
6.95366E-01 1.73807E-35
6.99375E-01 1.63201E-35
7.03368E-01 1.53227E-35
7.07347E-01 1.43898E-35
7.11309E-01 1.35150E-35
7.15256E-01 1.26959E-35
7.19186E-01 1.19288E-35
7.23099E-01 1.12098E-35
7.26995E-01 1.05353E-35
7.30874E-01 9.90324E-36
7.34736E-01 9.30942E-36
7.38579E-01 8.75345E-36
7.42405E-01 8.23113E-36
7.46212E-01 7.73998E-36
7.50000E-01 7.28140E-36
7.53769E-01 6.85067E-36
7.57519E-01 6.44382E-36
7.61249E-01 6.06431E-36
7.64960E-01 5.70472E-36
7.68650E-01 5.36820E-36
7.72320E-01 5.05341E-36
7.75968E-01 4.76045E-36
7.79596E-01 4.48053E-36
7.83203E-01 4.21842E-36
7.86788E-01 3.97184E-36
7.90351E-01 3.74375E-36
7.93893E-01 3.52231E-36
7.97411E-01 3.32204E-36
8.00908E-01 3.12926E-36
8.04381E-01 2.94986E-36
8.07831E-01 2.78005E-36
8.11257E-01 2.62146E-36
8.14660E-01 2.47055E-36
8.18039E-01 2.33048E-36
8.21394E-01 2.19602E-36
8.24724E-01 2.07133E-36
8.28030E-01 1.95250E-36
8.31310E-01 1.84213E-36
8.34565E-01 1.73722E-36
8.37795E-01 1.63963E-36
8.40999E-01 1.54625E-36
8.44177E-01 1.45915E-36
8.47329E-01 1.37795E-36
8.50455E-01 1.29847E-36
8.53553E-01 1.22620E-36
8.56625E-01 1.15646E-36
8.59670E-01 1.09120E-36
8.62687E-01 1.03052E-36
8.65677E-01 9.74044E-37
8.68639E-01 9.20163E-37
8.71572E-01 8.67851E-37
8.74478E-01 8.19658E-37
8.77355E-01 7.73200E-37
8.80203E-01 7.31153E-37
8.83022E-01 6.90209E-37
8.85812E-01 6.51954E-37
8.88573E-01 6.15687E-37
8.91304E-01 5.79873E-37
8.94005E-01 5.49650E-37
8.96677E-01 5.18782E-37
8.99318E-01 4.89030E-37
9.01928E-01 4.62773E-37
9.04508E-01 4.36901E-37
9.07058E-01 4.11940E-37
9.09576E-01 3.89876E-37
9.12063E-01 3.68301E-37
9.14519E-01 3.46654E-37
9.16943E-01 3.27511E-37
9.19335E-01 3.09301E-37
9.21696E-01 2.92487E-37
9.24024E-01 2.75808E-37
9.26320E-01 2.60341E-37
9.28584E-01 2.45969E-37
9.30815E-01 2.31988E-37
9.33013E-01 2.18391E-37
9.35178E-01 2.06432E-37
9.37310E-01 1.95062E-37
9.39409E-01 1.83468E-37
9.41474E-01 1.72739E-37
9.43505E-01 1.62787E-37
9.45503E-01 1.53879E-37
9.47467E-01 1.43931E-37
9.49397E-01 1.35438E-37
9.51293E-01 1.27745E-37
9.53154E-01 1.20602E-37
9.54981E-01 1.13223E-37
9.56773E-01 1.06512E-37
9.58530E-01 1.00114E-37
9.60252E-01 9.40841E-38
9.61940E-01 8.84831E-38
9.63592E-01 8.30199E-38
9.65209E-01 7.75760E-38
9.66790E-01 7.29050E-38
9.68336E-01 6.80706E-38
9.69846E-01 6.39587E-38
9.71321E-01 5.96583E-38
9.72759E-01 5.54825E-38
9.74162E-01 5.21706E-38
9.75528E-01 4.83432E-38
9.76858E-01 4.52908E-38
9.78152E-01 4.18328E-38
9.79410E-01 3.92507E-38
9.80631E-01 3.65862E-38
9.81815E-01 3.36959E-38
9.82963E-01 3.11575E-38
9.84074E-01 2.88684E-38
9.85148E-01 2.62846E-38
9.86185E-01 2.40223E-38
9.87185E-01 2.17220E-38
9.88148E-01 2.01288E-38
9.89074E-01 1.85946E-38
9.89962E-01 1.70557E-38
9.90814E-01 1.50179E-38
9.91627E-01 1.38556E-38
9.92404E-01 1.26242E-38
9.93143E-01 1.10741E-38
9.93844E-01 9.86003E-39
9.94508E-01 8.87587E-39
9.95134E-01 7.73199E-39
9.95722E-01 6.88891E-39
9.96273E-01 5.74602E-39
9.96786E-01 4.90928E-39
9.97261E-01 4.07926E-39
9.97698E-01 3.30908E-39
9.98097E-01 2.93613E-39
9.98459E-01 2.33705E-39
9.98782E-01 1.95674E-39
9.99067E-01 1.38618E-39
9.99315E-01 1.06045E-39
9.99524E-01 8.77531E-40
9.99695E-01 4.66656E-40
9.99829E-01 3.21647E-40
9.99924E-01 8.22421E-41
9.99981E-01 1.00000E-45
1.00000E+00 1.00000E-45
