 #
 # Subroutine ELSEPA. Elastic scattering of electrons and positrons
 #                    by neutral atoms and positive ions
 #
 # Projectile: electron
 # Kinetic energy = 2.50000E+06 eV = 9.18733E+04 a.u.
 #
 # WARNING: High-energy factorization with free-atom DF screening.
 #          Absorption, polarization and exchange corrections are
 #          switched off.
 #          Phase shifts are calculated for the bare nucleus.
 #          Scattering amplitudes are not evaluated.
 #
 # Element:  H,  Z =   1,  atomic weight = 1.00790E+00 g/mol
 #
 # Nuclear model: Fermi distribution
 #                Average radius = 1.07281E-13 cm
 #                Skin thickness = 5.46000E-14 cm
 #
 # Number of electrons =  1
 #
 # Total elastic cross section = 1.11541E-20 cm**2 = 3.98321E-04 a0**2
 # 1st transport cross section = 1.90145E-25 cm**2 = 6.79019E-09 a0**2
 # 2nd transport cross section = 5.46761E-25 cm**2 = 1.95252E-08 a0**2
 #
 #
 # Differential cross section:                       MU=(1-COS(THETA))/2
 #
 #  THETA        MU          DCS          DCS        Sherman      error
 #  (deg)                 (cm**2/sr)   (a0**2/sr)    function
 #----------------------------------------------------------------------
0.00000E+00 9.72192E-16
7.61557E-13 9.72191E-16
1.18994E-12 9.72190E-16
1.71346E-12 9.72189E-16
2.33225E-12 9.72188E-16
3.04617E-12 9.72187E-16
3.85530E-12 9.72185E-16
4.75964E-12 9.72183E-16
5.75917E-12 9.72182E-16
6.85391E-12 9.72179E-16
8.04379E-12 9.72177E-16
9.32893E-12 9.72175E-16
1.07092E-11 9.72172E-16
1.21847E-11 9.72170E-16
1.37554E-11 9.72167E-16
1.54213E-11 9.72164E-16
1.71823E-11 9.72160E-16
1.90386E-11 9.72157E-16
2.09900E-11 9.72153E-16
2.30367E-11 9.72150E-16
2.51785E-11 9.72146E-16
2.74156E-11 9.72141E-16
2.97478E-11 9.72137E-16
3.21752E-11 9.72133E-16
3.46979E-11 9.72128E-16
3.73157E-11 9.72123E-16
4.00286E-11 9.72118E-16
4.28368E-11 9.72113E-16
4.57402E-11 9.72108E-16
4.87388E-11 9.72102E-16
5.18325E-11 9.72096E-16
5.50215E-11 9.72090E-16
5.83057E-11 9.72084E-16
6.16850E-11 9.72078E-16
6.51595E-11 9.72072E-16
6.87293E-11 9.72065E-16
7.23943E-11 9.72058E-16
7.61544E-11 9.72051E-16
1.18991E-10 9.71972E-16
1.71347E-10 9.71876E-16
2.33223E-10 9.71761E-16
3.04617E-10 9.71630E-16
3.85531E-10 9.71480E-16
4.75965E-10 9.71313E-16
5.75917E-10 9.71129E-16
6.85389E-10 9.70927E-16
8.04380E-10 9.70708E-16
9.32891E-10 9.70471E-16
1.07092E-09 9.70217E-16
1.21847E-09 9.69945E-16
1.37554E-09 9.69656E-16
1.54213E-09 9.69349E-16
1.71823E-09 9.69025E-16
1.90386E-09 9.68684E-16
2.09900E-09 9.68325E-16
2.30367E-09 9.67949E-16
2.51785E-09 9.67556E-16
2.74156E-09 9.67147E-16
2.97478E-09 9.66718E-16
3.21752E-09 9.66273E-16
3.46978E-09 9.65811E-16
3.73156E-09 9.65333E-16
4.00286E-09 9.64837E-16
4.28368E-09 9.64324E-16
4.57402E-09 9.63793E-16
4.87388E-09 9.63246E-16
5.18326E-09 9.62683E-16
5.50215E-09 9.62102E-16
5.83057E-09 9.61504E-16
6.16850E-09 9.60889E-16
6.51596E-09 9.60259E-16
6.87293E-09 9.59612E-16
7.23942E-09 9.58947E-16
7.61544E-09 9.58265E-16
1.18991E-08 9.50552E-16
1.71347E-08 9.41243E-16
2.33223E-08 9.30404E-16
3.04617E-08 9.18113E-16
3.85531E-08 9.04455E-16
4.75965E-08 8.89524E-16
5.75917E-08 8.73418E-16
6.85389E-08 8.56237E-16
8.04380E-08 8.38085E-16
9.32891E-08 8.19078E-16
1.07092E-07 7.99326E-16
1.21847E-07 7.78940E-16
1.37554E-07 7.58027E-16
1.54213E-07 7.36695E-16
1.71823E-07 7.15045E-16
1.90386E-07 6.91840E-16
2.09900E-07 6.69004E-16
2.30367E-07 6.46958E-16
2.51785E-07 6.25739E-16
2.74156E-07 6.05222E-16
2.97478E-07 5.82124E-16
3.21752E-07 5.60110E-16
3.46978E-07 5.39165E-16
3.73156E-07 5.19264E-16
4.00286E-07 4.99597E-16
4.28368E-07 4.78674E-16
4.57402E-07 4.58916E-16
4.87388E-07 4.40269E-16
5.18325E-07 4.22680E-16
5.50215E-07 4.04976E-16
5.83057E-07 3.87027E-16
6.16850E-07 3.70158E-16
6.51596E-07 3.54304E-16
6.87293E-07 3.39402E-16
7.23942E-07 3.24214E-16
7.61543E-07 3.09385E-16
1.18991E-06 1.94498E-16
1.71347E-06 1.22221E-16
2.33223E-06 7.80017E-17
3.04617E-06 5.09580E-17
3.85531E-06 3.35602E-17
4.75964E-06 2.28173E-17
5.75916E-06 1.60074E-17
6.85388E-06 1.15376E-17
8.04378E-06 8.51324E-18
9.32888E-06 6.41172E-18
1.07092E-05 4.91679E-18
1.21846E-05 3.83105E-18
1.37553E-05 3.02777E-18
1.54212E-05 2.42355E-18
1.71822E-05 1.96226E-18
1.90385E-05 1.60530E-18
2.09899E-05 1.32570E-18
2.30365E-05 1.10423E-18
2.51783E-05 9.27018E-19
2.74153E-05 7.83885E-19
2.97475E-05 6.67279E-19
3.21749E-05 5.71525E-19
3.46974E-05 4.92314E-19
3.73152E-05 4.26338E-19
4.00281E-05 3.71034E-19
4.28362E-05 3.24399E-19
4.57395E-05 2.84856E-19
4.87380E-05 2.51149E-19
5.18317E-05 2.22278E-19
5.50205E-05 1.97433E-19
5.83045E-05 1.75960E-19
6.16838E-05 1.57326E-19
6.51582E-05 1.41092E-19
6.87277E-05 1.26896E-19
7.23925E-05 1.14440E-19
7.61524E-05 1.03474E-19
9.21439E-05 7.08033E-20
1.09658E-04 5.00616E-20
1.28695E-04 3.63814E-20
1.49255E-04 2.70753E-20
1.71338E-04 2.05604E-20
1.94942E-04 1.58918E-20
2.20070E-04 1.24760E-20
2.46720E-04 9.92797E-21
2.74892E-04 7.99979E-21
3.04586E-04 6.51778E-21
3.35803E-04 5.36356E-21
3.68542E-04 4.45380E-21
4.02802E-04 3.72904E-21
4.38585E-04 3.14581E-21
4.75889E-04 2.67229E-21
5.14715E-04 2.28459E-21
5.55063E-04 1.96470E-21
5.96931E-04 1.69890E-21
6.40321E-04 1.47654E-21
6.85233E-04 1.28941E-21
7.31665E-04 1.13100E-21
7.79618E-04 9.96187E-22
8.29092E-04 8.80873E-22
8.80086E-04 7.81767E-22
9.32601E-04 6.96218E-22
9.86636E-04 6.22053E-22
1.04219E-03 5.57507E-22
1.09927E-03 5.01118E-22
1.15786E-03 4.51681E-22
1.21797E-03 4.08193E-22
1.27961E-03 3.69814E-22
1.34276E-03 3.35841E-22
1.40743E-03 3.05681E-22
1.47362E-03 2.78831E-22
1.54133E-03 2.54866E-22
1.61056E-03 2.33420E-22
1.68131E-03 2.14183E-22
1.75357E-03 1.96888E-22
1.82735E-03 1.81303E-22
1.90265E-03 1.67230E-22
1.97947E-03 1.54497E-22
2.05780E-03 1.42952E-22
2.13765E-03 1.32466E-22
2.21902E-03 1.22924E-22
2.30190E-03 1.14225E-22
2.38630E-03 1.06283E-22
2.47222E-03 9.90185E-23
2.55965E-03 9.23643E-23
2.64859E-03 8.62599E-23
2.73905E-03 8.06513E-23
2.83103E-03 7.54913E-23
2.92452E-03 7.07373E-23
3.01952E-03 6.63517E-23
3.11604E-03 6.23007E-23
3.21407E-03 5.85540E-23
3.31362E-03 5.50849E-23
3.41468E-03 5.18688E-23
3.51725E-03 4.88840E-23
3.62133E-03 4.61108E-23
3.72692E-03 4.35314E-23
3.83403E-03 4.11299E-23
3.94265E-03 3.88916E-23
4.05278E-03 3.68036E-23
4.16442E-03 3.48538E-23
4.27757E-03 3.30313E-23
4.39223E-03 3.13265E-23
4.50840E-03 2.97301E-23
4.62608E-03 2.82342E-23
4.74527E-03 2.68311E-23
4.86597E-03 2.55141E-23
4.98817E-03 2.42769E-23
5.11188E-03 2.31137E-23
5.23711E-03 2.20194E-23
5.36383E-03 2.09890E-23
5.49207E-03 2.00182E-23
5.62181E-03 1.91029E-23
5.75306E-03 1.82393E-23
5.88581E-03 1.74239E-23
6.02007E-03 1.66535E-23
6.15583E-03 1.59253E-23
6.29310E-03 1.52363E-23
6.43187E-03 1.45843E-23
6.57214E-03 1.39667E-23
6.71392E-03 1.33815E-23
6.85720E-03 1.28266E-23
7.00198E-03 1.23001E-23
7.14827E-03 1.18004E-23
7.29605E-03 1.13257E-23
7.44534E-03 1.08747E-23
7.59612E-03 1.04459E-23
7.97965E-03 9.46281E-24
8.37255E-03 8.59262E-24
8.77480E-03 7.82014E-24
9.18641E-03 7.13250E-24
9.60736E-03 6.51876E-24
1.00376E-02 5.96960E-24
1.04773E-02 5.47702E-24
1.09262E-02 5.03419E-24
1.13844E-02 4.63518E-24
1.18520E-02 4.27491E-24
1.23288E-02 3.94894E-24
1.28150E-02 3.65342E-24
1.33104E-02 3.38502E-24
1.38150E-02 3.14079E-24
1.43290E-02 2.91818E-24
1.48521E-02 2.71492E-24
1.53845E-02 2.52904E-24
1.59262E-02 2.35877E-24
1.64770E-02 2.20259E-24
1.70371E-02 2.05910E-24
1.76063E-02 1.92709E-24
1.81848E-02 1.80548E-24
1.87724E-02 1.69330E-24
1.93692E-02 1.58969E-24
1.99751E-02 1.49387E-24
2.05901E-02 1.40515E-24
2.12143E-02 1.32291E-24
2.18476E-02 1.24659E-24
2.24900E-02 1.17569E-24
2.31415E-02 1.10974E-24
2.38021E-02 1.04835E-24
2.44717E-02 9.91139E-25
2.51504E-02 9.37769E-25
2.58382E-02 8.87936E-25
2.65349E-02 8.41362E-25
2.72407E-02 7.97797E-25
2.79555E-02 7.57008E-25
2.86793E-02 7.18788E-25
2.94120E-02 6.82943E-25
3.01537E-02 6.49300E-25
3.09043E-02 6.17699E-25
3.16639E-02 5.87992E-25
3.24324E-02 5.60045E-25
3.32098E-02 5.33734E-25
3.39961E-02 5.08946E-25
3.47912E-02 4.85576E-25
3.55952E-02 4.63529E-25
3.64081E-02 4.42715E-25
3.72297E-02 4.23053E-25
3.80602E-02 4.04467E-25
3.88995E-02 3.86887E-25
3.97476E-02 3.70249E-25
4.06044E-02 3.54492E-25
4.14700E-02 3.39562E-25
4.23443E-02 3.25407E-25
4.32273E-02 3.11980E-25
4.41190E-02 2.99235E-25
4.50194E-02 2.87132E-25
4.59284E-02 2.75632E-25
4.68461E-02 2.64700E-25
4.87074E-02 2.44409E-25
5.06030E-02 2.26017E-25
5.25328E-02 2.09315E-25
5.44967E-02 1.94122E-25
5.64946E-02 1.80276E-25
5.85262E-02 1.67636E-25
6.05914E-02 1.56080E-25
6.26901E-02 1.45498E-25
6.48222E-02 1.35792E-25
6.69873E-02 1.26878E-25
6.91854E-02 1.18679E-25
7.14163E-02 1.11128E-25
7.36799E-02 1.04164E-25
7.59760E-02 9.77331E-26
7.83043E-02 9.17879E-26
8.06647E-02 8.62847E-26
8.30571E-02 8.11848E-26
8.54812E-02 7.64533E-26
8.79369E-02 7.20589E-26
9.04240E-02 6.79730E-26
9.29422E-02 6.41703E-26
9.54915E-02 6.06275E-26
9.80716E-02 5.73237E-26
1.00682E-01 5.42397E-26
1.03323E-01 5.13584E-26
1.05995E-01 4.86640E-26
1.08696E-01 4.61422E-26
1.11427E-01 4.37800E-26
1.14188E-01 4.15653E-26
1.16978E-01 3.94873E-26
1.19797E-01 3.75361E-26
1.22645E-01 3.57025E-26
1.25522E-01 3.39781E-26
1.28428E-01 3.23553E-26
1.31361E-01 3.08269E-26
1.34323E-01 2.93866E-26
1.37313E-01 2.80282E-26
1.40330E-01 2.67463E-26
1.43375E-01 2.55358E-26
1.46447E-01 2.43920E-26
1.49545E-01 2.33105E-26
1.52671E-01 2.22874E-26
1.55823E-01 2.13189E-26
1.59001E-01 2.04015E-26
1.62205E-01 1.95321E-26
1.65435E-01 1.87077E-26
1.68690E-01 1.79256E-26
1.71970E-01 1.71832E-26
1.75276E-01 1.64781E-26
1.78606E-01 1.58081E-26
1.81961E-01 1.51712E-26
1.85340E-01 1.45653E-26
1.88743E-01 1.39888E-26
1.92169E-01 1.34398E-26
1.95619E-01 1.29170E-26
1.99092E-01 1.24188E-26
2.02589E-01 1.19438E-26
2.06107E-01 1.14908E-26
2.09649E-01 1.10585E-26
2.13212E-01 1.06459E-26
2.16797E-01 1.02518E-26
2.20404E-01 9.87538E-27
2.24032E-01 9.51561E-27
2.27680E-01 9.17162E-27
2.31350E-01 8.84261E-27
2.35040E-01 8.52781E-27
2.38751E-01 8.22648E-27
2.42481E-01 7.93797E-27
2.46231E-01 7.66160E-27
2.50000E-01 7.39679E-27
2.53788E-01 7.14296E-27
2.57595E-01 6.89958E-27
2.61421E-01 6.66613E-27
2.65264E-01 6.44216E-27
2.69126E-01 6.22719E-27
2.73005E-01 6.02079E-27
2.76901E-01 5.82258E-27
2.80814E-01 5.63216E-27
2.84744E-01 5.44917E-27
2.88691E-01 5.27327E-27
2.92653E-01 5.10413E-27
2.96632E-01 4.94146E-27
3.00625E-01 4.78495E-27
3.04634E-01 4.63433E-27
3.08658E-01 4.48936E-27
3.12697E-01 4.34976E-27
3.16749E-01 4.21531E-27
3.20816E-01 4.08579E-27
3.24896E-01 3.96097E-27
3.28990E-01 3.84067E-27
3.33097E-01 3.72469E-27
3.37216E-01 3.61284E-27
3.41348E-01 3.50495E-27
3.45492E-01 3.40086E-27
3.49647E-01 3.30040E-27
3.53814E-01 3.20345E-27
3.57992E-01 3.10983E-27
3.62181E-01 3.01943E-27
3.66381E-01 2.93211E-27
3.70590E-01 2.84774E-27
3.74810E-01 2.76622E-27
3.79039E-01 2.68743E-27
3.83277E-01 2.61125E-27
3.87524E-01 2.53760E-27
3.91780E-01 2.46636E-27
3.96044E-01 2.39746E-27
4.00316E-01 2.33079E-27
4.04596E-01 2.26626E-27
4.08882E-01 2.20382E-27
4.13176E-01 2.14337E-27
4.17476E-01 2.08483E-27
4.21783E-01 2.02814E-27
4.26095E-01 1.97323E-27
4.30413E-01 1.92004E-27
4.34737E-01 1.86849E-27
4.39065E-01 1.81853E-27
4.43398E-01 1.77011E-27
4.47736E-01 1.72317E-27
4.52077E-01 1.67765E-27
4.56422E-01 1.63350E-27
4.60770E-01 1.59068E-27
4.65122E-01 1.54915E-27
4.69476E-01 1.50884E-27
4.73832E-01 1.46972E-27
4.78190E-01 1.43176E-27
4.82550E-01 1.39491E-27
4.86912E-01 1.35913E-27
4.91274E-01 1.32438E-27
4.95637E-01 1.29065E-27
5.00000E-01 1.25787E-27
5.04363E-01 1.22604E-27
5.08726E-01 1.19510E-27
5.13088E-01 1.16504E-27
5.17450E-01 1.13583E-27
5.21810E-01 1.10743E-27
5.26168E-01 1.07983E-27
5.30524E-01 1.05299E-27
5.34878E-01 1.02689E-27
5.39230E-01 1.00151E-27
5.43578E-01 9.76821E-28
5.47923E-01 9.52805E-28
5.52264E-01 9.29440E-28
5.56602E-01 9.06705E-28
5.60935E-01 8.84582E-28
5.65263E-01 8.63053E-28
5.69587E-01 8.42091E-28
5.73905E-01 8.21690E-28
5.78217E-01 8.01824E-28
5.82524E-01 7.82481E-28
5.86824E-01 7.63645E-28
5.91118E-01 7.45300E-28
5.95404E-01 7.27430E-28
5.99684E-01 7.10023E-28
6.03956E-01 6.93064E-28
6.08220E-01 6.76542E-28
6.12476E-01 6.60437E-28
6.16723E-01 6.44742E-28
6.20961E-01 6.29448E-28
6.25190E-01 6.14540E-28
6.29410E-01 6.00003E-28
6.33619E-01 5.85832E-28
6.37819E-01 5.72013E-28
6.42008E-01 5.58540E-28
6.46186E-01 5.45397E-28
6.50353E-01 5.32583E-28
6.54508E-01 5.20081E-28
6.58652E-01 5.07886E-28
6.62784E-01 4.95988E-28
6.66903E-01 4.84382E-28
6.71010E-01 4.73054E-28
6.75104E-01 4.62000E-28
6.79184E-01 4.51211E-28
6.83251E-01 4.40684E-28
6.87303E-01 4.30405E-28
6.91342E-01 4.20375E-28
6.95366E-01 4.10581E-28
6.99375E-01 4.01019E-28
7.03368E-01 3.91682E-28
7.07347E-01 3.82565E-28
7.11309E-01 3.73662E-28
7.15256E-01 3.64968E-28
7.19186E-01 3.56476E-28
7.23099E-01 3.48182E-28
7.26995E-01 3.40080E-28
7.30874E-01 3.32166E-28
7.34736E-01 3.24434E-28
7.38579E-01 3.16880E-28
7.42405E-01 3.09499E-28
7.46212E-01 3.02287E-28
7.50000E-01 2.95240E-28
7.53769E-01 2.88353E-28
7.57519E-01 2.81622E-28
7.61249E-01 2.75044E-28
7.64960E-01 2.68613E-28
7.68650E-01 2.62328E-28
7.72320E-01 2.56185E-28
7.75968E-01 2.50182E-28
7.79596E-01 2.44310E-28
7.83203E-01 2.38571E-28
7.86788E-01 2.32960E-28
7.90351E-01 2.27475E-28
7.93893E-01 2.22109E-28
7.97411E-01 2.16866E-28
8.00908E-01 2.11737E-28
8.04381E-01 2.06722E-28
8.07831E-01 2.01818E-28
8.11257E-01 1.97023E-28
8.14660E-01 1.92332E-28
8.18039E-01 1.87746E-28
8.21394E-01 1.83259E-28
8.24724E-01 1.78872E-28
8.28030E-01 1.74580E-28
8.31310E-01 1.70384E-28
8.34565E-01 1.66278E-28
8.37795E-01 1.62264E-28
8.40999E-01 1.58337E-28
8.44177E-01 1.54495E-28
8.47329E-01 1.50739E-28
8.50455E-01 1.47062E-28
8.53553E-01 1.43469E-28
8.56625E-01 1.39952E-28
8.59670E-01 1.36513E-28
8.62687E-01 1.33150E-28
8.65677E-01 1.29861E-28
8.68639E-01 1.26643E-28
8.71572E-01 1.23495E-28
8.74478E-01 1.20417E-28
8.77355E-01 1.17406E-28
8.80203E-01 1.14462E-28
8.83022E-01 1.11583E-28
8.85812E-01 1.08767E-28
8.88573E-01 1.06012E-28
8.91304E-01 1.03318E-28
8.94005E-01 1.00688E-28
8.96677E-01 9.81119E-29
8.99318E-01 9.55939E-29
9.01928E-01 9.31343E-29
9.04508E-01 9.07276E-29
9.07058E-01 8.83759E-29
9.09576E-01 8.60779E-29
9.12063E-01 8.38318E-29
9.14519E-01 8.16341E-29
9.16943E-01 7.94894E-29
9.19335E-01 7.73931E-29
9.21696E-01 7.53455E-29
9.24024E-01 7.33443E-29
9.26320E-01 7.13900E-29
9.28584E-01 6.94813E-29
9.30815E-01 6.76170E-29
9.33013E-01 6.57965E-29
9.35178E-01 6.40209E-29
9.37310E-01 6.22867E-29
9.39409E-01 6.05941E-29
9.41474E-01 5.89425E-29
9.43505E-01 5.73319E-29
9.45503E-01 5.57609E-29
9.47467E-01 5.42275E-29
9.49397E-01 5.27339E-29
9.51293E-01 5.12793E-29
9.53154E-01 4.98603E-29
9.54981E-01 4.84785E-29
9.56773E-01 4.71326E-29
9.58530E-01 4.58229E-29
9.60252E-01 4.45476E-29
9.61940E-01 4.33077E-29
9.63592E-01 4.21003E-29
9.65209E-01 4.09274E-29
9.66790E-01 3.97875E-29
9.68336E-01 3.86798E-29
9.69846E-01 3.76048E-29
9.71321E-01 3.65600E-29
9.72759E-01 3.55484E-29
9.74162E-01 3.45675E-29
9.75528E-01 3.36156E-29
9.76858E-01 3.26965E-29
9.78152E-01 3.18048E-29
9.79410E-01 3.09445E-29
9.80631E-01 3.01119E-29
9.81815E-01 2.93090E-29
9.82963E-01 2.85337E-29
9.84074E-01 2.77869E-29
9.85148E-01 2.70677E-29
9.86185E-01 2.63754E-29
9.87185E-01 2.57120E-29
9.88148E-01 2.50758E-29
9.89074E-01 2.44667E-29
9.89962E-01 2.38816E-29
9.90814E-01 2.33255E-29
9.91627E-01 2.27951E-29
9.92404E-01 2.22900E-29
9.93143E-01 2.18114E-29
9.93844E-01 2.13585E-29
9.94508E-01 2.09314E-29
9.95134E-01 2.05290E-29
9.95722E-01 2.01513E-29
9.96273E-01 1.97976E-29
9.96786E-01 1.94717E-29
9.97261E-01 1.91681E-29
9.97698E-01 1.88915E-29
9.98097E-01 1.86373E-29
9.98459E-01 1.84090E-29
9.98782E-01 1.82037E-29
9.99067E-01 1.80239E-29
9.99315E-01 1.78671E-29
9.99524E-01 1.77361E-29
9.99695E-01 1.76267E-29
9.99829E-01 1.75433E-29
9.99924E-01 1.74830E-29
9.99981E-01 1.74486E-29
1.00000E+00 1.74421E-29
