 #
 # Subroutine ELSEPA. Elastic scattering of electrons and positrons
 #                    by neutral atoms and positive ions
 #
 # Projectile: electron
 # Kinetic energy = 1.50000E+07 eV = 5.51240E+05 a.u.
 #
 # WARNING: High-energy factorization with free-atom DF screening.
 #          Absorption, polarization and exchange corrections are
 #          switched off.
 #          Phase shifts are calculated for the bare nucleus.
 #          Scattering amplitudes are not evaluated.
 #
 # Element:  H,  Z =   1,  atomic weight = 1.00790E+00 g/mol
 #
 # Nuclear model: Fermi distribution
 #                Average radius = 1.07281E-13 cm
 #                Skin thickness = 5.46000E-14 cm
 #
 # Number of electrons =  1
 #
 # Total elastic cross section = 1.08478E-20 cm**2 = 3.87382E-04 a0**2
 # 1st transport cross section = 8.54374E-27 cm**2 = 3.05102E-10 a0**2
 # 2nd transport cross section = 2.48209E-26 cm**2 = 8.86369E-10 a0**2
 #
 #
 # Differential cross section:                       MU=(1-COS(THETA))/2
 #
 #  THETA        MU          DCS          DCS        Sherman      error
 #  (deg)                 (cm**2/sr)   (a0**2/sr)    function
 #----------------------------------------------------------------------
0.00000E+00 2.57995E-14
7.61557E-13 2.57984E-14
1.18994E-12 2.57979E-14
1.71346E-12 2.57972E-14
2.33225E-12 2.57963E-14
3.04617E-12 2.57954E-14
3.85530E-12 2.57943E-14
4.75964E-12 2.57931E-14
5.75917E-12 2.57917E-14
6.85391E-12 2.57903E-14
8.04379E-12 2.57887E-14
9.32893E-12 2.57870E-14
1.07092E-11 2.57851E-14
1.21847E-11 2.57831E-14
1.37554E-11 2.57810E-14
1.54213E-11 2.57788E-14
1.71823E-11 2.57765E-14
1.90386E-11 2.57740E-14
2.09900E-11 2.57714E-14
2.30367E-11 2.57686E-14
2.51785E-11 2.57658E-14
2.74156E-11 2.57628E-14
2.97478E-11 2.57597E-14
3.21752E-11 2.57564E-14
3.46979E-11 2.57531E-14
3.73157E-11 2.57496E-14
4.00286E-11 2.57460E-14
4.28368E-11 2.57422E-14
4.57402E-11 2.57383E-14
4.87388E-11 2.57343E-14
5.18325E-11 2.57302E-14
5.50215E-11 2.57260E-14
5.83057E-11 2.57216E-14
6.16850E-11 2.57171E-14
6.51595E-11 2.57125E-14
6.87293E-11 2.57077E-14
7.23943E-11 2.57028E-14
7.61544E-11 2.56978E-14
1.18991E-10 2.56409E-14
1.71347E-10 2.55715E-14
2.33223E-10 2.54900E-14
3.04617E-10 2.53963E-14
3.85531E-10 2.52907E-14
4.75965E-10 2.51734E-14
5.75917E-10 2.50447E-14
6.85389E-10 2.49046E-14
8.04380E-10 2.47537E-14
9.32891E-10 2.45920E-14
1.07092E-09 2.44201E-14
1.21847E-09 2.42381E-14
1.37554E-09 2.40465E-14
1.54213E-09 2.38455E-14
1.71823E-09 2.36357E-14
1.90386E-09 2.34173E-14
2.09900E-09 2.31907E-14
2.30367E-09 2.29564E-14
2.51785E-09 2.27145E-14
2.74156E-09 2.24656E-14
2.97478E-09 2.22102E-14
3.21752E-09 2.19486E-14
3.46978E-09 2.16813E-14
3.73156E-09 2.14087E-14
4.00286E-09 2.11313E-14
4.28368E-09 2.08494E-14
4.57402E-09 2.05635E-14
4.87388E-09 2.02739E-14
5.18326E-09 1.99812E-14
5.50215E-09 1.96852E-14
5.83057E-09 1.93868E-14
6.16850E-09 1.90863E-14
6.51596E-09 1.87763E-14
6.87293E-09 1.84504E-14
7.23942E-09 1.81297E-14
7.61544E-09 1.78145E-14
1.18991E-08 1.47943E-14
1.71347E-08 1.20035E-14
2.33223E-08 9.57943E-15
3.04617E-08 7.56380E-15
3.85531E-08 5.93791E-15
4.75965E-08 4.65288E-15
5.75917E-08 3.65018E-15
6.85389E-08 2.87083E-15
8.04380E-08 2.26983E-15
9.32891E-08 1.80608E-15
1.07092E-07 1.44709E-15
1.21847E-07 1.16206E-15
1.37554E-07 9.34371E-16
1.54213E-07 7.58926E-16
1.71823E-07 6.22218E-16
1.90386E-07 5.14562E-16
2.09900E-07 4.28945E-16
2.30367E-07 3.60228E-16
2.51785E-07 3.04603E-16
2.74156E-07 2.59214E-16
2.97478E-07 2.21903E-16
3.21752E-07 1.91018E-16
3.46978E-07 1.65285E-16
3.73156E-07 1.43714E-16
4.00286E-07 1.25528E-16
4.28368E-07 1.10112E-16
4.57402E-07 9.69785E-17
4.87388E-07 8.57358E-17
5.18325E-07 7.60681E-17
5.50215E-07 6.77190E-17
5.83057E-07 6.04795E-17
6.16850E-07 5.41780E-17
6.51596E-07 4.86730E-17
6.87293E-07 4.38472E-17
7.23942E-07 3.96027E-17
7.61543E-07 3.58578E-17
1.18991E-06 1.48865E-17
1.71347E-06 7.23210E-18
2.33223E-06 3.92113E-18
3.04617E-06 2.30516E-18
3.85531E-06 1.44197E-18
4.75964E-06 9.47426E-19
5.75916E-06 6.47789E-19
6.85388E-06 4.57751E-19
8.04378E-06 3.32548E-19
9.32888E-06 2.47362E-19
1.07092E-05 1.87783E-19
1.21846E-05 1.45106E-19
1.37553E-05 1.13891E-19
1.54212E-05 9.06352E-20
1.71822E-05 7.30228E-20
1.90385E-05 5.94877E-20
2.09899E-05 4.89479E-20
2.30365E-05 4.06421E-20
2.51783E-05 3.40255E-20
2.74153E-05 2.87022E-20
2.97475E-05 2.43803E-20
3.21749E-05 2.08420E-20
3.46974E-05 1.79229E-20
3.73152E-05 1.54975E-20
4.00281E-05 1.34687E-20
4.28362E-05 1.17613E-20
4.57395E-05 1.03161E-20
4.87380E-05 9.08623E-21
5.18317E-05 8.03427E-21
5.50205E-05 7.13023E-21
5.83045E-05 6.34984E-21
6.16838E-05 5.67336E-21
6.51582E-05 5.08460E-21
6.87277E-05 4.57028E-21
7.23925E-05 4.11937E-21
7.61524E-05 3.72273E-21
9.21439E-05 2.54292E-21
1.09658E-04 1.79562E-21
1.28695E-04 1.30359E-21
1.49255E-04 9.69362E-22
1.71338E-04 7.35630E-22
1.94942E-04 5.68288E-22
2.20070E-04 4.45940E-22
2.46720E-04 3.54727E-22
2.74892E-04 2.85742E-22
3.04586E-04 2.32744E-22
3.35803E-04 1.91483E-22
3.68542E-04 1.58971E-22
4.02802E-04 1.33079E-22
4.38585E-04 1.12247E-22
4.75889E-04 9.53384E-23
5.14715E-04 8.14963E-23
5.55063E-04 7.00776E-23
5.96931E-04 6.05908E-23
6.40321E-04 5.26560E-23
6.85233E-04 4.59789E-23
7.31665E-04 4.03272E-23
7.79618E-04 3.55178E-23
8.29092E-04 3.14045E-23
8.80086E-04 2.78697E-23
9.32601E-04 2.48186E-23
9.86636E-04 2.21737E-23
1.04219E-03 1.98720E-23
1.09927E-03 1.78613E-23
1.15786E-03 1.60986E-23
1.21797E-03 1.45481E-23
1.27961E-03 1.31798E-23
1.34276E-03 1.19687E-23
1.40743E-03 1.08935E-23
1.47362E-03 9.93640E-24
1.54133E-03 9.08212E-24
1.61056E-03 8.31769E-24
1.68131E-03 7.63203E-24
1.75357E-03 7.01556E-24
1.82735E-03 6.46011E-24
1.90265E-03 5.95854E-24
1.97947E-03 5.50472E-24
2.05780E-03 5.09329E-24
2.13765E-03 4.71958E-24
2.21902E-03 4.37952E-24
2.30190E-03 4.06954E-24
2.38630E-03 3.78651E-24
2.47222E-03 3.52765E-24
2.55965E-03 3.29054E-24
2.64859E-03 3.07302E-24
2.73905E-03 2.87317E-24
2.83103E-03 2.68930E-24
2.92452E-03 2.51991E-24
3.01952E-03 2.36364E-24
3.11604E-03 2.21930E-24
3.21407E-03 2.08581E-24
3.31362E-03 1.96221E-24
3.41468E-03 1.84762E-24
3.51725E-03 1.74128E-24
3.62133E-03 1.64247E-24
3.72692E-03 1.55057E-24
3.83403E-03 1.46501E-24
3.94265E-03 1.38527E-24
4.05278E-03 1.31088E-24
4.16442E-03 1.24142E-24
4.27757E-03 1.17649E-24
4.39223E-03 1.11576E-24
4.50840E-03 1.05889E-24
4.62608E-03 1.00559E-24
4.74527E-03 9.55610E-25
4.86597E-03 9.08693E-25
4.98817E-03 8.64619E-25
5.11188E-03 8.23184E-25
5.23711E-03 7.84201E-25
5.36383E-03 7.47497E-25
5.49207E-03 7.12915E-25
5.62181E-03 6.80309E-25
5.75306E-03 6.49545E-25
5.88581E-03 6.20499E-25
6.02007E-03 5.93058E-25
6.15583E-03 5.67117E-25
6.29310E-03 5.42578E-25
6.43187E-03 5.19352E-25
6.57214E-03 4.97354E-25
6.71392E-03 4.76508E-25
6.85720E-03 4.56743E-25
7.00198E-03 4.37991E-25
7.14827E-03 4.20191E-25
7.29605E-03 4.03285E-25
7.44534E-03 3.87221E-25
7.59612E-03 3.71948E-25
7.97965E-03 3.36932E-25
8.37255E-03 3.05939E-25
8.77480E-03 2.78427E-25
9.18641E-03 2.53936E-25
9.60736E-03 2.32078E-25
1.00376E-02 2.12521E-25
1.04773E-02 1.94979E-25
1.09262E-02 1.79208E-25
1.13844E-02 1.64999E-25
1.18520E-02 1.52169E-25
1.23288E-02 1.40561E-25
1.28150E-02 1.30038E-25
1.33104E-02 1.20480E-25
1.38150E-02 1.11784E-25
1.43290E-02 1.03857E-25
1.48521E-02 9.66195E-26
1.53845E-02 9.00009E-26
1.59262E-02 8.39387E-26
1.64770E-02 7.83776E-26
1.70371E-02 7.32689E-26
1.76063E-02 6.85690E-26
1.81848E-02 6.42394E-26
1.87724E-02 6.02456E-26
1.93692E-02 5.65569E-26
1.99751E-02 5.31457E-26
2.05901E-02 4.99873E-26
2.12143E-02 4.70597E-26
2.18476E-02 4.43428E-26
2.24900E-02 4.18188E-26
2.31415E-02 3.94715E-26
2.38021E-02 3.72862E-26
2.44717E-02 3.52498E-26
2.51504E-02 3.33501E-26
2.58382E-02 3.15764E-26
2.65349E-02 2.99188E-26
2.72407E-02 2.83682E-26
2.79555E-02 2.69166E-26
2.86793E-02 2.55563E-26
2.94120E-02 2.42807E-26
3.01537E-02 2.30834E-26
3.09043E-02 2.19588E-26
3.16639E-02 2.09016E-26
3.24324E-02 1.99072E-26
3.32098E-02 1.89709E-26
3.39961E-02 1.80889E-26
3.47912E-02 1.72574E-26
3.55952E-02 1.64729E-26
3.64081E-02 1.57323E-26
3.72297E-02 1.50328E-26
3.80602E-02 1.43715E-26
3.88995E-02 1.37461E-26
3.97476E-02 1.31542E-26
4.06044E-02 1.25936E-26
4.14700E-02 1.20625E-26
4.23443E-02 1.15590E-26
4.32273E-02 1.10814E-26
4.41190E-02 1.06280E-26
4.50194E-02 1.01975E-26
4.59284E-02 9.78849E-27
4.68461E-02 9.39968E-27
4.87074E-02 8.67799E-27
5.06030E-02 8.02392E-27
5.25328E-02 7.43001E-27
5.44967E-02 6.88976E-27
5.64946E-02 6.39745E-27
5.85262E-02 5.94808E-27
6.05914E-02 5.53725E-27
6.26901E-02 5.16106E-27
6.48222E-02 4.81607E-27
6.69873E-02 4.49923E-27
6.91854E-02 4.20784E-27
7.14163E-02 3.93949E-27
7.36799E-02 3.69203E-27
7.59760E-02 3.46354E-27
7.83043E-02 3.25232E-27
8.06647E-02 3.05681E-27
8.30571E-02 2.87565E-27
8.54812E-02 2.70759E-27
8.79369E-02 2.55151E-27
9.04240E-02 2.40641E-27
9.29422E-02 2.27138E-27
9.54915E-02 2.14558E-27
9.80716E-02 2.02829E-27
1.00682E-01 1.91881E-27
1.03323E-01 1.81653E-27
1.05995E-01 1.72090E-27
1.08696E-01 1.63140E-27
1.11427E-01 1.54757E-27
1.14188E-01 1.46899E-27
1.16978E-01 1.39526E-27
1.19797E-01 1.32604E-27
1.22645E-01 1.26100E-27
1.25522E-01 1.19984E-27
1.28428E-01 1.14229E-27
1.31361E-01 1.08809E-27
1.34323E-01 1.03702E-27
1.37313E-01 9.88866E-28
1.40330E-01 9.43426E-28
1.43375E-01 9.00520E-28
1.46447E-01 8.59984E-28
1.49545E-01 8.21662E-28
1.52671E-01 7.85410E-28
1.55823E-01 7.51098E-28
1.59001E-01 7.18602E-28
1.62205E-01 6.87811E-28
1.65435E-01 6.58616E-28
1.68690E-01 6.30922E-28
1.71970E-01 6.04638E-28
1.75276E-01 5.79677E-28
1.78606E-01 5.55961E-28
1.81961E-01 5.33418E-28
1.85340E-01 5.11979E-28
1.88743E-01 4.91580E-28
1.92169E-01 4.72161E-28
1.95619E-01 4.53668E-28
1.99092E-01 4.36047E-28
2.02589E-01 4.19251E-28
2.06107E-01 4.03233E-28
2.09649E-01 3.87952E-28
2.13212E-01 3.73367E-28
2.16797E-01 3.59441E-28
2.20404E-01 3.46138E-28
2.24032E-01 3.33427E-28
2.27680E-01 3.21276E-28
2.31350E-01 3.09655E-28
2.35040E-01 2.98538E-28
2.38751E-01 2.87898E-28
2.42481E-01 2.77713E-28
2.46231E-01 2.67958E-28
2.50000E-01 2.58612E-28
2.53788E-01 2.49655E-28
2.57595E-01 2.41069E-28
2.61421E-01 2.32834E-28
2.65264E-01 2.24934E-28
2.69126E-01 2.17354E-28
2.73005E-01 2.10077E-28
2.76901E-01 2.03090E-28
2.80814E-01 1.96378E-28
2.84744E-01 1.89930E-28
2.88691E-01 1.83733E-28
2.92653E-01 1.77775E-28
2.96632E-01 1.72045E-28
3.00625E-01 1.66534E-28
3.04634E-01 1.61231E-28
3.08658E-01 1.56128E-28
3.12697E-01 1.51215E-28
3.16749E-01 1.46484E-28
3.20816E-01 1.41927E-28
3.24896E-01 1.37537E-28
3.28990E-01 1.33306E-28
3.33097E-01 1.29228E-28
3.37216E-01 1.25296E-28
3.41348E-01 1.21504E-28
3.45492E-01 1.17846E-28
3.49647E-01 1.14317E-28
3.53814E-01 1.10911E-28
3.57992E-01 1.07624E-28
3.62181E-01 1.04449E-28
3.66381E-01 1.01384E-28
3.70590E-01 9.84229E-29
3.74810E-01 9.55625E-29
3.79039E-01 9.27981E-29
3.83277E-01 9.01262E-29
3.87524E-01 8.75433E-29
3.91780E-01 8.50459E-29
3.96044E-01 8.26304E-29
4.00316E-01 8.02940E-29
4.04596E-01 7.80332E-29
4.08882E-01 7.58459E-29
4.13176E-01 7.37287E-29
4.17476E-01 7.16790E-29
4.21783E-01 6.96947E-29
4.26095E-01 6.77727E-29
4.30413E-01 6.59115E-29
4.34737E-01 6.41082E-29
4.39065E-01 6.23612E-29
4.43398E-01 6.06680E-29
4.47736E-01 5.90270E-29
4.52077E-01 5.74360E-29
4.56422E-01 5.58937E-29
4.60770E-01 5.43978E-29
4.65122E-01 5.29472E-29
4.69476E-01 5.15398E-29
4.73832E-01 5.01743E-29
4.78190E-01 4.88495E-29
4.82550E-01 4.75637E-29
4.86912E-01 4.63157E-29
4.91274E-01 4.51040E-29
4.95637E-01 4.39278E-29
5.00000E-01 4.27855E-29
5.04363E-01 4.16760E-29
5.08726E-01 4.05983E-29
5.13088E-01 3.95515E-29
5.17450E-01 3.85342E-29
5.21810E-01 3.75458E-29
5.26168E-01 3.65851E-29
5.30524E-01 3.56513E-29
5.34878E-01 3.47433E-29
5.39230E-01 3.38608E-29
5.43578E-01 3.30025E-29
5.47923E-01 3.21679E-29
5.52264E-01 3.13560E-29
5.56602E-01 3.05663E-29
5.60935E-01 2.97980E-29
5.65263E-01 2.90506E-29
5.69587E-01 2.83230E-29
5.73905E-01 2.76152E-29
5.78217E-01 2.69260E-29
5.82524E-01 2.62552E-29
5.86824E-01 2.56022E-29
5.91118E-01 2.49663E-29
5.95404E-01 2.43471E-29
5.99684E-01 2.37441E-29
6.03956E-01 2.31568E-29
6.08220E-01 2.25849E-29
6.12476E-01 2.20275E-29
6.16723E-01 2.14844E-29
6.20961E-01 2.09554E-29
6.25190E-01 2.04399E-29
6.29410E-01 1.99373E-29
6.33619E-01 1.94476E-29
6.37819E-01 1.89701E-29
6.42008E-01 1.85047E-29
6.46186E-01 1.80509E-29
6.50353E-01 1.76086E-29
6.54508E-01 1.71772E-29
6.58652E-01 1.67564E-29
6.62784E-01 1.63461E-29
6.66903E-01 1.59459E-29
6.71010E-01 1.55555E-29
6.75104E-01 1.51746E-29
6.79184E-01 1.48030E-29
6.83251E-01 1.44405E-29
6.87303E-01 1.40866E-29
6.91342E-01 1.37414E-29
6.95366E-01 1.34045E-29
6.99375E-01 1.30756E-29
7.03368E-01 1.27545E-29
7.07347E-01 1.24412E-29
7.11309E-01 1.21352E-29
7.15256E-01 1.18366E-29
7.19186E-01 1.15450E-29
7.23099E-01 1.12602E-29
7.26995E-01 1.09822E-29
7.30874E-01 1.07107E-29
7.34736E-01 1.04455E-29
7.38579E-01 1.01865E-29
7.42405E-01 9.93346E-30
7.46212E-01 9.68632E-30
7.50000E-01 9.44493E-30
7.53769E-01 9.20911E-30
7.57519E-01 8.97867E-30
7.61249E-01 8.75357E-30
7.64960E-01 8.53355E-30
7.68650E-01 8.31860E-30
7.72320E-01 8.10857E-30
7.75968E-01 7.90339E-30
7.79596E-01 7.70276E-30
7.83203E-01 7.50671E-30
7.86788E-01 7.31508E-30
7.90351E-01 7.12788E-30
7.93893E-01 6.94472E-30
7.97411E-01 6.76589E-30
8.00908E-01 6.59096E-30
8.04381E-01 6.42001E-30
8.07831E-01 6.25286E-30
8.11257E-01 6.08948E-30
8.14660E-01 5.92971E-30
8.18039E-01 5.77356E-30
8.21394E-01 5.62082E-30
8.24724E-01 5.47154E-30
8.28030E-01 5.32553E-30
8.31310E-01 5.18282E-30
8.34565E-01 5.04325E-30
8.37795E-01 4.90682E-30
8.40999E-01 4.77337E-30
8.44177E-01 4.64291E-30
8.47329E-01 4.51537E-30
8.50455E-01 4.39056E-30
8.53553E-01 4.26861E-30
8.56625E-01 4.14931E-30
8.59670E-01 4.03267E-30
8.62687E-01 3.91865E-30
8.65677E-01 3.80718E-30
8.68639E-01 3.69817E-30
8.71572E-01 3.59152E-30
8.74478E-01 3.48729E-30
8.77355E-01 3.38534E-30
8.80203E-01 3.28574E-30
8.83022E-01 3.18831E-30
8.85812E-01 3.09306E-30
8.88573E-01 2.99994E-30
8.91304E-01 2.90885E-30
8.94005E-01 2.81996E-30
8.96677E-01 2.73296E-30
8.99318E-01 2.64790E-30
9.01928E-01 2.56485E-30
9.04508E-01 2.48363E-30
9.07058E-01 2.40424E-30
9.09576E-01 2.32673E-30
9.12063E-01 2.25096E-30
9.14519E-01 2.17687E-30
9.16943E-01 2.10455E-30
9.19335E-01 2.03391E-30
9.21696E-01 1.96492E-30
9.24024E-01 1.89751E-30
9.26320E-01 1.83170E-30
9.28584E-01 1.76745E-30
9.30815E-01 1.70471E-30
9.33013E-01 1.64345E-30
9.35178E-01 1.58371E-30
9.37310E-01 1.52540E-30
9.39409E-01 1.46848E-30
9.41474E-01 1.41296E-30
9.43505E-01 1.35882E-30
9.45503E-01 1.30606E-30
9.47467E-01 1.25454E-30
9.49397E-01 1.20437E-30
9.51293E-01 1.15552E-30
9.53154E-01 1.10791E-30
9.54981E-01 1.06153E-30
9.56773E-01 1.01637E-30
9.58530E-01 9.72421E-31
9.60252E-01 9.29652E-31
9.61940E-01 8.88060E-31
9.63592E-01 8.47598E-31
9.65209E-01 8.08261E-31
9.66790E-01 7.70065E-31
9.68336E-01 7.32943E-31
9.69846E-01 6.96934E-31
9.71321E-01 6.61963E-31
9.72759E-01 6.28055E-31
9.74162E-01 5.95221E-31
9.75528E-01 5.63367E-31
9.76858E-01 5.32577E-31
9.78152E-01 5.02742E-31
9.79410E-01 4.73949E-31
9.80631E-01 4.46112E-31
9.81815E-01 4.19229E-31
9.82963E-01 3.93307E-31
9.84074E-01 3.68340E-31
9.85148E-01 3.44284E-31
9.86185E-01 3.21160E-31
9.87185E-01 2.98957E-31
9.88148E-01 2.77695E-31
9.89074E-01 2.57333E-31
9.89962E-01 2.37837E-31
9.90814E-01 2.19214E-31
9.91627E-01 2.01506E-31
9.92404E-01 1.84653E-31
9.93143E-01 1.68648E-31
9.93844E-01 1.53514E-31
9.94508E-01 1.39244E-31
9.95134E-01 1.25800E-31
9.95722E-01 1.13207E-31
9.96273E-01 1.01420E-31
9.96786E-01 9.05000E-32
9.97261E-01 8.03841E-32
9.97698E-01 7.11091E-32
9.98097E-01 6.26559E-32
9.98459E-01 5.50127E-32
9.98782E-01 4.81816E-32
9.99067E-01 4.21559E-32
9.99315E-01 3.69391E-32
9.99524E-01 3.25453E-32
9.99695E-01 2.89207E-32
9.99829E-01 2.61253E-32
9.99924E-01 2.41160E-32
9.99981E-01 2.29294E-32
1.00000E+00 2.25735E-32
