 #
 # Subroutine ELSEPA. Elastic scattering of electrons and positrons
 #                    by neutral atoms and positive ions
 #
 # Projectile: electron
 # Kinetic energy = 2.00000E+08 eV = 7.34987E+06 a.u.
 #
 # WARNING: High-energy factorization with free-atom DF screening.
 #          Absorption, polarization and exchange corrections are
 #          switched off.
 #          Phase shifts are calculated for the bare nucleus.
 #          Scattering amplitudes are not evaluated.
 #
 # Element:  H,  Z =   1,  atomic weight = 1.00790E+00 g/mol
 #
 # Nuclear model: Fermi distribution
 #                Average radius = 1.07281E-13 cm
 #                Skin thickness = 5.46000E-14 cm
 #
 # Number of electrons =  1
 #
 # Total elastic cross section = 1.08345E-20 cm**2 = 3.86907E-04 a0**2
 # 1st transport cross section = 6.25130E-29 cm**2 = 2.23238E-12 a0**2
 # 2nd transport cross section = 1.86198E-28 cm**2 = 6.64927E-12 a0**2
 #
 #
 # Differential cross section:                       MU=(1-COS(THETA))/2
 #
 #  THETA        MU          DCS          DCS        Sherman      error
 #  (deg)                 (cm**2/sr)   (a0**2/sr)    function
 #----------------------------------------------------------------------
0.00000E+00 4.31129E-12
7.61557E-13 4.28293E-12
1.18994E-12 4.26710E-12
1.71346E-12 4.24785E-12
2.33225E-12 4.22526E-12
3.04617E-12 4.19940E-12
3.85530E-12 4.17037E-12
4.75964E-12 4.13825E-12
5.75917E-12 4.10313E-12
6.85391E-12 4.06518E-12
8.04379E-12 4.02442E-12
9.32893E-12 3.98108E-12
1.07092E-11 3.93525E-12
1.21847E-11 3.88703E-12
1.37554E-11 3.83668E-12
1.54213E-11 3.78415E-12
1.71823E-11 3.72978E-12
1.90386E-11 3.67362E-12
2.09900E-11 3.61582E-12
2.30367E-11 3.55665E-12
2.51785E-11 3.49601E-12
2.74156E-11 3.43432E-12
2.97478E-11 3.37155E-12
3.21752E-11 3.30791E-12
3.46979E-11 3.24362E-12
3.73157E-11 3.17859E-12
4.00286E-11 3.10985E-12
4.28368E-11 3.04014E-12
4.57402E-11 2.97196E-12
4.87388E-11 2.90538E-12
5.18325E-11 2.84045E-12
5.50215E-11 2.77720E-12
5.83057E-11 2.71568E-12
6.16850E-11 2.64994E-12
6.51595E-11 2.58126E-12
6.87293E-11 2.51478E-12
7.23943E-11 2.45047E-12
7.61544E-11 2.38832E-12
1.18991E-10 1.81353E-12
1.71347E-10 1.33795E-12
2.33223E-10 9.79714E-13
3.04617E-10 7.13809E-13
3.85531E-10 5.22200E-13
4.75965E-10 3.85231E-13
5.75917E-10 2.86751E-13
6.85389E-10 2.16147E-13
8.04380E-10 1.62468E-13
9.32891E-10 1.24086E-13
1.07092E-09 9.62537E-14
1.21847E-09 7.57175E-14
1.37554E-09 6.03222E-14
1.54213E-09 4.86127E-14
1.71823E-09 3.95881E-14
1.90386E-09 3.25481E-14
2.09900E-09 2.69950E-14
2.30367E-09 2.25699E-14
2.51785E-09 1.90101E-14
2.74156E-09 1.61216E-14
2.97478E-09 1.37587E-14
3.21752E-09 1.18113E-14
3.46978E-09 1.01951E-14
3.73156E-09 8.84495E-15
4.00286E-09 7.71027E-15
4.28368E-09 6.75121E-15
4.57402E-09 5.93624E-15
4.87388E-09 5.24023E-15
5.18326E-09 4.64300E-15
5.50215E-09 4.12824E-15
5.83057E-09 3.68269E-15
6.16850E-09 3.29552E-15
6.51596E-09 2.95779E-15
6.87293E-09 2.66214E-15
7.23942E-09 2.40244E-15
7.61544E-09 2.17359E-15
1.18991E-08 8.97544E-16
1.71347E-08 4.34758E-16
2.33223E-08 2.35298E-16
3.04617E-08 1.38167E-16
3.85531E-08 8.63593E-17
4.75965E-08 5.67086E-17
5.75917E-08 3.87571E-17
6.85389E-08 2.73783E-17
8.04380E-08 1.98847E-17
9.32891E-08 1.47880E-17
1.07092E-07 1.12243E-17
1.21847E-07 8.67223E-18
1.37554E-07 6.80590E-18
1.54213E-07 5.41565E-18
1.71823E-07 4.36291E-18
1.90386E-07 3.55397E-18
2.09900E-07 2.92410E-18
2.30367E-07 2.42779E-18
2.51785E-07 2.03244E-18
2.74156E-07 1.71439E-18
2.97478E-07 1.45618E-18
3.21752E-07 1.24481E-18
3.46978E-07 1.07043E-18
3.73156E-07 9.25542E-19
4.00286E-07 8.04359E-19
4.28368E-07 7.02376E-19
4.57402E-07 6.16055E-19
4.87388E-07 5.42596E-19
5.18325E-07 4.79766E-19
5.50215E-07 4.25773E-19
5.83057E-07 3.79167E-19
6.16850E-07 3.38766E-19
6.51596E-07 3.03605E-19
6.87293E-07 2.72890E-19
7.23942E-07 2.45963E-19
7.61543E-07 2.22277E-19
1.18991E-06 9.10524E-20
1.71347E-06 4.39125E-20
2.33223E-06 2.37036E-20
3.04617E-06 1.38949E-20
3.85531E-06 8.67470E-21
4.75964E-06 5.69155E-21
5.75916E-06 3.88745E-21
6.85388E-06 2.74483E-21
8.04378E-06 1.99283E-21
9.32888E-06 1.48162E-21
1.07092E-05 1.12431E-21
1.21846E-05 8.68511E-22
1.37553E-05 6.81495E-22
1.54212E-05 5.42215E-22
1.71822E-05 4.36768E-22
1.90385E-05 3.55753E-22
2.09899E-05 2.92681E-22
2.30365E-05 2.42987E-22
2.51783E-05 2.03407E-22
2.74153E-05 1.71568E-22
2.97475E-05 1.45721E-22
3.21749E-05 1.24564E-22
3.46974E-05 1.07111E-22
3.73152E-05 9.26106E-23
4.00281E-05 8.04830E-23
4.28362E-05 7.02771E-23
4.57395E-05 6.16390E-23
4.87380E-05 5.42882E-23
5.18317E-05 4.80013E-23
5.50205E-05 4.25987E-23
5.83045E-05 3.79352E-23
6.16838E-05 3.38928E-23
6.51582E-05 3.03749E-23
6.87277E-05 2.73017E-23
7.23925E-05 2.46076E-23
7.61524E-05 2.22378E-23
9.21439E-05 1.51892E-23
1.09658E-04 1.07249E-23
1.28695E-04 7.77920E-24
1.49255E-04 5.78942E-24
1.71338E-04 4.39337E-24
1.94942E-04 3.39389E-24
2.20070E-04 2.66317E-24
2.46720E-04 2.11497E-24
2.74892E-04 1.70333E-24
3.04586E-04 1.38712E-24
3.35803E-04 1.14096E-24
3.68542E-04 9.47031E-25
4.02802E-04 7.92597E-25
4.38585E-04 6.68368E-25
4.75889E-04 5.67542E-25
5.14715E-04 4.85015E-25
5.55063E-04 4.16945E-25
5.96931E-04 3.60401E-25
6.40321E-04 3.13113E-25
6.85233E-04 2.73327E-25
7.31665E-04 2.39655E-25
7.79618E-04 2.11007E-25
8.29092E-04 1.86509E-25
8.80086E-04 1.65460E-25
9.32601E-04 1.47295E-25
9.86636E-04 1.31551E-25
1.04219E-03 1.17852E-25
1.09927E-03 1.05888E-25
1.15786E-03 9.54011E-26
1.21797E-03 8.61785E-26
1.27961E-03 7.80413E-26
1.34276E-03 7.08404E-26
1.40743E-03 6.44490E-26
1.47362E-03 5.87608E-26
1.54133E-03 5.36849E-26
1.61056E-03 4.91439E-26
1.68131E-03 4.50717E-26
1.75357E-03 4.14114E-26
1.82735E-03 3.81141E-26
1.90265E-03 3.51375E-26
1.97947E-03 3.24449E-26
2.05780E-03 3.00044E-26
2.13765E-03 2.77883E-26
2.21902E-03 2.57723E-26
2.30190E-03 2.39350E-26
2.38630E-03 2.22580E-26
2.47222E-03 2.07247E-26
2.55965E-03 1.93205E-26
2.64859E-03 1.80328E-26
2.73905E-03 1.68500E-26
2.83103E-03 1.57622E-26
2.92452E-03 1.47603E-26
3.01952E-03 1.38363E-26
3.11604E-03 1.29831E-26
3.21407E-03 1.21943E-26
3.31362E-03 1.14642E-26
3.41468E-03 1.07875E-26
3.51725E-03 1.01598E-26
3.62133E-03 9.57673E-27
3.72692E-03 9.03463E-27
3.83403E-03 8.53010E-27
3.94265E-03 8.06005E-27
4.05278E-03 7.62170E-27
4.16442E-03 7.21253E-27
4.27757E-03 6.83024E-27
4.39223E-03 6.47275E-27
4.50840E-03 6.13815E-27
4.62608E-03 5.82472E-27
4.74527E-03 5.53087E-27
4.86597E-03 5.25516E-27
4.98817E-03 4.99626E-27
5.11188E-03 4.75296E-27
5.23711E-03 4.52416E-27
5.36383E-03 4.30882E-27
5.49207E-03 4.10602E-27
5.62181E-03 3.91490E-27
5.75306E-03 3.73464E-27
5.88581E-03 3.56454E-27
6.02007E-03 3.40390E-27
6.15583E-03 3.25212E-27
6.29310E-03 3.10860E-27
6.43187E-03 2.97282E-27
6.57214E-03 2.84429E-27
6.71392E-03 2.72254E-27
6.85720E-03 2.60716E-27
7.00198E-03 2.49775E-27
7.14827E-03 2.39395E-27
7.29605E-03 2.29541E-27
7.44534E-03 2.20182E-27
7.59612E-03 2.11289E-27
7.97965E-03 1.90918E-27
8.37255E-03 1.72910E-27
8.77480E-03 1.56947E-27
9.18641E-03 1.42757E-27
9.60736E-03 1.30111E-27
1.00376E-02 1.18811E-27
1.04773E-02 1.08691E-27
1.09262E-02 9.96076E-28
1.13844E-02 9.14358E-28
1.18520E-02 8.40690E-28
1.23288E-02 7.74147E-28
1.28150E-02 7.13923E-28
1.33104E-02 6.59317E-28
1.38150E-02 6.09718E-28
1.43290E-02 5.64588E-28
1.48521E-02 5.23458E-28
1.53845E-02 4.85913E-28
1.59262E-02 4.51589E-28
1.64770E-02 4.20163E-28
1.70371E-02 3.91349E-28
1.76063E-02 3.64893E-28
1.81848E-02 3.40571E-28
1.87724E-02 3.18182E-28
1.93692E-02 2.97546E-28
1.99751E-02 2.78503E-28
2.05901E-02 2.60910E-28
2.12143E-02 2.44637E-28
2.18476E-02 2.29571E-28
2.24900E-02 2.15605E-28
2.31415E-02 2.02647E-28
2.38021E-02 1.90612E-28
2.44717E-02 1.79423E-28
2.51504E-02 1.69011E-28
2.58382E-02 1.59314E-28
2.65349E-02 1.50273E-28
2.72407E-02 1.41838E-28
2.79555E-02 1.33961E-28
2.86793E-02 1.26600E-28
2.94120E-02 1.19715E-28
3.01537E-02 1.13270E-28
3.09043E-02 1.07232E-28
3.16639E-02 1.01573E-28
3.24324E-02 9.62637E-29
3.32098E-02 9.12798E-29
3.39961E-02 8.65979E-29
3.47912E-02 8.21969E-29
3.55952E-02 7.80573E-29
3.64081E-02 7.41611E-29
3.72297E-02 7.04917E-29
3.80602E-02 6.70340E-29
3.88995E-02 6.37737E-29
3.97476E-02 6.06978E-29
4.06044E-02 5.77943E-29
4.14700E-02 5.50521E-29
4.23443E-02 5.24609E-29
4.32273E-02 5.00109E-29
4.41190E-02 4.76934E-29
4.50194E-02 4.55001E-29
4.59284E-02 4.34233E-29
4.68461E-02 4.14560E-29
4.87074E-02 3.78236E-29
5.06030E-02 3.45551E-29
5.25328E-02 3.16089E-29
5.44967E-02 2.89489E-29
5.64946E-02 2.65435E-29
5.85262E-02 2.43650E-29
6.05914E-02 2.23892E-29
6.26901E-02 2.05947E-29
6.48222E-02 1.89627E-29
6.69873E-02 1.74765E-29
6.91854E-02 1.61214E-29
7.14163E-02 1.48844E-29
7.36799E-02 1.37539E-29
7.59760E-02 1.27196E-29
7.83043E-02 1.17723E-29
8.06647E-02 1.09037E-29
8.30571E-02 1.01066E-29
8.54812E-02 9.37433E-30
8.79369E-02 8.70100E-30
9.04240E-02 8.08133E-30
9.29422E-02 7.51054E-30
9.54915E-02 6.98434E-30
9.80716E-02 6.49885E-30
1.00682E-01 6.05057E-30
1.03323E-01 5.63634E-30
1.05995E-01 5.25328E-30
1.08696E-01 4.89881E-30
1.11427E-01 4.57057E-30
1.14188E-01 4.26640E-30
1.16978E-01 3.98436E-30
1.19797E-01 3.72269E-30
1.22645E-01 3.47976E-30
1.25522E-01 3.25409E-30
1.28428E-01 3.04434E-30
1.31361E-01 2.84928E-30
1.34323E-01 2.66778E-30
1.37313E-01 2.49881E-30
1.40330E-01 2.34143E-30
1.43375E-01 2.19477E-30
1.46447E-01 2.05803E-30
1.49545E-01 1.93048E-30
1.52671E-01 1.81145E-30
1.55823E-01 1.70033E-30
1.59001E-01 1.59653E-30
1.62205E-01 1.49955E-30
1.65435E-01 1.40889E-30
1.68690E-01 1.32411E-30
1.71970E-01 1.24480E-30
1.75276E-01 1.17057E-30
1.78606E-01 1.10108E-30
1.81961E-01 1.03599E-30
1.85340E-01 9.75017E-31
1.88743E-01 9.17872E-31
1.92169E-01 8.64296E-31
1.95619E-01 8.14053E-31
1.99092E-01 7.66917E-31
2.02589E-01 7.22686E-31
2.06107E-01 6.81166E-31
2.09649E-01 6.42181E-31
2.13212E-01 6.05564E-31
2.16797E-01 5.71162E-31
2.20404E-01 5.38831E-31
2.24032E-01 5.08442E-31
2.27680E-01 4.79866E-31
2.31350E-01 4.52991E-31
2.35040E-01 4.27708E-31
2.38751E-01 4.03916E-31
2.42481E-01 3.81523E-31
2.46231E-01 3.60441E-31
2.50000E-01 3.40588E-31
2.53788E-01 3.21889E-31
2.57595E-01 3.04274E-31
2.61421E-01 2.87673E-31
2.65264E-01 2.72028E-31
2.69126E-01 2.57279E-31
2.73005E-01 2.43372E-31
2.76901E-01 2.30257E-31
2.80814E-01 2.17884E-31
2.84744E-01 2.06211E-31
2.88691E-01 1.95196E-31
2.92653E-01 1.84798E-31
2.96632E-01 1.74983E-31
3.00625E-01 1.65715E-31
3.04634E-01 1.56962E-31
3.08658E-01 1.48696E-31
3.12697E-01 1.40886E-31
3.16749E-01 1.33506E-31
3.20816E-01 1.26532E-31
3.24896E-01 1.19939E-31
3.28990E-01 1.13707E-31
3.33097E-01 1.07815E-31
3.37216E-01 1.02243E-31
3.41348E-01 9.69712E-32
3.45492E-01 9.19849E-32
3.49647E-01 8.72670E-32
3.53814E-01 8.28031E-32
3.57992E-01 7.85779E-32
3.62181E-01 7.45782E-32
3.66381E-01 7.07922E-32
3.70590E-01 6.72065E-32
3.74810E-01 6.38117E-32
3.79039E-01 6.05959E-32
3.83277E-01 5.75496E-32
3.87524E-01 5.46634E-32
3.91780E-01 5.19291E-32
3.96044E-01 4.93374E-32
4.00316E-01 4.68811E-32
4.04596E-01 4.45523E-32
4.08882E-01 4.23450E-32
4.13176E-01 4.02518E-32
4.17476E-01 3.82666E-32
4.21783E-01 3.63842E-32
4.26095E-01 3.45979E-32
4.30413E-01 3.29039E-32
4.34737E-01 3.12961E-32
4.39065E-01 2.97709E-32
4.43398E-01 2.83231E-32
4.47736E-01 2.69490E-32
4.52077E-01 2.56443E-32
4.56422E-01 2.44060E-32
4.60770E-01 2.32298E-32
4.65122E-01 2.21131E-32
4.69476E-01 2.10523E-32
4.73832E-01 2.00445E-32
4.78190E-01 1.90874E-32
4.82550E-01 1.81780E-32
4.86912E-01 1.73138E-32
4.91274E-01 1.64923E-32
4.95637E-01 1.57119E-32
5.00000E-01 1.49700E-32
5.04363E-01 1.42645E-32
5.08726E-01 1.35937E-32
5.13088E-01 1.29562E-32
5.17450E-01 1.23496E-32
5.21810E-01 1.17729E-32
5.26168E-01 1.12242E-32
5.30524E-01 1.07022E-32
5.34878E-01 1.02053E-32
5.39230E-01 9.73290E-33
5.43578E-01 9.28312E-33
5.47923E-01 8.85504E-33
5.52264E-01 8.44763E-33
5.56602E-01 8.05970E-33
5.60935E-01 7.69046E-33
5.65263E-01 7.33905E-33
5.69587E-01 7.00405E-33
5.73905E-01 6.68529E-33
5.78217E-01 6.38147E-33
5.82524E-01 6.09216E-33
5.86824E-01 5.81650E-33
5.91118E-01 5.55393E-33
5.95404E-01 5.30363E-33
5.99684E-01 5.06514E-33
6.03956E-01 4.83786E-33
6.08220E-01 4.62134E-33
6.12476E-01 4.41470E-33
6.16723E-01 4.21771E-33
6.20961E-01 4.03001E-33
6.25190E-01 3.85105E-33
6.29410E-01 3.68022E-33
6.33619E-01 3.51737E-33
6.37819E-01 3.36195E-33
6.42008E-01 3.21378E-33
6.46186E-01 3.07230E-33
6.50353E-01 2.93748E-33
6.54508E-01 2.80869E-33
6.58652E-01 2.68583E-33
6.62784E-01 2.56854E-33
6.66903E-01 2.45663E-33
6.71010E-01 2.34974E-33
6.75104E-01 2.24769E-33
6.79184E-01 2.15018E-33
6.83251E-01 2.05720E-33
6.87303E-01 1.96825E-33
6.91342E-01 1.88345E-33
6.95366E-01 1.80234E-33
6.99375E-01 1.72489E-33
7.03368E-01 1.65083E-33
7.07347E-01 1.58010E-33
7.11309E-01 1.51249E-33
7.15256E-01 1.44789E-33
7.19186E-01 1.38616E-33
7.23099E-01 1.32716E-33
7.26995E-01 1.27074E-33
7.30874E-01 1.21682E-33
7.34736E-01 1.16523E-33
7.38579E-01 1.11593E-33
7.42405E-01 1.06876E-33
7.46212E-01 1.02362E-33
7.50000E-01 9.80491E-34
7.53769E-01 9.39224E-34
7.57519E-01 8.99698E-34
7.61249E-01 8.61922E-34
7.64960E-01 8.25716E-34
7.68650E-01 7.91087E-34
7.72320E-01 7.57968E-34
7.75968E-01 7.26318E-34
7.79596E-01 6.95933E-34
7.83203E-01 6.66860E-34
7.86788E-01 6.39019E-34
7.90351E-01 6.12432E-34
7.93893E-01 5.86835E-34
7.97411E-01 5.62474E-34
8.00908E-01 5.39054E-34
8.04381E-01 5.16658E-34
8.07831E-01 4.95182E-34
8.11257E-01 4.74630E-34
8.14660E-01 4.54903E-34
8.18039E-01 4.36040E-34
8.21394E-01 4.17909E-34
8.24724E-01 4.00571E-34
8.28030E-01 3.83923E-34
8.31310E-01 3.67997E-34
8.34565E-01 3.52708E-34
8.37795E-01 3.38077E-34
8.40999E-01 3.24017E-34
8.44177E-01 3.10554E-34
8.47329E-01 2.97662E-34
8.50455E-01 2.85233E-34
8.53553E-01 2.73371E-34
8.56625E-01 2.61956E-34
8.59670E-01 2.51017E-34
8.62687E-01 2.40543E-34
8.65677E-01 2.30511E-34
8.68639E-01 2.20871E-34
8.71572E-01 2.11586E-34
8.74478E-01 2.02703E-34
8.77355E-01 1.94154E-34
8.80203E-01 1.85993E-34
8.83022E-01 1.78128E-34
8.85812E-01 1.70589E-34
8.88573E-01 1.63348E-34
8.91304E-01 1.56358E-34
8.94005E-01 1.49735E-34
8.96677E-01 1.43319E-34
8.99318E-01 1.37143E-34
9.01928E-01 1.31260E-34
9.04508E-01 1.25583E-34
9.07058E-01 1.20118E-34
9.09576E-01 1.14908E-34
9.12063E-01 1.09886E-34
9.14519E-01 1.05030E-34
9.16943E-01 1.00401E-34
9.19335E-01 9.59507E-35
9.21696E-01 9.16870E-35
9.24024E-01 8.75704E-35
9.26320E-01 8.36243E-35
9.28584E-01 7.98403E-35
9.30815E-01 7.61949E-35
9.33013E-01 7.26827E-35
9.35178E-01 6.93336E-35
9.37310E-01 6.61146E-35
9.39409E-01 6.29993E-35
9.41474E-01 6.00133E-35
9.43505E-01 5.71506E-35
9.45503E-01 5.44152E-35
9.47467E-01 5.17446E-35
9.49397E-01 4.92061E-35
9.51293E-01 4.67779E-35
9.53154E-01 4.44498E-35
9.54981E-01 4.21963E-35
9.56773E-01 4.00404E-35
9.58530E-01 3.79693E-35
9.60252E-01 3.59818E-35
9.61940E-01 3.40772E-35
9.63592E-01 3.22445E-35
9.65209E-01 3.04779E-35
9.66790E-01 2.87974E-35
9.68336E-01 2.71731E-35
9.69846E-01 2.56294E-35
9.71321E-01 2.41370E-35
9.72759E-01 2.27036E-35
9.74162E-01 2.13495E-35
9.75528E-01 2.00313E-35
9.76858E-01 1.87867E-35
9.78152E-01 1.75779E-35
9.79410E-01 1.64427E-35
9.80631E-01 1.53503E-35
9.81815E-01 1.42950E-35
9.82963E-01 1.32930E-35
9.84074E-01 1.23401E-35
9.85148E-01 1.14182E-35
9.86185E-01 1.05452E-35
9.87185E-01 9.70893E-36
9.88148E-01 8.93174E-36
9.89074E-01 8.19226E-36
9.89962E-01 7.48719E-36
9.90814E-01 6.80105E-36
9.91627E-01 6.17549E-36
9.92404E-01 5.57998E-36
9.93143E-01 5.00637E-36
9.93844E-01 4.47426E-36
9.94508E-01 3.97977E-36
9.95134E-01 3.50983E-36
9.95722E-01 3.07846E-36
9.96273E-01 2.66593E-36
9.96786E-01 2.29173E-36
9.97261E-01 1.94486E-36
9.97698E-01 1.62732E-36
9.98097E-01 1.34924E-36
9.98459E-01 1.09034E-36
9.98782E-01 8.64356E-37
9.99067E-01 6.58281E-37
9.99315E-01 4.85469E-37
9.99524E-01 3.42482E-37
9.99695E-01 2.17570E-37
9.99829E-01 1.26066E-37
9.99924E-01 5.64004E-38
9.99981E-01 1.79346E-38
1.00000E+00 6.69681E-39
