 #
 # Subroutine ELSEPA. Elastic scattering of electrons and positrons
 #                    by neutral atoms and positive ions
 #
 # Projectile: electron
 # Kinetic energy = 1.25000E+07 eV = 4.59367E+05 a.u.
 #
 # WARNING: High-energy factorization with free-atom DF screening.
 #          Absorption, polarization and exchange corrections are
 #          switched off.
 #          Phase shifts are calculated for the bare nucleus.
 #          Scattering amplitudes are not evaluated.
 #
 # Element:  H,  Z =   1,  atomic weight = 1.00790E+00 g/mol
 #
 # Nuclear model: Fermi distribution
 #                Average radius = 1.07281E-13 cm
 #                Skin thickness = 5.46000E-14 cm
 #
 # Number of electrons =  1
 #
 # Total elastic cross section = 1.08576E-20 cm**2 = 3.87730E-04 a0**2
 # 1st transport cross section = 1.18871E-26 cm**2 = 4.24498E-10 a0**2
 # 2nd transport cross section = 3.45037E-26 cm**2 = 1.23215E-09 a0**2
 #
 #
 # Differential cross section:                       MU=(1-COS(THETA))/2
 #
 #  THETA        MU          DCS          DCS        Sherman      error
 #  (deg)                 (cm**2/sr)   (a0**2/sr)    function
 #----------------------------------------------------------------------
0.00000E+00 1.81532E-14
7.61557E-13 1.81527E-14
1.18994E-12 1.81524E-14
1.71346E-12 1.81520E-14
2.33225E-12 1.81516E-14
3.04617E-12 1.81511E-14
3.85530E-12 1.81506E-14
4.75964E-12 1.81500E-14
5.75917E-12 1.81493E-14
6.85391E-12 1.81486E-14
8.04379E-12 1.81478E-14
9.32893E-12 1.81470E-14
1.07092E-11 1.81461E-14
1.21847E-11 1.81451E-14
1.37554E-11 1.81440E-14
1.54213E-11 1.81429E-14
1.71823E-11 1.81418E-14
1.90386E-11 1.81405E-14
2.09900E-11 1.81393E-14
2.30367E-11 1.81379E-14
2.51785E-11 1.81365E-14
2.74156E-11 1.81350E-14
2.97478E-11 1.81335E-14
3.21752E-11 1.81319E-14
3.46979E-11 1.81302E-14
3.73157E-11 1.81285E-14
4.00286E-11 1.81267E-14
4.28368E-11 1.81248E-14
4.57402E-11 1.81229E-14
4.87388E-11 1.81209E-14
5.18325E-11 1.81189E-14
5.50215E-11 1.81168E-14
5.83057E-11 1.81146E-14
6.16850E-11 1.81124E-14
6.51595E-11 1.81101E-14
6.87293E-11 1.81077E-14
7.23943E-11 1.81053E-14
7.61544E-11 1.81028E-14
1.18991E-10 1.80746E-14
1.71347E-10 1.80402E-14
2.33223E-10 1.79996E-14
3.04617E-10 1.79530E-14
3.85531E-10 1.79003E-14
4.75965E-10 1.78418E-14
5.75917E-10 1.77773E-14
6.85389E-10 1.77071E-14
8.04380E-10 1.76312E-14
9.32891E-10 1.75498E-14
1.07092E-09 1.74629E-14
1.21847E-09 1.73706E-14
1.37554E-09 1.72732E-14
1.54213E-09 1.71707E-14
1.71823E-09 1.70632E-14
1.90386E-09 1.69510E-14
2.09900E-09 1.68341E-14
2.30367E-09 1.67128E-14
2.51785E-09 1.65871E-14
2.74156E-09 1.64571E-14
2.97478E-09 1.63231E-14
3.21752E-09 1.61852E-14
3.46978E-09 1.60437E-14
3.73156E-09 1.58986E-14
4.00286E-09 1.57502E-14
4.28368E-09 1.55986E-14
4.57402E-09 1.54440E-14
4.87388E-09 1.52866E-14
5.18326E-09 1.51266E-14
5.50215E-09 1.49641E-14
5.83057E-09 1.47994E-14
6.16850E-09 1.46322E-14
6.51596E-09 1.44631E-14
6.87293E-09 1.42921E-14
7.23942E-09 1.41196E-14
7.61544E-09 1.39456E-14
1.18991E-08 1.21178E-14
1.71347E-08 1.03437E-14
2.33223E-08 8.68849E-15
3.04617E-08 7.21007E-15
3.85531E-08 5.93184E-15
4.75965E-08 4.85313E-15
5.75917E-08 3.95878E-15
6.85389E-08 3.22507E-15
8.04380E-08 2.62816E-15
9.32891E-08 2.14741E-15
1.07092E-07 1.76085E-15
1.21847E-07 1.44996E-15
1.37554E-07 1.19952E-15
1.54213E-07 9.97239E-16
1.71823E-07 8.29820E-16
1.90386E-07 6.90238E-16
2.09900E-07 5.78296E-16
2.30367E-07 4.87810E-16
2.51785E-07 4.14102E-16
2.74156E-07 3.53625E-16
2.97478E-07 3.03664E-16
3.21752E-07 2.62125E-16
3.46978E-07 2.27378E-16
3.73156E-07 1.98147E-16
4.00286E-07 1.73424E-16
4.28368E-07 1.52406E-16
4.57402E-07 1.34453E-16
4.87388E-07 1.19048E-16
5.18325E-07 1.05771E-16
5.50215E-07 9.42824E-17
5.83057E-07 8.43022E-17
6.16850E-07 7.56004E-17
6.51596E-07 6.79866E-17
6.87293E-07 6.13024E-17
7.23942E-07 5.54156E-17
7.61543E-07 5.02153E-17
1.18991E-06 2.09633E-17
1.71347E-06 1.02155E-17
2.33223E-06 5.54896E-18
3.04617E-06 3.26608E-18
3.85531E-06 2.04476E-18
4.75964E-06 1.34429E-18
5.75916E-06 9.19543E-19
6.85388E-06 6.50001E-19
8.04378E-06 4.72338E-19
9.32888E-06 3.51416E-19
1.07092E-05 2.66820E-19
1.21846E-05 2.06209E-19
1.37553E-05 1.61868E-19
1.54212E-05 1.28828E-19
1.71822E-05 1.03802E-19
1.90385E-05 8.45677E-20
2.09899E-05 6.95885E-20
2.30365E-05 5.77833E-20
2.51783E-05 4.83783E-20
2.74153E-05 4.08110E-20
2.97475E-05 3.46670E-20
3.21749E-05 2.96368E-20
3.46974E-05 2.54866E-20
3.73152E-05 2.20381E-20
4.00281E-05 1.91536E-20
4.28362E-05 1.67259E-20
4.57395E-05 1.46709E-20
4.87380E-05 1.29220E-20
5.18317E-05 1.14261E-20
5.50205E-05 1.01406E-20
5.83045E-05 9.03083E-21
6.16838E-05 8.06882E-21
6.51582E-05 7.23155E-21
6.87277E-05 6.50012E-21
7.23925E-05 5.85887E-21
7.61524E-05 5.29478E-21
9.21439E-05 3.61686E-21
1.09658E-04 2.55400E-21
1.28695E-04 1.85420E-21
1.49255E-04 1.37882E-21
1.71338E-04 1.04637E-21
1.94942E-04 8.08346E-22
2.20070E-04 6.34319E-22
2.46720E-04 5.04580E-22
2.74892E-04 4.06455E-22
3.04586E-04 3.31069E-22
3.35803E-04 2.72378E-22
3.68542E-04 2.26132E-22
4.02802E-04 1.89301E-22
4.38585E-04 1.59670E-22
4.75889E-04 1.35617E-22
5.14715E-04 1.15927E-22
5.55063E-04 9.96846E-23
5.96931E-04 8.61900E-23
6.40321E-04 7.49029E-23
6.85233E-04 6.54049E-23
7.31665E-04 5.73654E-23
7.79618E-04 5.05242E-23
8.29092E-04 4.46731E-23
8.80086E-04 3.96448E-23
9.32601E-04 3.53047E-23
9.86636E-04 3.15424E-23
1.04219E-03 2.82682E-23
1.09927E-03 2.54080E-23
1.15786E-03 2.29006E-23
1.21797E-03 2.06950E-23
1.27961E-03 1.87486E-23
1.34276E-03 1.70257E-23
1.40743E-03 1.54963E-23
1.47362E-03 1.41348E-23
1.54133E-03 1.29196E-23
1.61056E-03 1.18322E-23
1.68131E-03 1.08568E-23
1.75357E-03 9.97987E-24
1.82735E-03 9.18973E-24
1.90265E-03 8.47624E-24
1.97947E-03 7.83067E-24
2.05780E-03 7.24540E-24
2.13765E-03 6.71379E-24
2.21902E-03 6.23006E-24
2.30190E-03 5.78910E-24
2.38630E-03 5.38648E-24
2.47222E-03 5.01825E-24
2.55965E-03 4.68095E-24
2.64859E-03 4.37152E-24
2.73905E-03 4.08723E-24
2.83103E-03 3.82568E-24
2.92452E-03 3.58472E-24
3.01952E-03 3.36242E-24
3.11604E-03 3.15710E-24
3.21407E-03 2.96720E-24
3.31362E-03 2.79137E-24
3.41468E-03 2.62836E-24
3.51725E-03 2.47708E-24
3.62133E-03 2.33653E-24
3.72692E-03 2.20580E-24
3.83403E-03 2.08409E-24
3.94265E-03 1.97066E-24
4.05278E-03 1.86483E-24
4.16442E-03 1.76602E-24
4.27757E-03 1.67366E-24
4.39223E-03 1.58726E-24
4.50840E-03 1.50636E-24
4.62608E-03 1.43055E-24
4.74527E-03 1.35944E-24
4.86597E-03 1.29270E-24
4.98817E-03 1.23000E-24
5.11188E-03 1.17106E-24
5.23711E-03 1.11560E-24
5.36383E-03 1.06339E-24
5.49207E-03 1.01420E-24
5.62181E-03 9.67812E-25
5.75306E-03 9.24048E-25
5.88581E-03 8.82729E-25
6.02007E-03 8.43693E-25
6.15583E-03 8.06791E-25
6.29310E-03 7.71882E-25
6.43187E-03 7.38841E-25
6.57214E-03 7.07548E-25
6.71392E-03 6.77893E-25
6.85720E-03 6.49776E-25
7.00198E-03 6.23099E-25
7.14827E-03 5.97778E-25
7.29605E-03 5.73729E-25
7.44534E-03 5.50876E-25
7.59612E-03 5.29149E-25
7.97965E-03 4.79337E-25
8.37255E-03 4.35246E-25
8.77480E-03 3.96108E-25
9.18641E-03 3.61268E-25
9.60736E-03 3.30173E-25
1.00376E-02 3.02350E-25
1.04773E-02 2.77395E-25
1.09262E-02 2.54960E-25
1.13844E-02 2.34745E-25
1.18520E-02 2.16494E-25
1.23288E-02 1.99980E-25
1.28150E-02 1.85009E-25
1.33104E-02 1.71412E-25
1.38150E-02 1.59040E-25
1.43290E-02 1.47764E-25
1.48521E-02 1.37467E-25
1.53845E-02 1.28052E-25
1.59262E-02 1.19427E-25
1.64770E-02 1.11516E-25
1.70371E-02 1.04248E-25
1.76063E-02 9.75613E-26
1.81848E-02 9.14017E-26
1.87724E-02 8.57198E-26
1.93692E-02 8.04719E-26
1.99751E-02 7.56189E-26
2.05901E-02 7.11255E-26
2.12143E-02 6.69604E-26
2.18476E-02 6.30951E-26
2.24900E-02 5.95042E-26
2.31415E-02 5.61647E-26
2.38021E-02 5.30556E-26
2.44717E-02 5.01583E-26
2.51504E-02 4.74556E-26
2.58382E-02 4.49321E-26
2.65349E-02 4.25737E-26
2.72407E-02 4.03677E-26
2.79555E-02 3.83023E-26
2.86793E-02 3.63670E-26
2.94120E-02 3.45520E-26
3.01537E-02 3.28486E-26
3.09043E-02 3.12485E-26
3.16639E-02 2.97444E-26
3.24324E-02 2.83295E-26
3.32098E-02 2.69974E-26
3.39961E-02 2.57424E-26
3.47912E-02 2.45593E-26
3.55952E-02 2.34432E-26
3.64081E-02 2.23895E-26
3.72297E-02 2.13941E-26
3.80602E-02 2.04532E-26
3.88995E-02 1.95633E-26
3.97476E-02 1.87211E-26
4.06044E-02 1.79236E-26
4.14700E-02 1.71679E-26
4.23443E-02 1.64514E-26
4.32273E-02 1.57718E-26
4.41190E-02 1.51267E-26
4.50194E-02 1.45141E-26
4.59284E-02 1.39321E-26
4.68461E-02 1.33789E-26
4.87074E-02 1.23520E-26
5.06030E-02 1.14212E-26
5.25328E-02 1.05761E-26
5.44967E-02 9.80735E-27
5.64946E-02 9.10679E-27
5.85262E-02 8.46733E-27
6.05914E-02 7.88269E-27
6.26901E-02 7.34734E-27
6.48222E-02 6.85639E-27
6.69873E-02 6.40550E-27
6.91854E-02 5.99081E-27
7.14163E-02 5.60891E-27
7.36799E-02 5.25673E-27
7.59760E-02 4.93155E-27
7.83043E-02 4.63093E-27
8.06647E-02 4.35269E-27
8.30571E-02 4.09485E-27
8.54812E-02 3.85565E-27
8.79369E-02 3.63350E-27
9.04240E-02 3.42698E-27
9.29422E-02 3.23477E-27
9.54915E-02 3.05572E-27
9.80716E-02 2.88876E-27
1.00682E-01 2.73292E-27
1.03323E-01 2.58734E-27
1.05995E-01 2.45120E-27
1.08696E-01 2.32380E-27
1.11427E-01 2.20447E-27
1.14188E-01 2.09260E-27
1.16978E-01 1.98765E-27
1.19797E-01 1.88911E-27
1.22645E-01 1.79651E-27
1.25522E-01 1.70944E-27
1.28428E-01 1.62750E-27
1.31361E-01 1.55034E-27
1.34323E-01 1.47763E-27
1.37313E-01 1.40907E-27
1.40330E-01 1.34437E-27
1.43375E-01 1.28328E-27
1.46447E-01 1.22556E-27
1.49545E-01 1.17099E-27
1.52671E-01 1.11937E-27
1.55823E-01 1.07051E-27
1.59001E-01 1.02424E-27
1.62205E-01 9.80387E-28
1.65435E-01 9.38812E-28
1.68690E-01 8.99373E-28
1.71970E-01 8.61939E-28
1.75276E-01 8.26390E-28
1.78606E-01 7.92614E-28
1.81961E-01 7.60507E-28
1.85340E-01 7.29972E-28
1.88743E-01 7.00917E-28
1.92169E-01 6.73258E-28
1.95619E-01 6.46916E-28
1.99092E-01 6.21816E-28
2.02589E-01 5.97891E-28
2.06107E-01 5.75073E-28
2.09649E-01 5.53305E-28
2.13212E-01 5.32527E-28
2.16797E-01 5.12688E-28
2.20404E-01 4.93736E-28
2.24032E-01 4.75626E-28
2.27680E-01 4.58313E-28
2.31350E-01 4.41757E-28
2.35040E-01 4.25917E-28
2.38751E-01 4.10757E-28
2.42481E-01 3.96243E-28
2.46231E-01 3.82342E-28
2.50000E-01 3.69025E-28
2.53788E-01 3.56261E-28
2.57595E-01 3.44025E-28
2.61421E-01 3.32289E-28
2.65264E-01 3.21031E-28
2.69126E-01 3.10227E-28
2.73005E-01 2.99855E-28
2.76901E-01 2.89896E-28
2.80814E-01 2.80330E-28
2.84744E-01 2.71139E-28
2.88691E-01 2.62305E-28
2.92653E-01 2.53812E-28
2.96632E-01 2.45644E-28
3.00625E-01 2.37787E-28
3.04634E-01 2.30227E-28
3.08658E-01 2.22952E-28
3.12697E-01 2.15947E-28
3.16749E-01 2.09202E-28
3.20816E-01 2.02704E-28
3.24896E-01 1.96444E-28
3.28990E-01 1.90411E-28
3.33097E-01 1.84596E-28
3.37216E-01 1.78989E-28
3.41348E-01 1.73581E-28
3.45492E-01 1.68365E-28
3.49647E-01 1.63331E-28
3.53814E-01 1.58474E-28
3.57992E-01 1.53784E-28
3.62181E-01 1.49257E-28
3.66381E-01 1.44884E-28
3.70590E-01 1.40660E-28
3.74810E-01 1.36580E-28
3.79039E-01 1.32636E-28
3.83277E-01 1.28824E-28
3.87524E-01 1.25139E-28
3.91780E-01 1.21576E-28
3.96044E-01 1.18130E-28
4.00316E-01 1.14796E-28
4.04596E-01 1.11570E-28
4.08882E-01 1.08449E-28
4.13176E-01 1.05427E-28
4.17476E-01 1.02502E-28
4.21783E-01 9.96702E-29
4.26095E-01 9.69271E-29
4.30413E-01 9.42706E-29
4.34737E-01 9.16966E-29
4.39065E-01 8.92029E-29
4.43398E-01 8.67859E-29
4.47736E-01 8.44433E-29
4.52077E-01 8.21720E-29
4.56422E-01 7.99700E-29
4.60770E-01 7.78343E-29
4.65122E-01 7.57631E-29
4.69476E-01 7.37535E-29
4.73832E-01 7.18037E-29
4.78190E-01 6.99119E-29
4.82550E-01 6.80758E-29
4.86912E-01 6.62934E-29
4.91274E-01 6.45629E-29
4.95637E-01 6.28829E-29
5.00000E-01 6.12513E-29
5.04363E-01 5.96665E-29
5.08726E-01 5.81270E-29
5.13088E-01 5.66317E-29
5.17450E-01 5.51784E-29
5.21810E-01 5.37662E-29
5.26168E-01 5.23937E-29
5.30524E-01 5.10594E-29
5.34878E-01 4.97621E-29
5.39230E-01 4.85010E-29
5.43578E-01 4.72745E-29
5.47923E-01 4.60816E-29
5.52264E-01 4.49214E-29
5.56602E-01 4.37926E-29
5.60935E-01 4.26945E-29
5.65263E-01 4.16262E-29
5.69587E-01 4.05862E-29
5.73905E-01 3.95742E-29
5.78217E-01 3.85890E-29
5.82524E-01 3.76300E-29
5.86824E-01 3.66963E-29
5.91118E-01 3.57872E-29
5.95404E-01 3.49018E-29
5.99684E-01 3.40395E-29
6.03956E-01 3.31996E-29
6.08220E-01 3.23816E-29
6.12476E-01 3.15844E-29
6.16723E-01 3.08076E-29
6.20961E-01 3.00509E-29
6.25190E-01 2.93135E-29
6.29410E-01 2.85946E-29
6.33619E-01 2.78940E-29
6.37819E-01 2.72109E-29
6.42008E-01 2.65450E-29
6.46186E-01 2.58957E-29
6.50353E-01 2.52628E-29
6.54508E-01 2.46454E-29
6.58652E-01 2.40433E-29
6.62784E-01 2.34560E-29
6.66903E-01 2.28833E-29
6.71010E-01 2.23245E-29
6.75104E-01 2.17793E-29
6.79184E-01 2.12472E-29
6.83251E-01 2.07283E-29
6.87303E-01 2.02217E-29
6.91342E-01 1.97275E-29
6.95366E-01 1.92450E-29
6.99375E-01 1.87741E-29
7.03368E-01 1.83144E-29
7.07347E-01 1.78656E-29
7.11309E-01 1.74274E-29
7.15256E-01 1.69997E-29
7.19186E-01 1.65820E-29
7.23099E-01 1.61742E-29
7.26995E-01 1.57758E-29
7.30874E-01 1.53869E-29
7.34736E-01 1.50069E-29
7.38579E-01 1.46359E-29
7.42405E-01 1.42734E-29
7.46212E-01 1.39192E-29
7.50000E-01 1.35733E-29
7.53769E-01 1.32354E-29
7.57519E-01 1.29051E-29
7.61249E-01 1.25825E-29
7.64960E-01 1.22671E-29
7.68650E-01 1.19590E-29
7.72320E-01 1.16579E-29
7.75968E-01 1.13638E-29
7.79596E-01 1.10762E-29
7.83203E-01 1.07951E-29
7.86788E-01 1.05203E-29
7.90351E-01 1.02519E-29
7.93893E-01 9.98923E-30
7.97411E-01 9.73277E-30
8.00908E-01 9.48189E-30
8.04381E-01 9.23671E-30
8.07831E-01 8.99695E-30
8.11257E-01 8.76260E-30
8.14660E-01 8.53340E-30
8.18039E-01 8.30940E-30
8.21394E-01 8.09025E-30
8.24724E-01 7.87607E-30
8.28030E-01 7.66657E-30
8.31310E-01 7.46180E-30
8.34565E-01 7.26151E-30
8.37795E-01 7.06572E-30
8.40999E-01 6.87419E-30
8.44177E-01 6.68694E-30
8.47329E-01 6.50389E-30
8.50455E-01 6.32473E-30
8.53553E-01 6.14966E-30
8.56625E-01 5.97839E-30
8.59670E-01 5.81094E-30
8.62687E-01 5.64723E-30
8.65677E-01 5.48718E-30
8.68639E-01 5.33065E-30
8.71572E-01 5.17750E-30
8.74478E-01 5.02782E-30
8.77355E-01 4.88141E-30
8.80203E-01 4.73835E-30
8.83022E-01 4.59840E-30
8.85812E-01 4.46160E-30
8.88573E-01 4.32783E-30
8.91304E-01 4.19697E-30
8.94005E-01 4.06927E-30
8.96677E-01 3.94427E-30
8.99318E-01 3.82206E-30
9.01928E-01 3.70273E-30
9.04508E-01 3.58602E-30
9.07058E-01 3.47194E-30
9.09576E-01 3.36054E-30
9.12063E-01 3.25165E-30
9.14519E-01 3.14516E-30
9.16943E-01 3.04123E-30
9.19335E-01 2.93968E-30
9.21696E-01 2.84052E-30
9.24024E-01 2.74362E-30
9.26320E-01 2.64901E-30
9.28584E-01 2.55664E-30
9.30815E-01 2.46643E-30
9.33013E-01 2.37835E-30
9.35178E-01 2.29246E-30
9.37310E-01 2.20861E-30
9.39409E-01 2.12676E-30
9.41474E-01 2.04692E-30
9.43505E-01 1.96906E-30
9.45503E-01 1.89318E-30
9.47467E-01 1.81908E-30
9.49397E-01 1.74693E-30
9.51293E-01 1.67665E-30
9.53154E-01 1.60818E-30
9.54981E-01 1.54145E-30
9.56773E-01 1.47649E-30
9.58530E-01 1.41326E-30
9.60252E-01 1.35173E-30
9.61940E-01 1.29190E-30
9.63592E-01 1.23368E-30
9.65209E-01 1.17708E-30
9.66790E-01 1.12212E-30
9.68336E-01 1.06871E-30
9.69846E-01 1.01689E-30
9.71321E-01 9.66563E-31
9.72759E-01 9.17770E-31
9.74162E-01 8.70516E-31
9.75528E-01 8.24671E-31
9.76858E-01 7.80361E-31
9.78152E-01 7.37420E-31
9.79410E-01 6.95979E-31
9.80631E-01 6.55910E-31
9.81815E-01 6.17216E-31
9.82963E-01 5.79904E-31
9.84074E-01 5.43964E-31
9.85148E-01 5.09336E-31
9.86185E-01 4.76046E-31
9.87185E-01 4.44085E-31
9.88148E-01 4.13477E-31
9.89074E-01 3.84163E-31
9.89962E-01 3.56091E-31
9.90814E-01 3.29282E-31
9.91627E-01 3.03787E-31
9.92404E-01 2.79522E-31
9.93143E-01 2.56480E-31
9.93844E-01 2.34690E-31
9.94508E-01 2.14143E-31
9.95134E-01 1.94787E-31
9.95722E-01 1.76653E-31
9.96273E-01 1.59680E-31
9.96786E-01 1.43959E-31
9.97261E-01 1.29391E-31
9.97698E-01 1.16039E-31
9.98097E-01 1.03864E-31
9.98459E-01 9.28598E-32
9.98782E-01 8.30215E-32
9.99067E-01 7.43467E-32
9.99315E-01 6.68330E-32
9.99524E-01 6.05077E-32
9.99695E-01 5.52862E-32
9.99829E-01 5.12617E-32
9.99924E-01 4.83681E-32
9.99981E-01 4.66623E-32
1.00000E+00 4.61609E-32
