 #
 # Subroutine ELSEPA. Elastic scattering of electrons and positrons
 #                    by neutral atoms and positive ions
 #
 # Projectile: electron
 # Kinetic energy = 1.00000E+07 eV = 3.67493E+05 a.u.
 #
 # WARNING: High-energy factorization with free-atom DF screening.
 #          Absorption, polarization and exchange corrections are
 #          switched off.
 #          Phase shifts are calculated for the bare nucleus.
 #          Scattering amplitudes are not evaluated.
 #
 # Element:  H,  Z =   1,  atomic weight = 1.00790E+00 g/mol
 #
 # Nuclear model: Fermi distribution
 #                Average radius = 1.07281E-13 cm
 #                Skin thickness = 5.46000E-14 cm
 #
 # Number of electrons =  1
 #
 # Total elastic cross section = 1.08722E-20 cm**2 = 3.88255E-04 a0**2
 # 1st transport cross section = 1.77448E-26 cm**2 = 6.33678E-10 a0**2
 # 2nd transport cross section = 5.14502E-26 cm**2 = 1.83732E-09 a0**2
 #
 #
 # Differential cross section:                       MU=(1-COS(THETA))/2
 #
 #  THETA        MU          DCS          DCS        Sherman      error
 #  (deg)                 (cm**2/sr)   (a0**2/sr)    function
 #----------------------------------------------------------------------
0.00000E+00 1.18473E-14
7.61557E-13 1.18471E-14
1.18994E-12 1.18470E-14
1.71346E-12 1.18468E-14
2.33225E-12 1.18466E-14
3.04617E-12 1.18464E-14
3.85530E-12 1.18462E-14
4.75964E-12 1.18459E-14
5.75917E-12 1.18457E-14
6.85391E-12 1.18454E-14
8.04379E-12 1.18450E-14
9.32893E-12 1.18447E-14
1.07092E-11 1.18443E-14
1.21847E-11 1.18439E-14
1.37554E-11 1.18434E-14
1.54213E-11 1.18429E-14
1.71823E-11 1.18424E-14
1.90386E-11 1.18419E-14
2.09900E-11 1.18414E-14
2.30367E-11 1.18408E-14
2.51785E-11 1.18402E-14
2.74156E-11 1.18396E-14
2.97478E-11 1.18389E-14
3.21752E-11 1.18382E-14
3.46979E-11 1.18375E-14
3.73157E-11 1.18368E-14
4.00286E-11 1.18360E-14
4.28368E-11 1.18352E-14
4.57402E-11 1.18344E-14
4.87388E-11 1.18336E-14
5.18325E-11 1.18327E-14
5.50215E-11 1.18318E-14
5.83057E-11 1.18309E-14
6.16850E-11 1.18299E-14
6.51595E-11 1.18289E-14
6.87293E-11 1.18279E-14
7.23943E-11 1.18269E-14
7.61544E-11 1.18258E-14
1.18991E-10 1.18138E-14
1.71347E-10 1.17991E-14
2.33223E-10 1.17818E-14
3.04617E-10 1.17619E-14
3.85531E-10 1.17393E-14
4.75965E-10 1.17142E-14
5.75917E-10 1.16865E-14
6.85389E-10 1.16563E-14
8.04380E-10 1.16236E-14
9.32891E-10 1.15884E-14
1.07092E-09 1.15508E-14
1.21847E-09 1.15107E-14
1.37554E-09 1.14683E-14
1.54213E-09 1.14236E-14
1.71823E-09 1.13766E-14
1.90386E-09 1.13273E-14
2.09900E-09 1.12757E-14
2.30367E-09 1.12221E-14
2.51785E-09 1.11664E-14
2.74156E-09 1.11085E-14
2.97478E-09 1.10486E-14
3.21752E-09 1.09868E-14
3.46978E-09 1.09231E-14
3.73156E-09 1.08574E-14
4.00286E-09 1.07900E-14
4.28368E-09 1.07209E-14
4.57402E-09 1.06500E-14
4.87388E-09 1.05774E-14
5.18326E-09 1.05033E-14
5.50215E-09 1.04278E-14
5.83057E-09 1.03507E-14
6.16850E-09 1.02721E-14
6.51596E-09 1.01923E-14
6.87293E-09 1.01113E-14
7.23942E-09 1.00288E-14
7.61544E-09 9.94521E-15
1.18991E-08 9.05859E-15
1.71347E-08 8.09030E-15
2.33223E-08 7.15834E-15
3.04617E-08 6.25641E-15
3.85531E-08 5.40003E-15
4.75965E-08 4.63656E-15
5.75917E-08 3.96607E-15
6.85389E-08 3.37230E-15
8.04380E-08 2.85789E-15
9.32891E-08 2.42305E-15
1.07092E-07 2.05611E-15
1.21847E-07 1.74258E-15
1.37554E-07 1.47937E-15
1.54213E-07 1.25953E-15
1.71823E-07 1.07546E-15
1.90386E-07 9.19567E-16
2.09900E-07 7.89030E-16
2.30367E-07 6.79450E-16
2.51785E-07 5.87073E-16
2.74156E-07 5.04465E-16
2.97478E-07 4.35491E-16
3.21752E-07 3.77703E-16
3.46978E-07 3.29037E-16
3.73156E-07 2.87846E-16
4.00286E-07 2.52814E-16
4.28368E-07 2.22883E-16
4.57402E-07 1.97199E-16
4.87388E-07 1.75067E-16
5.18325E-07 1.55922E-16
5.50215E-07 1.39296E-16
5.83057E-07 1.24807E-16
6.16850E-07 1.12136E-16
6.51596E-07 1.01020E-16
6.87293E-07 9.12356E-17
7.23942E-07 8.25984E-17
7.61543E-07 7.49519E-17
1.18991E-06 3.15988E-17
1.71347E-06 1.54820E-17
2.33223E-06 8.43757E-18
3.04617E-06 4.97706E-18
3.85531E-06 3.12058E-18
4.75964E-06 2.05375E-18
5.75916E-06 1.40596E-18
6.85388E-06 9.94435E-19
8.04378E-06 7.22969E-19
9.32888E-06 5.38085E-19
1.07092E-05 4.08675E-19
1.21846E-05 3.15918E-19
1.37553E-05 2.48037E-19
1.54212E-05 1.97442E-19
1.71822E-05 1.59111E-19
1.90385E-05 1.29644E-19
2.09899E-05 1.06692E-19
2.30365E-05 8.86006E-20
2.51783E-05 7.41856E-20
2.74153E-05 6.25861E-20
2.97475E-05 5.31672E-20
3.21749E-05 4.54551E-20
3.46974E-05 3.90918E-20
3.73152E-05 3.38039E-20
4.00281E-05 2.93805E-20
4.28362E-05 2.56575E-20
4.57395E-05 2.25059E-20
4.87380E-05 1.98236E-20
5.18317E-05 1.75293E-20
5.50205E-05 1.55574E-20
5.83045E-05 1.38552E-20
6.16838E-05 1.23795E-20
6.51582E-05 1.10952E-20
6.87277E-05 9.97311E-21
7.23925E-05 8.98939E-21
7.61524E-05 8.12401E-21
9.21439E-05 5.54978E-21
1.09658E-04 3.91906E-21
1.28695E-04 2.84531E-21
1.49255E-04 2.11588E-21
1.71338E-04 1.60574E-21
1.94942E-04 1.24050E-21
2.20070E-04 9.73447E-22
2.46720E-04 7.74355E-22
2.74892E-04 6.23773E-22
3.04586E-04 5.08084E-22
3.35803E-04 4.18016E-22
3.68542E-04 3.47045E-22
4.02802E-04 2.90522E-22
4.38585E-04 2.45048E-22
4.75889E-04 2.08135E-22
5.14715E-04 1.77917E-22
5.55063E-04 1.52989E-22
5.96931E-04 1.32279E-22
6.40321E-04 1.14957E-22
6.85233E-04 1.00380E-22
7.31665E-04 8.80417E-23
7.79618E-04 7.75423E-23
8.29092E-04 6.85624E-23
8.80086E-04 6.08454E-23
9.32601E-04 5.41844E-23
9.86636E-04 4.84102E-23
1.04219E-03 4.33852E-23
1.09927E-03 3.89956E-23
1.15786E-03 3.51472E-23
1.21797E-03 3.17622E-23
1.27961E-03 2.87749E-23
1.34276E-03 2.61308E-23
1.40743E-03 2.37834E-23
1.47362E-03 2.16939E-23
1.54133E-03 1.98288E-23
1.61056E-03 1.81599E-23
1.68131E-03 1.66629E-23
1.75357E-03 1.53170E-23
1.82735E-03 1.41044E-23
1.90265E-03 1.30093E-23
1.97947E-03 1.20185E-23
2.05780E-03 1.11203E-23
2.13765E-03 1.03044E-23
2.21902E-03 9.56194E-24
2.30190E-03 8.88516E-24
2.38630E-03 8.26723E-24
2.47222E-03 7.70208E-24
2.55965E-03 7.18439E-24
2.64859E-03 6.70948E-24
2.73905E-03 6.27316E-24
2.83103E-03 5.87173E-24
2.92452E-03 5.50190E-24
3.01952E-03 5.16072E-24
3.11604E-03 4.84559E-24
3.21407E-03 4.55414E-24
3.31362E-03 4.28427E-24
3.41468E-03 4.03409E-24
3.51725E-03 3.80191E-24
3.62133E-03 3.58619E-24
3.72692E-03 3.38555E-24
3.83403E-03 3.19874E-24
3.94265E-03 3.02464E-24
4.05278E-03 2.86223E-24
4.16442E-03 2.71056E-24
4.27757E-03 2.56881E-24
4.39223E-03 2.43620E-24
4.50840E-03 2.31203E-24
4.62608E-03 2.19568E-24
4.74527E-03 2.08655E-24
4.86597E-03 1.98411E-24
4.98817E-03 1.88788E-24
5.11188E-03 1.79741E-24
5.23711E-03 1.71230E-24
5.36383E-03 1.63216E-24
5.49207E-03 1.55666E-24
5.62181E-03 1.48547E-24
5.75306E-03 1.41830E-24
5.88581E-03 1.35488E-24
6.02007E-03 1.29497E-24
6.15583E-03 1.23833E-24
6.29310E-03 1.18475E-24
6.43187E-03 1.13404E-24
6.57214E-03 1.08601E-24
6.71392E-03 1.04049E-24
6.85720E-03 9.97335E-25
7.00198E-03 9.56392E-25
7.14827E-03 9.17527E-25
7.29605E-03 8.80616E-25
7.44534E-03 8.45541E-25
7.59612E-03 8.12194E-25
7.97965E-03 7.35739E-25
8.37255E-03 6.68067E-25
8.77480E-03 6.07995E-25
9.18641E-03 5.54521E-25
9.60736E-03 5.06795E-25
1.00376E-02 4.64091E-25
1.04773E-02 4.25788E-25
1.09262E-02 3.91353E-25
1.13844E-02 3.60327E-25
1.18520E-02 3.32312E-25
1.23288E-02 3.06966E-25
1.28150E-02 2.83988E-25
1.33104E-02 2.63118E-25
1.38150E-02 2.44128E-25
1.43290E-02 2.26819E-25
1.48521E-02 2.11016E-25
1.53845E-02 1.96563E-25
1.59262E-02 1.83326E-25
1.64770E-02 1.71182E-25
1.70371E-02 1.60026E-25
1.76063E-02 1.49763E-25
1.81848E-02 1.40309E-25
1.87724E-02 1.31588E-25
1.93692E-02 1.23532E-25
1.99751E-02 1.16083E-25
2.05901E-02 1.09186E-25
2.12143E-02 1.02793E-25
2.18476E-02 9.68598E-26
2.24900E-02 9.13479E-26
2.31415E-02 8.62218E-26
2.38021E-02 8.14495E-26
2.44717E-02 7.70022E-26
2.51504E-02 7.28536E-26
2.58382E-02 6.89800E-26
2.65349E-02 6.53598E-26
2.72407E-02 6.19735E-26
2.79555E-02 5.88032E-26
2.86793E-02 5.58324E-26
2.94120E-02 5.30465E-26
3.01537E-02 5.04316E-26
3.09043E-02 4.79755E-26
3.16639E-02 4.56666E-26
3.24324E-02 4.34946E-26
3.32098E-02 4.14498E-26
3.39961E-02 3.95233E-26
3.47912E-02 3.77072E-26
3.55952E-02 3.59938E-26
3.64081E-02 3.43763E-26
3.72297E-02 3.28483E-26
3.80602E-02 3.14040E-26
3.88995E-02 3.00379E-26
3.97476E-02 2.87450E-26
4.06044E-02 2.75207E-26
4.14700E-02 2.63606E-26
4.23443E-02 2.52607E-26
4.32273E-02 2.42174E-26
4.41190E-02 2.32271E-26
4.50194E-02 2.22867E-26
4.59284E-02 2.13933E-26
4.68461E-02 2.05439E-26
4.87074E-02 1.89674E-26
5.06030E-02 1.75386E-26
5.25328E-02 1.62411E-26
5.44967E-02 1.50609E-26
5.64946E-02 1.39854E-26
5.85262E-02 1.30036E-26
6.05914E-02 1.21060E-26
6.26901E-02 1.12841E-26
6.48222E-02 1.05303E-26
6.69873E-02 9.83808E-27
6.91854E-02 9.20139E-27
7.14163E-02 8.61502E-27
7.36799E-02 8.07429E-27
7.59760E-02 7.57501E-27
7.83043E-02 7.11342E-27
8.06647E-02 6.68618E-27
8.30571E-02 6.29028E-27
8.54812E-02 5.92299E-27
8.79369E-02 5.58188E-27
9.04240E-02 5.26475E-27
9.29422E-02 4.96961E-27
9.54915E-02 4.69466E-27
9.80716E-02 4.43827E-27
1.00682E-01 4.19896E-27
1.03323E-01 3.97539E-27
1.05995E-01 3.76633E-27
1.08696E-01 3.57068E-27
1.11427E-01 3.38742E-27
1.14188E-01 3.21562E-27
1.16978E-01 3.05443E-27
1.19797E-01 2.90309E-27
1.22645E-01 2.76088E-27
1.25522E-01 2.62715E-27
1.28428E-01 2.50131E-27
1.31361E-01 2.38279E-27
1.34323E-01 2.27112E-27
1.37313E-01 2.16580E-27
1.40330E-01 2.06642E-27
1.43375E-01 1.97258E-27
1.46447E-01 1.88392E-27
1.49545E-01 1.80010E-27
1.52671E-01 1.72081E-27
1.55823E-01 1.64575E-27
1.59001E-01 1.57467E-27
1.62205E-01 1.50731E-27
1.65435E-01 1.44344E-27
1.68690E-01 1.38285E-27
1.71970E-01 1.32534E-27
1.75276E-01 1.27073E-27
1.78606E-01 1.21883E-27
1.81961E-01 1.16950E-27
1.85340E-01 1.12259E-27
1.88743E-01 1.07795E-27
1.92169E-01 1.03545E-27
1.95619E-01 9.94974E-28
1.99092E-01 9.56406E-28
2.02589E-01 9.19642E-28
2.06107E-01 8.84580E-28
2.09649E-01 8.51128E-28
2.13212E-01 8.19199E-28
2.16797E-01 7.88711E-28
2.20404E-01 7.59586E-28
2.24032E-01 7.31756E-28
2.27680E-01 7.05148E-28
2.31350E-01 6.79702E-28
2.35040E-01 6.55357E-28
2.38751E-01 6.32056E-28
2.42481E-01 6.09749E-28
2.46231E-01 5.88383E-28
2.50000E-01 5.67912E-28
2.53788E-01 5.48293E-28
2.57595E-01 5.29483E-28
2.61421E-01 5.11443E-28
2.65264E-01 4.94136E-28
2.69126E-01 4.77527E-28
2.73005E-01 4.61583E-28
2.76901E-01 4.46272E-28
2.80814E-01 4.31565E-28
2.84744E-01 4.17434E-28
2.88691E-01 4.03852E-28
2.92653E-01 3.90792E-28
2.96632E-01 3.78234E-28
3.00625E-01 3.66153E-28
3.04634E-01 3.54528E-28
3.08658E-01 3.43341E-28
3.12697E-01 3.32569E-28
3.16749E-01 3.22195E-28
3.20816E-01 3.12203E-28
3.24896E-01 3.02576E-28
3.28990E-01 2.93298E-28
3.33097E-01 2.84354E-28
3.37216E-01 2.75730E-28
3.41348E-01 2.67412E-28
3.45492E-01 2.59388E-28
3.49647E-01 2.51645E-28
3.53814E-01 2.44173E-28
3.57992E-01 2.36960E-28
3.62181E-01 2.29994E-28
3.66381E-01 2.23268E-28
3.70590E-01 2.16770E-28
3.74810E-01 2.10492E-28
3.79039E-01 2.04424E-28
3.83277E-01 1.98559E-28
3.87524E-01 1.92889E-28
3.91780E-01 1.87406E-28
3.96044E-01 1.82103E-28
4.00316E-01 1.76973E-28
4.04596E-01 1.72008E-28
4.08882E-01 1.67205E-28
4.13176E-01 1.62555E-28
4.17476E-01 1.58053E-28
4.21783E-01 1.53694E-28
4.26095E-01 1.49472E-28
4.30413E-01 1.45383E-28
4.34737E-01 1.41421E-28
4.39065E-01 1.37583E-28
4.43398E-01 1.33862E-28
4.47736E-01 1.30255E-28
4.52077E-01 1.26759E-28
4.56422E-01 1.23369E-28
4.60770E-01 1.20080E-28
4.65122E-01 1.16891E-28
4.69476E-01 1.13797E-28
4.73832E-01 1.10795E-28
4.78190E-01 1.07882E-28
4.82550E-01 1.05054E-28
4.86912E-01 1.02309E-28
4.91274E-01 9.96442E-29
4.95637E-01 9.70568E-29
5.00000E-01 9.45439E-29
5.04363E-01 9.21030E-29
5.08726E-01 8.97317E-29
5.13088E-01 8.74283E-29
5.17450E-01 8.51896E-29
5.21810E-01 8.30142E-29
5.26168E-01 8.08997E-29
5.30524E-01 7.88440E-29
5.34878E-01 7.68452E-29
5.39230E-01 7.49022E-29
5.43578E-01 7.30124E-29
5.47923E-01 7.11743E-29
5.52264E-01 6.93864E-29
5.56602E-01 6.76470E-29
5.60935E-01 6.59547E-29
5.65263E-01 6.43082E-29
5.69587E-01 6.27053E-29
5.73905E-01 6.11456E-29
5.78217E-01 5.96270E-29
5.82524E-01 5.81487E-29
5.86824E-01 5.67094E-29
5.91118E-01 5.53079E-29
5.95404E-01 5.39429E-29
5.99684E-01 5.26135E-29
6.03956E-01 5.13186E-29
6.08220E-01 5.00573E-29
6.12476E-01 4.88281E-29
6.16723E-01 4.76303E-29
6.20961E-01 4.64634E-29
6.25190E-01 4.53262E-29
6.29410E-01 4.42175E-29
6.33619E-01 4.31369E-29
6.37819E-01 4.20833E-29
6.42008E-01 4.10563E-29
6.46186E-01 4.00547E-29
6.50353E-01 3.90784E-29
6.54508E-01 3.81259E-29
6.58652E-01 3.71971E-29
6.62784E-01 3.62910E-29
6.66903E-01 3.54073E-29
6.71010E-01 3.45451E-29
6.75104E-01 3.37038E-29
6.79184E-01 3.28828E-29
6.83251E-01 3.20820E-29
6.87303E-01 3.13002E-29
6.91342E-01 3.05375E-29
6.95366E-01 2.97928E-29
6.99375E-01 2.90659E-29
7.03368E-01 2.83563E-29
7.07347E-01 2.76635E-29
7.11309E-01 2.69871E-29
7.15256E-01 2.63268E-29
7.19186E-01 2.56819E-29
7.23099E-01 2.50522E-29
7.26995E-01 2.44372E-29
7.30874E-01 2.38366E-29
7.34736E-01 2.32499E-29
7.38579E-01 2.26769E-29
7.42405E-01 2.21170E-29
7.46212E-01 2.15701E-29
7.50000E-01 2.10359E-29
7.53769E-01 2.05139E-29
7.57519E-01 2.00037E-29
7.61249E-01 1.95053E-29
7.64960E-01 1.90182E-29
7.68650E-01 1.85422E-29
7.72320E-01 1.80770E-29
7.75968E-01 1.76225E-29
7.79596E-01 1.71781E-29
7.83203E-01 1.67438E-29
7.86788E-01 1.63192E-29
7.90351E-01 1.59043E-29
7.93893E-01 1.54984E-29
7.97411E-01 1.51021E-29
8.00908E-01 1.47143E-29
8.04381E-01 1.43353E-29
8.07831E-01 1.39647E-29
8.11257E-01 1.36024E-29
8.14660E-01 1.32481E-29
8.18039E-01 1.29018E-29
8.21394E-01 1.25630E-29
8.24724E-01 1.22318E-29
8.28030E-01 1.19079E-29
8.31310E-01 1.15912E-29
8.34565E-01 1.12815E-29
8.37795E-01 1.09787E-29
8.40999E-01 1.06825E-29
8.44177E-01 1.03929E-29
8.47329E-01 1.01098E-29
8.50455E-01 9.83265E-30
8.53553E-01 9.56186E-30
8.56625E-01 9.29691E-30
8.59670E-01 9.03786E-30
8.62687E-01 8.78459E-30
8.65677E-01 8.53697E-30
8.68639E-01 8.29477E-30
8.71572E-01 8.05780E-30
8.74478E-01 7.82619E-30
8.77355E-01 7.59962E-30
8.80203E-01 7.37823E-30
8.83022E-01 7.16165E-30
8.85812E-01 6.94991E-30
8.88573E-01 6.74288E-30
8.91304E-01 6.54033E-30
8.94005E-01 6.34266E-30
8.96677E-01 6.14916E-30
8.99318E-01 5.95998E-30
9.01928E-01 5.77524E-30
9.04508E-01 5.59455E-30
9.07058E-01 5.41793E-30
9.09576E-01 5.24545E-30
9.12063E-01 5.07685E-30
9.14519E-01 4.91195E-30
9.16943E-01 4.75101E-30
9.19335E-01 4.59376E-30
9.21696E-01 4.44019E-30
9.24024E-01 4.29011E-30
9.26320E-01 4.14358E-30
9.28584E-01 4.00052E-30
9.30815E-01 3.86080E-30
9.33013E-01 3.72436E-30
9.35178E-01 3.59130E-30
9.37310E-01 3.46142E-30
9.39409E-01 3.33461E-30
9.41474E-01 3.21092E-30
9.43505E-01 3.09031E-30
9.45503E-01 2.97273E-30
9.47467E-01 2.85792E-30
9.49397E-01 2.74612E-30
9.51293E-01 2.63724E-30
9.53154E-01 2.53112E-30
9.54981E-01 2.42772E-30
9.56773E-01 2.32706E-30
9.58530E-01 2.22907E-30
9.60252E-01 2.13372E-30
9.61940E-01 2.04098E-30
9.63592E-01 1.95075E-30
9.65209E-01 1.86303E-30
9.66790E-01 1.77784E-30
9.68336E-01 1.69504E-30
9.69846E-01 1.61472E-30
9.71321E-01 1.53671E-30
9.72759E-01 1.46107E-30
9.74162E-01 1.38782E-30
9.75528E-01 1.31675E-30
9.76858E-01 1.24806E-30
9.78152E-01 1.18148E-30
9.79410E-01 1.11723E-30
9.80631E-01 1.05511E-30
9.81815E-01 9.95117E-31
9.82963E-01 9.37263E-31
9.84074E-01 8.81536E-31
9.85148E-01 8.27845E-31
9.86185E-01 7.76222E-31
9.87185E-01 7.26666E-31
9.88148E-01 6.79204E-31
9.89074E-01 6.33748E-31
9.89962E-01 5.90205E-31
9.90814E-01 5.48640E-31
9.91627E-01 5.09100E-31
9.92404E-01 4.71465E-31
9.93143E-01 4.35735E-31
9.93844E-01 4.01944E-31
9.94508E-01 3.70080E-31
9.95134E-01 3.40062E-31
9.95722E-01 3.11934E-31
9.96273E-01 2.85606E-31
9.96786E-01 2.61231E-31
9.97261E-01 2.38633E-31
9.97698E-01 2.17932E-31
9.98097E-01 1.99043E-31
9.98459E-01 1.81979E-31
9.98782E-01 1.66716E-31
9.99067E-01 1.53266E-31
9.99315E-01 1.41609E-31
9.99524E-01 1.31802E-31
9.99695E-01 1.23698E-31
9.99829E-01 1.17458E-31
9.99924E-01 1.12970E-31
9.99981E-01 1.10331E-31
1.00000E+00 1.09578E-31
