 #  Total cross section table (last run of 'elscata').
 #
 #  Z =   1,   projectile: electron
 #
 #   Energy         ECS         TCS1         TCS2         ABSCS      error
 #    (eV)        (cm**2)      (cm**2)      (cm**2)      (cm**2)
 #--------------------------------------------------------------------------
   1.00000E+02  4.84185E-17  7.14205E-18  1.43434E-17  7.58372E-17  9.8E-07
   1.25000E+02  3.75626E-17  4.86799E-18  1.00484E-17  6.71098E-17  1.5E-04
   1.50000E+02  3.05716E-17  3.59351E-18  7.54779E-18  5.96117E-17  1.3E-04
   1.75000E+02  2.56628E-17  2.78677E-18  5.92894E-18  5.34601E-17  6.1E-05
   2.00000E+02  2.20198E-17  2.23691E-18  4.80852E-18  4.84025E-17  1.5E-05
   2.50000E+02  1.69592E-17  1.54840E-18  3.38118E-18  4.06548E-17  1.0E-04
   3.00000E+02  1.35684E-17  1.14003E-18  2.51921E-18  3.50312E-17  1.6E-04
   3.50000E+02  1.11998E-17  8.74973E-19  1.94907E-18  3.07753E-17  1.1E-04
   4.00000E+02  9.51380E-18  6.95753E-19  1.56097E-18  2.74454E-17  3.6E-05
   4.50000E+02  8.25609E-18  5.68244E-19  1.28314E-18  2.47693E-17  9.6E-05
   5.00000E+02  7.28383E-18  4.73941E-19  1.07645E-18  2.25718E-17  1.5E-04
   6.00000E+02  5.88254E-18  3.45851E-19  7.93392E-19  1.91764E-17  1.2E-04
   7.00000E+02  4.92431E-18  2.64661E-19  6.12169E-19  1.66745E-17  3.0E-04
   8.00000E+02  4.22953E-18  2.09709E-19  4.88486E-19  1.47539E-17  3.5E-05
   9.00000E+02  3.70359E-18  1.70660E-19  3.99935E-19  1.32327E-17  1.7E-04
   1.00000E+03  3.29215E-18  1.41848E-19  3.34170E-19  1.19979E-17  7.0E-05
   1.25000E+03  2.57298E-18  9.57034E-20  2.27899E-19  9.73344E-18  1.1E-04
   1.50000E+03  2.10933E-18  6.92634E-20  1.66317E-19  8.19243E-18  5.6E-03
   1.75000E+03  1.78619E-18  5.26318E-20  1.27234E-19  7.07553E-18  9.3E-03
   2.00000E+03  1.54838E-18  4.14548E-20  1.00778E-19  6.22861E-18  9.0E-03
   2.50000E+03  1.22224E-18  2.77723E-20  6.81188E-20  5.02902E-18  6.0E-03
   3.00000E+03  1.00937E-18  1.99922E-20  4.93736E-20  4.21986E-18  7.1E-03
   3.50000E+03  8.59655E-19  1.51279E-20  3.75678E-20  3.63704E-18  7.9E-03
   4.00000E+03  7.48690E-19  1.18749E-20  2.96255E-20  3.19715E-18  1.0E-02
   4.50000E+03  6.63190E-19  9.58733E-21  2.40124E-20  2.85333E-18  7.2E-03
   5.00000E+03  5.95311E-19  7.91462E-21  1.98906E-20  2.57716E-18  7.4E-03
   6.00000E+03  4.94389E-19  5.67635E-21  1.43466E-20  2.16102E-18  3.4E-02
   7.00000E+03  4.22981E-19  4.28332E-21  1.08757E-20  1.86232E-18  4.1E-02
   8.00000E+03  3.69811E-19  3.35508E-21  8.55166E-21  1.63747E-18  2.5E-02
   9.00000E+03  3.28693E-19  2.70422E-21  6.91548E-21  1.46207E-18  2.6E-02
   1.00000E+04  2.95951E-19  2.22946E-21  5.71783E-21  1.32142E-18  2.1E-02
   1.25000E+04  2.32084E-19  1.48047E-21  3.81925E-21  1.06748E-18  3.1E-06
   1.50000E+04  1.94710E-19  1.05966E-21  2.74646E-21  8.97605E-19  4.7E-06
   1.75000E+04  1.68032E-19  7.98712E-22  2.07809E-21  7.75967E-19  3.6E-06
   2.00000E+04  1.48035E-19  6.25295E-22  1.63221E-21  6.84568E-19  4.3E-06
   2.50000E+04  1.20055E-19  4.15568E-22  1.09059E-21  5.56355E-19  4.8E-06
   3.00000E+04  1.01416E-19  2.97824E-22  7.84965E-22  4.70702E-19  6.8E-06
   3.50000E+04  8.81096E-20  2.24869E-22  5.94829E-22  4.09444E-19  5.8E-06
   4.00000E+04  7.81358E-20  1.76402E-22  4.68084E-22  3.63480E-19  6.5E-06
   4.50000E+04  7.03826E-20  1.42486E-22  3.79131E-22  3.27646E-19  6.8E-06
   5.00000E+04  6.41835E-20  1.17777E-22  3.14160E-22  2.99029E-19  6.9E-06
   6.00000E+04  5.48924E-20  8.48304E-23  2.27254E-22  2.56026E-19  1.1E-07
   7.00000E+04  4.82637E-20  6.43842E-23  1.73114E-22  2.25323E-19  2.3E-07
   8.00000E+04  4.32985E-20  5.07740E-23  1.36958E-22  2.02294E-19  6.3E-07
   9.00000E+04  3.94417E-20  4.12285E-23  1.11528E-22  1.84395E-19  1.1E-07
   1.00000E+05  3.63608E-20  3.42573E-23  9.29085E-23  1.70087E-19  1.1E-07
   1.25000E+05  3.08295E-20  2.32260E-23  6.33380E-23  1.44378E-19  1.1E-07
   1.50000E+05  2.71580E-20  1.69765E-23  4.65056E-23  1.27298E-19  1.3E-07
   1.75000E+05  2.45481E-20  1.30652E-23  3.59283E-23  1.15150E-19  3.2E-05
   2.00000E+05  2.26010E-20  1.04390E-23  2.88015E-23  1.06085E-19  3.6E-05
   2.50000E+05  1.98978E-20  7.21227E-24  2.00076E-23  9.34955E-20  3.9E-05
   3.00000E+05  1.81184E-20  5.35770E-24  1.49272E-23  8.52080E-20  2.1E-04
   3.50000E+05  1.68647E-20  4.18082E-24  1.16894E-23  7.93683E-20  8.0E-04
   4.00000E+05  1.59380E-20  3.38015E-24  9.47856E-24  7.50495E-20  2.4E-03
   4.50000E+05  1.52280E-20  2.80663E-24  7.88982E-24  7.17354E-20  5.8E-03
   5.00000E+05  1.46688E-20  2.37920E-24  6.70248E-24  6.91155E-20  1.3E-02
   6.00000E+05  1.38490E-20  1.79117E-24  5.06333E-24  6.52322E-20  4.4E-02
   7.00000E+05  1.32821E-20  1.41100E-24  3.99936E-24  6.27354E-20  9.0E-05
   8.00000E+05  1.28706E-20  1.14820E-24  3.26144E-24  6.08362E-20  1.0E-04
   9.00000E+05  1.25607E-20  9.57432E-25  2.72435E-24  5.94105E-20  1.1E-04
   1.00000E+06  1.23206E-20  8.13680E-25  2.31869E-24  5.83095E-20  8.0E-07
   1.25000E+06  1.18345E-20  5.71399E-25  1.63219E-24  0.00000E+00  8.7E-04
   1.50000E+06  1.15819E-20  4.29774E-25  1.23014E-24  0.00000E+00  9.1E-04
   1.75000E+06  1.14164E-20  3.37039E-25  9.66190E-25  0.00000E+00  9.5E-04
   2.00000E+06  1.13005E-20  2.72497E-25  7.82121E-25  0.00000E+00  9.7E-04
   2.50000E+06  1.11541E-20  1.90145E-25  5.46761E-25  0.00000E+00  7.6E-04
   3.00000E+06  1.10726E-20  1.41068E-25  4.06192E-25  0.00000E+00  7.8E-04
   3.50000E+06  1.10215E-20  1.09233E-25  3.14861E-25  0.00000E+00  8.0E-04
   4.00000E+06  1.09837E-20  8.73031E-26  2.51864E-25  0.00000E+00  8.1E-04
   4.50000E+06  1.09605E-20  7.15206E-26  2.06482E-25  0.00000E+00  8.2E-04
   5.00000E+06  1.09402E-20  5.97431E-26  1.72587E-25  0.00000E+00  8.3E-04
   6.00000E+06  1.09196E-20  4.36350E-26  1.26184E-25  0.00000E+00  8.5E-04
   7.00000E+06  1.09015E-20  3.33526E-26  9.65294E-26  0.00000E+00  8.5E-04
   8.00000E+06  1.08892E-20  2.63728E-26  7.63812E-26  0.00000E+00  8.6E-04
   9.00000E+06  1.08808E-20  2.14080E-26  6.20391E-26  0.00000E+00  8.7E-04
   1.00000E+07  1.08722E-20  1.77448E-26  5.14502E-26  0.00000E+00  8.7E-04
   1.25000E+07  1.08576E-20  1.18871E-26  3.45037E-26  0.00000E+00  8.8E-04
   1.50000E+07  1.08478E-20  8.54374E-27  2.48209E-26  0.00000E+00  8.9E-04
   1.75000E+07  1.08437E-20  6.45019E-27  1.87528E-26  0.00000E+00  8.9E-04
   2.00000E+07  1.08399E-20  5.04984E-27  1.46913E-26  0.00000E+00  1.0E-03
   2.50000E+07  1.08382E-20  3.34639E-27  9.74681E-27  0.00000E+00  1.2E-03
   3.00000E+07  1.08377E-20  2.38586E-27  6.95633E-27  0.00000E+00  1.5E-03
   3.50000E+07  1.08412E-20  1.78970E-27  5.22316E-27  0.00000E+00  1.7E-03
   4.00000E+07  1.08441E-20  1.39370E-27  4.07118E-27  0.00000E+00  2.0E-03
   4.50000E+07  1.08452E-20  1.11681E-27  3.26526E-27  0.00000E+00  2.2E-03
   5.00000E+07  1.08467E-20  9.15491E-28  2.67900E-27  0.00000E+00  2.5E-03
   6.00000E+07  1.08529E-20  6.48069E-28  1.89971E-27  0.00000E+00  3.0E-03
   7.00000E+07  1.08533E-20  4.83050E-28  1.41835E-27  0.00000E+00  3.5E-03
   8.00000E+07  1.08510E-20  3.73990E-28  1.09990E-27  0.00000E+00  4.0E-03
   9.00000E+07  1.08497E-20  2.98108E-28  8.78098E-28  0.00000E+00  4.5E-03
   1.00000E+08  1.08478E-20  2.43168E-28  7.17323E-28  0.00000E+00  5.0E-03
   1.25000E+08  1.08436E-20  1.57542E-28  4.66259E-28  0.00000E+00  6.2E-03
   1.50000E+08  1.08354E-20  1.10227E-28  3.27098E-28  0.00000E+00  7.4E-03
   1.75000E+08  1.08359E-20  8.13796E-29  2.42000E-28  0.00000E+00  8.6E-03
   2.00000E+08  1.08345E-20  6.25130E-29  1.86198E-28  0.00000E+00  9.9E-03
   2.50000E+08  1.08326E-20  4.01711E-29  1.19919E-28  0.00000E+00  1.0E+00
   3.00000E+08  1.08328E-20  2.79626E-29  8.35892E-29  0.00000E+00  1.0E+00
   3.50000E+08  1.08364E-20  2.05755E-29  6.15612E-29  0.00000E+00  1.0E+00
   4.00000E+08  1.08406E-20  1.57705E-29  4.72131E-29  0.00000E+00  1.0E+00
   4.50000E+08  1.08397E-20  1.24700E-29  3.73479E-29  0.00000E+00  1.0E+00
   5.00000E+08  1.08412E-20  1.01074E-29  3.02813E-29  0.00000E+00  1.0E+00
   6.00000E+08  1.08416E-20  7.02632E-30  2.10590E-29  0.00000E+00  1.0E+00
   7.00000E+08  1.08334E-20  5.16586E-30  1.54867E-29  0.00000E+00  1.0E+00
   8.00000E+08  1.08204E-20  3.95736E-30  1.18657E-29  0.00000E+00  1.0E+00
   9.00000E+08  1.08019E-20  3.12831E-30  9.38094E-30  0.00000E+00  1.0E+00
   1.00000E+09  1.07774E-20  2.53502E-30  7.60244E-30  0.00000E+00  1.0E+00
