 #
 # Subroutine ELSEPA. Elastic scattering of electrons and positrons
 #                    by neutral atoms and positive ions
 #
 # Projectile: positron
 # Kinetic energy = 5.00000E+07 eV = 1.83747E+06 a.u.
 #
 # WARNING: High-energy factorization with free-atom DF screening.
 #          Absorption, polarization and exchange corrections are
 #          switched off.
 #          Phase shifts are calculated for the bare nucleus.
 #          Scattering amplitudes are not evaluated.
 #
 # Element: Mn,  Z =  25,  atomic weight = 5.49380E+01 g/mol
 #
 # Nuclear model: Fermi distribution
 #                Average radius = 4.06763E-13 cm
 #                Skin thickness = 5.46000E-14 cm
 #
 # Number of electrons = 25
 #
 # Total elastic cross section = 1.94961E-18 cm**2 = 6.96219E-02 a0**2
 # 1st transport cross section = 4.77082E-25 cm**2 = 1.70369E-08 a0**2
 # 2nd transport cross section = 1.39989E-24 cm**2 = 4.99911E-08 a0**2
 #
 #
 # Differential cross section:                       MU=(1-COS(THETA))/2
 #
 #  THETA        MU          DCS          DCS        Sherman      error
 #  (deg)                 (cm**2/sr)   (a0**2/sr)    function
 #----------------------------------------------------------------------
0.00000E+00 5.45556E-11
7.61557E-13 5.45107E-11
1.18994E-12 5.44855E-11
1.71346E-12 5.44548E-11
2.33225E-12 5.44185E-11
3.04617E-12 5.43767E-11
3.85530E-12 5.43295E-11
4.75964E-12 5.42767E-11
5.75917E-12 5.42185E-11
6.85391E-12 5.41548E-11
8.04379E-12 5.40858E-11
9.32893E-12 5.40114E-11
1.07092E-11 5.39317E-11
1.21847E-11 5.38467E-11
1.37554E-11 5.37565E-11
1.54213E-11 5.36610E-11
1.71823E-11 5.35604E-11
1.90386E-11 5.34547E-11
2.09900E-11 5.33439E-11
2.30367E-11 5.32281E-11
2.51785E-11 5.31073E-11
2.74156E-11 5.29817E-11
2.97478E-11 5.28512E-11
3.21752E-11 5.27159E-11
3.46979E-11 5.25759E-11
3.73157E-11 5.24313E-11
4.00286E-11 5.22821E-11
4.28368E-11 5.21283E-11
4.57402E-11 5.19701E-11
4.87388E-11 5.18075E-11
5.18325E-11 5.16406E-11
5.50215E-11 5.14694E-11
5.83057E-11 5.12941E-11
6.16850E-11 5.11148E-11
6.51595E-11 5.09314E-11
6.87293E-11 5.07440E-11
7.23943E-11 5.05528E-11
7.61544E-11 5.03579E-11
1.18991E-10 4.82159E-11
1.71347E-10 4.57937E-11
2.33223E-10 4.31765E-11
3.04617E-10 4.04483E-11
3.85531E-10 3.76843E-11
4.75965E-10 3.49486E-11
5.75917E-10 3.22923E-11
6.85389E-10 2.97537E-11
8.04380E-10 2.73583E-11
9.32891E-10 2.51223E-11
1.07092E-09 2.30544E-11
1.21847E-09 2.11552E-11
1.37554E-09 1.94203E-11
1.54213E-09 1.78420E-11
1.71823E-09 1.64101E-11
1.90386E-09 1.51136E-11
2.09900E-09 1.39408E-11
2.30367E-09 1.28803E-11
2.51785E-09 1.19210E-11
2.74156E-09 1.10526E-11
2.97478E-09 1.02655E-11
3.21752E-09 9.55055E-12
3.46978E-09 8.90027E-12
3.73156E-09 8.30776E-12
4.00286E-09 7.76678E-12
4.28368E-09 7.27179E-12
4.57402E-09 6.81789E-12
4.87388E-09 6.40076E-12
5.18326E-09 6.01660E-12
5.50215E-09 5.66207E-12
5.83057E-09 5.33420E-12
6.16850E-09 5.03039E-12
6.51596E-09 4.74835E-12
6.87293E-09 4.48593E-12
7.23942E-09 4.24115E-12
7.61544E-09 4.01277E-12
1.18991E-08 2.35084E-12
1.71347E-08 1.45780E-12
2.33223E-08 9.32083E-13
3.04617E-08 6.12668E-13
3.85531E-08 4.14104E-13
4.75965E-08 2.87951E-13
5.75917E-08 2.05927E-13
6.85389E-08 1.51261E-13
8.04380E-08 1.13873E-13
9.32891E-08 8.76387E-14
1.07092E-07 6.87701E-14
1.21847E-07 5.48760E-14
1.37554E-07 4.44243E-14
1.54213E-07 3.64104E-14
1.71823E-07 3.01609E-14
1.90386E-07 2.52145E-14
2.09900E-07 2.12489E-14
2.30367E-07 1.80332E-14
2.51785E-07 1.53989E-14
2.74156E-07 1.32239E-14
2.97478E-07 1.14147E-14
3.21752E-07 9.89821E-15
3.46978E-07 8.62074E-15
3.73156E-07 7.53893E-15
4.00286E-07 6.61819E-15
4.28368E-07 5.83095E-15
4.57402E-07 5.15501E-15
4.87388E-07 4.57238E-15
5.18325E-07 4.06832E-15
5.50215E-07 3.63073E-15
5.83057E-07 3.24959E-15
6.16850E-07 2.91652E-15
6.51596E-07 2.62457E-15
6.87293E-07 2.36785E-15
7.23942E-07 2.14143E-15
7.61543E-07 1.94123E-15
1.18991E-06 8.13234E-16
1.71347E-06 3.98790E-16
2.33223E-06 2.18334E-16
3.04617E-06 1.29526E-16
3.85531E-06 8.16717E-17
4.75964E-06 5.40199E-17
5.75916E-06 3.71327E-17
6.85388E-06 2.63523E-17
8.04378E-06 1.92105E-17
9.32888E-06 1.43283E-17
1.07092E-05 1.09007E-17
1.21846E-05 8.43795E-18
1.37553E-05 6.63193E-18
1.54212E-05 5.28351E-18
1.71822E-05 4.26058E-18
1.90385E-05 3.47317E-18
2.09899E-05 2.85967E-18
2.30365E-05 2.37564E-18
2.51783E-05 1.98963E-18
2.74153E-05 1.67878E-18
2.97475E-05 1.42625E-18
3.21749E-05 1.21943E-18
3.46974E-05 1.04876E-18
3.73152E-05 9.06922E-19
4.00281E-05 7.88273E-19
4.28362E-05 6.88400E-19
4.57395E-05 6.03842E-19
4.87380E-05 5.31863E-19
5.18317E-05 4.70283E-19
5.50205E-05 4.17351E-19
5.83045E-05 3.71655E-19
6.16838E-05 3.32043E-19
6.51582E-05 2.97569E-19
6.87277E-05 2.67456E-19
7.23925E-05 2.41056E-19
7.61524E-05 2.17832E-19
9.21439E-05 1.48750E-19
1.09658E-04 1.04997E-19
1.28695E-04 7.62068E-20
1.49255E-04 5.66365E-20
1.71338E-04 4.29621E-20
1.94942E-04 3.31743E-20
2.20070E-04 2.60204E-20
2.46720E-04 2.06940E-20
2.74892E-04 1.66625E-20
3.04586E-04 1.35661E-20
3.35803E-04 1.11561E-20
3.68542E-04 9.25799E-21
4.02802E-04 7.74659E-21
4.38585E-04 6.53116E-21
4.75889E-04 5.54484E-21
5.14715E-04 4.73769E-21
5.55063E-04 4.07208E-21
5.96931E-04 3.51925E-21
6.40321E-04 3.05703E-21
6.85233E-04 2.66819E-21
7.31665E-04 2.33918E-21
7.79618E-04 2.05929E-21
8.29092E-04 1.81999E-21
8.80086E-04 1.61442E-21
9.32601E-04 1.43704E-21
9.86636E-04 1.28332E-21
1.04219E-03 1.14960E-21
1.09927E-03 1.03282E-21
1.15786E-03 9.30475E-22
1.21797E-03 8.40481E-22
1.27961E-03 7.61090E-22
1.34276E-03 6.90841E-22
1.40743E-03 6.28500E-22
1.47362E-03 5.73022E-22
1.54133E-03 5.23521E-22
1.61056E-03 4.79242E-22
1.68131E-03 4.39538E-22
1.75357E-03 4.03854E-22
1.82735E-03 3.71711E-22
1.90265E-03 3.42697E-22
1.97947E-03 3.16453E-22
2.05780E-03 2.92669E-22
2.13765E-03 2.71072E-22
2.21902E-03 2.51427E-22
2.30190E-03 2.33526E-22
2.38630E-03 2.17186E-22
2.47222E-03 2.02246E-22
2.55965E-03 1.88567E-22
2.64859E-03 1.76021E-22
2.73905E-03 1.64499E-22
2.83103E-03 1.53902E-22
2.92452E-03 1.44143E-22
3.01952E-03 1.35143E-22
3.11604E-03 1.26832E-22
3.21407E-03 1.19149E-22
3.31362E-03 1.12036E-22
3.41468E-03 1.05446E-22
3.51725E-03 9.93308E-23
3.62133E-03 9.36515E-23
3.72692E-03 8.83711E-23
3.83403E-03 8.34564E-23
3.94265E-03 7.88775E-23
4.05278E-03 7.46073E-23
4.16442E-03 7.06212E-23
4.27757E-03 6.68968E-23
4.39223E-03 6.34139E-23
4.50840E-03 6.01539E-23
4.62608E-03 5.70999E-23
4.74527E-03 5.42366E-23
4.86597E-03 5.15498E-23
4.98817E-03 4.90267E-23
5.11188E-03 4.66555E-23
5.23711E-03 4.44253E-23
5.36383E-03 4.23262E-23
5.49207E-03 4.03492E-23
5.62181E-03 3.84858E-23
5.75306E-03 3.67282E-23
5.88581E-03 3.50694E-23
6.02007E-03 3.35028E-23
6.15583E-03 3.20223E-23
6.29310E-03 3.06222E-23
6.43187E-03 2.92976E-23
6.57214E-03 2.80434E-23
6.71392E-03 2.68553E-23
6.85720E-03 2.57292E-23
7.00198E-03 2.46612E-23
7.14827E-03 2.36477E-23
7.29605E-03 2.26855E-23
7.44534E-03 2.17715E-23
7.59612E-03 2.09029E-23
7.97965E-03 1.89125E-23
8.37255E-03 1.71522E-23
8.77480E-03 1.55910E-23
9.18641E-03 1.42025E-23
9.60736E-03 1.29644E-23
1.00376E-02 1.18574E-23
1.04773E-02 1.08655E-23
1.09262E-02 9.97444E-24
1.13844E-02 9.17233E-24
1.18520E-02 8.44872E-24
1.23288E-02 7.79460E-24
1.28150E-02 7.20213E-24
1.33104E-02 6.66450E-24
1.38150E-02 6.17574E-24
1.43290E-02 5.73063E-24
1.48521E-02 5.32460E-24
1.53845E-02 4.95361E-24
1.59262E-02 4.61411E-24
1.64770E-02 4.30296E-24
1.70371E-02 4.01736E-24
1.76063E-02 3.75487E-24
1.81848E-02 3.51327E-24
1.87724E-02 3.29061E-24
1.93692E-02 3.08514E-24
1.99751E-02 2.89531E-24
2.05901E-02 2.71970E-24
2.12143E-02 2.55708E-24
2.18476E-02 2.40630E-24
2.24900E-02 2.26635E-24
2.31415E-02 2.13631E-24
2.38021E-02 2.01537E-24
2.44717E-02 1.90276E-24
2.51504E-02 1.79782E-24
2.58382E-02 1.69993E-24
2.65349E-02 1.60853E-24
2.72407E-02 1.52311E-24
2.79555E-02 1.44321E-24
2.86793E-02 1.36842E-24
2.94120E-02 1.29834E-24
3.01537E-02 1.23263E-24
3.09043E-02 1.17097E-24
3.16639E-02 1.11306E-24
3.24324E-02 1.05864E-24
3.32098E-02 1.00745E-24
3.39961E-02 9.59275E-25
3.47912E-02 9.13899E-25
3.55952E-02 8.71133E-25
3.64081E-02 8.30800E-25
3.72297E-02 7.92737E-25
3.80602E-02 7.56793E-25
3.88995E-02 7.22829E-25
3.97476E-02 6.90717E-25
4.06044E-02 6.60337E-25
4.14700E-02 6.31580E-25
4.23443E-02 6.04344E-25
4.32273E-02 5.78533E-25
4.41190E-02 5.54060E-25
4.50194E-02 5.30843E-25
4.59284E-02 5.08806E-25
4.68461E-02 4.87879E-25
4.87074E-02 4.49094E-25
5.06030E-02 4.14013E-25
5.25328E-02 3.82225E-25
5.44967E-02 3.53367E-25
5.64946E-02 3.27124E-25
5.85262E-02 3.03220E-25
6.05914E-02 2.81411E-25
6.26901E-02 2.61483E-25
6.48222E-02 2.43247E-25
6.69873E-02 2.26534E-25
6.91854E-02 2.11196E-25
7.14163E-02 1.97101E-25
7.36799E-02 1.84132E-25
7.59760E-02 1.72183E-25
7.83043E-02 1.61161E-25
8.06647E-02 1.50982E-25
8.30571E-02 1.41570E-25
8.54812E-02 1.32859E-25
8.79369E-02 1.24787E-25
9.04240E-02 1.17300E-25
9.29422E-02 1.10348E-25
9.54915E-02 1.03886E-25
9.80716E-02 9.78746E-26
1.00682E-01 9.22770E-26
1.03323E-01 8.70599E-26
1.05995E-01 8.21931E-26
1.08696E-01 7.76493E-26
1.11427E-01 7.34034E-26
1.14188E-01 6.94328E-26
1.16978E-01 6.57167E-26
1.19797E-01 6.22361E-26
1.22645E-01 5.89735E-26
1.25522E-01 5.59132E-26
1.28428E-01 5.30405E-26
1.31361E-01 5.03421E-26
1.34323E-01 4.78057E-26
1.37313E-01 4.54199E-26
1.40330E-01 4.31744E-26
1.43375E-01 4.10597E-26
1.46447E-01 3.90668E-26
1.49545E-01 3.71876E-26
1.52671E-01 3.54146E-26
1.55823E-01 3.37409E-26
1.59001E-01 3.21599E-26
1.62205E-01 3.06658E-26
1.65435E-01 2.92529E-26
1.68690E-01 2.79163E-26
1.71970E-01 2.66511E-26
1.75276E-01 2.54529E-26
1.78606E-01 2.43175E-26
1.81961E-01 2.32413E-26
1.85340E-01 2.22206E-26
1.88743E-01 2.12521E-26
1.92169E-01 2.03328E-26
1.95619E-01 1.94597E-26
1.99092E-01 1.86302E-26
2.02589E-01 1.78417E-26
2.06107E-01 1.70919E-26
2.09649E-01 1.63787E-26
2.13212E-01 1.57000E-26
2.16797E-01 1.50538E-26
2.20404E-01 1.44383E-26
2.24032E-01 1.38520E-26
2.27680E-01 1.32931E-26
2.31350E-01 1.27602E-26
2.35040E-01 1.22520E-26
2.38751E-01 1.17670E-26
2.42481E-01 1.13042E-26
2.46231E-01 1.08623E-26
2.50000E-01 1.04402E-26
2.53788E-01 1.00370E-26
2.57595E-01 9.65156E-27
2.61421E-01 9.28312E-27
2.65264E-01 8.93079E-27
2.69126E-01 8.59375E-27
2.73005E-01 8.27124E-27
2.76901E-01 7.96256E-27
2.80814E-01 7.66701E-27
2.84744E-01 7.38397E-27
2.88691E-01 7.11283E-27
2.92653E-01 6.85301E-27
2.96632E-01 6.60399E-27
3.00625E-01 6.36524E-27
3.04634E-01 6.13628E-27
3.08658E-01 5.91667E-27
3.12697E-01 5.70595E-27
3.16749E-01 5.50373E-27
3.20816E-01 5.30961E-27
3.24896E-01 5.12323E-27
3.28990E-01 4.94423E-27
3.33097E-01 4.77228E-27
3.37216E-01 4.60706E-27
3.41348E-01 4.44829E-27
3.45492E-01 4.29567E-27
3.49647E-01 4.14893E-27
3.53814E-01 4.00782E-27
3.57992E-01 3.87209E-27
3.62181E-01 3.74150E-27
3.66381E-01 3.61585E-27
3.70590E-01 3.49492E-27
3.74810E-01 3.37850E-27
3.79039E-01 3.26641E-27
3.83277E-01 3.15847E-27
3.87524E-01 3.05450E-27
3.91780E-01 2.95434E-27
3.96044E-01 2.85783E-27
4.00316E-01 2.76482E-27
4.04596E-01 2.67517E-27
4.08882E-01 2.58874E-27
4.13176E-01 2.50540E-27
4.17476E-01 2.42503E-27
4.21783E-01 2.34751E-27
4.26095E-01 2.27273E-27
4.30413E-01 2.20057E-27
4.34737E-01 2.13093E-27
4.39065E-01 2.06372E-27
4.43398E-01 1.99884E-27
4.47736E-01 1.93620E-27
4.52077E-01 1.87572E-27
4.56422E-01 1.81730E-27
4.60770E-01 1.76087E-27
4.65122E-01 1.70636E-27
4.69476E-01 1.65370E-27
4.73832E-01 1.60280E-27
4.78190E-01 1.55362E-27
4.82550E-01 1.50607E-27
4.86912E-01 1.46011E-27
4.91274E-01 1.41567E-27
4.95637E-01 1.37270E-27
5.00000E-01 1.33114E-27
5.04363E-01 1.29094E-27
5.08726E-01 1.25205E-27
5.13088E-01 1.21443E-27
5.17450E-01 1.17803E-27
5.21810E-01 1.14280E-27
5.26168E-01 1.10870E-27
5.30524E-01 1.07570E-27
5.34878E-01 1.04375E-27
5.39230E-01 1.01281E-27
5.43578E-01 9.82861E-28
5.47923E-01 9.53854E-28
5.52264E-01 9.25761E-28
5.56602E-01 8.98549E-28
5.60935E-01 8.72187E-28
5.65263E-01 8.46648E-28
5.69587E-01 8.21901E-28
5.73905E-01 7.97921E-28
5.78217E-01 7.74681E-28
5.82524E-01 7.52155E-28
5.86824E-01 7.30321E-28
5.91118E-01 7.09153E-28
5.95404E-01 6.88631E-28
5.99684E-01 6.68731E-28
6.03956E-01 6.49434E-28
6.08220E-01 6.30720E-28
6.12476E-01 6.12569E-28
6.16723E-01 5.94963E-28
6.20961E-01 5.77883E-28
6.25190E-01 5.61313E-28
6.29410E-01 5.45235E-28
6.33619E-01 5.29635E-28
6.37819E-01 5.14495E-28
6.42008E-01 4.99802E-28
6.46186E-01 4.85541E-28
6.50353E-01 4.71698E-28
6.54508E-01 4.58260E-28
6.58652E-01 4.45214E-28
6.62784E-01 4.32548E-28
6.66903E-01 4.20248E-28
6.71010E-01 4.08305E-28
6.75104E-01 3.96706E-28
6.79184E-01 3.85441E-28
6.83251E-01 3.74499E-28
6.87303E-01 3.63871E-28
6.91342E-01 3.53546E-28
6.95366E-01 3.43516E-28
6.99375E-01 3.33770E-28
7.03368E-01 3.24301E-28
7.07347E-01 3.15099E-28
7.11309E-01 3.06158E-28
7.15256E-01 2.97468E-28
7.19186E-01 2.89022E-28
7.23099E-01 2.80813E-28
7.26995E-01 2.72833E-28
7.30874E-01 2.65076E-28
7.34736E-01 2.57535E-28
7.38579E-01 2.50203E-28
7.42405E-01 2.43075E-28
7.46212E-01 2.36144E-28
7.50000E-01 2.29404E-28
7.53769E-01 2.22850E-28
7.57519E-01 2.16476E-28
7.61249E-01 2.10277E-28
7.64960E-01 2.04247E-28
7.68650E-01 1.98383E-28
7.72320E-01 1.92678E-28
7.75968E-01 1.87129E-28
7.79596E-01 1.81731E-28
7.83203E-01 1.76479E-28
7.86788E-01 1.71370E-28
7.90351E-01 1.66399E-28
7.93893E-01 1.61562E-28
7.97411E-01 1.56855E-28
8.00908E-01 1.52275E-28
8.04381E-01 1.47818E-28
8.07831E-01 1.43481E-28
8.11257E-01 1.39260E-28
8.14660E-01 1.35152E-28
8.18039E-01 1.31154E-28
8.21394E-01 1.27263E-28
8.24724E-01 1.23475E-28
8.28030E-01 1.19788E-28
8.31310E-01 1.16200E-28
8.34565E-01 1.12707E-28
8.37795E-01 1.09306E-28
8.40999E-01 1.05996E-28
8.44177E-01 1.02773E-28
8.47329E-01 9.96361E-29
8.50455E-01 9.65819E-29
8.53553E-01 9.36086E-29
8.56625E-01 9.07138E-29
8.59670E-01 8.78955E-29
8.62687E-01 8.51517E-29
8.65677E-01 8.24803E-29
8.68639E-01 7.98794E-29
8.71572E-01 7.73472E-29
8.74478E-01 7.48818E-29
8.77355E-01 7.24815E-29
8.80203E-01 7.01445E-29
8.83022E-01 6.78693E-29
8.85812E-01 6.56541E-29
8.88573E-01 6.34975E-29
8.91304E-01 6.13979E-29
8.94005E-01 5.93539E-29
8.96677E-01 5.73640E-29
8.99318E-01 5.54269E-29
9.01928E-01 5.35412E-29
9.04508E-01 5.17056E-29
9.07058E-01 4.99188E-29
9.09576E-01 4.81797E-29
9.12063E-01 4.64871E-29
9.14519E-01 4.48397E-29
9.16943E-01 4.32365E-29
9.19335E-01 4.16764E-29
9.21696E-01 4.01583E-29
9.24024E-01 3.86812E-29
9.26320E-01 3.72442E-29
9.28584E-01 3.58462E-29
9.30815E-01 3.44864E-29
9.33013E-01 3.31638E-29
9.35178E-01 3.18775E-29
9.37310E-01 3.06268E-29
9.39409E-01 2.94107E-29
9.41474E-01 2.82286E-29
9.43505E-01 2.70795E-29
9.45503E-01 2.59628E-29
9.47467E-01 2.48778E-29
9.49397E-01 2.38236E-29
9.51293E-01 2.27997E-29
9.53154E-01 2.18054E-29
9.54981E-01 2.08401E-29
9.56773E-01 1.99030E-29
9.58530E-01 1.89937E-29
9.60252E-01 1.81115E-29
9.61940E-01 1.72559E-29
9.63592E-01 1.64263E-29
9.65209E-01 1.56222E-29
9.66790E-01 1.48431E-29
9.68336E-01 1.40885E-29
9.69846E-01 1.33579E-29
9.71321E-01 1.26509E-29
9.72759E-01 1.19669E-29
9.74162E-01 1.13057E-29
9.75528E-01 1.06667E-29
9.76858E-01 1.00496E-29
9.78152E-01 9.45399E-30
9.79410E-01 8.87948E-30
9.80631E-01 8.32571E-30
9.81815E-01 7.79236E-30
9.82963E-01 7.27909E-30
9.84074E-01 6.78558E-30
9.85148E-01 6.31152E-30
9.86185E-01 5.85662E-30
9.87185E-01 5.42060E-30
9.88148E-01 5.00320E-30
9.89074E-01 4.60415E-30
9.89962E-01 4.22321E-30
9.90814E-01 3.86015E-30
9.91627E-01 3.51474E-30
9.92404E-01 3.18677E-30
9.93143E-01 2.87605E-30
9.93844E-01 2.58238E-30
9.94508E-01 2.30558E-30
9.95134E-01 2.04548E-30
9.95722E-01 1.80193E-30
9.96273E-01 1.57478E-30
9.96786E-01 1.36389E-30
9.97261E-01 1.16912E-30
9.97698E-01 9.90373E-31
9.98097E-01 8.27524E-31
9.98459E-01 6.80484E-31
9.98782E-01 5.49158E-31
9.99067E-01 4.33471E-31
9.99315E-01 3.33347E-31
9.99524E-01 2.48731E-31
9.99695E-01 1.79569E-31
9.99829E-01 1.25820E-31
9.99924E-01 8.74505E-32
9.99981E-01 6.44379E-32
1.00000E+00 5.67719E-32
