 #
 # Subroutine ELSEPA. Elastic scattering of electrons and positrons
 #                    by neutral atoms and positive ions
 #
 # Projectile: positron
 # Kinetic energy = 5.00000E+08 eV = 1.83747E+07 a.u.
 #
 # WARNING: High-energy factorization with free-atom DF screening.
 #          Absorption, polarization and exchange corrections are
 #          switched off.
 #          Phase shifts are calculated for the bare nucleus.
 #          Scattering amplitudes are not evaluated.
 #
 # Element: Mn,  Z =  25,  atomic weight = 5.49380E+01 g/mol
 #
 # Nuclear model: Fermi distribution
 #                Average radius = 4.06763E-13 cm
 #                Skin thickness = 5.46000E-14 cm
 #
 # Number of electrons = 25
 #
 # Total elastic cross section = 1.94767E-18 cm**2 = 6.95526E-02 a0**2
 # 1st transport cross section = 5.18211E-27 cm**2 = 1.85056E-10 a0**2
 # 2nd transport cross section = 1.55385E-26 cm**2 = 5.54889E-10 a0**2
 #
 #
 # Differential cross section:                       MU=(1-COS(THETA))/2
 #
 #  THETA        MU          DCS          DCS        Sherman      error
 #  (deg)                 (cm**2/sr)   (a0**2/sr)    function
 #----------------------------------------------------------------------
0.00000E+00 5.35666E-09
7.61557E-13 4.95149E-09
1.18994E-12 4.74436E-09
1.71346E-12 4.50988E-09
2.33225E-12 4.25612E-09
3.04617E-12 3.99119E-09
3.85530E-12 3.72233E-09
4.75964E-12 3.45573E-09
5.75917E-12 3.19639E-09
6.85391E-12 2.94790E-09
8.04379E-12 2.71304E-09
9.32893E-12 2.49354E-09
1.07092E-11 2.29021E-09
1.21847E-11 2.10317E-09
1.37554E-11 1.93204E-09
1.54213E-11 1.77614E-09
1.71823E-11 1.63452E-09
1.90386E-11 1.50614E-09
2.09900E-11 1.38989E-09
2.30367E-11 1.28468E-09
2.51785E-11 1.18942E-09
2.74156E-11 1.10307E-09
2.97478E-11 1.02476E-09
3.21752E-11 9.53633E-10
3.46979E-11 8.88928E-10
3.73157E-11 8.29953E-10
4.00286E-11 7.76093E-10
4.28368E-11 7.26802E-10
4.57402E-11 6.81596E-10
4.87388E-11 6.40047E-10
5.18325E-11 6.01778E-10
5.50215E-11 5.66457E-10
5.83057E-11 5.33741E-10
6.16850E-11 5.03417E-10
6.51595E-11 4.75265E-10
6.87293E-11 4.49083E-10
7.23943E-11 4.24691E-10
7.61544E-11 4.01933E-10
1.18991E-10 2.36004E-10
1.71347E-10 1.46808E-10
2.33223E-10 9.41215E-11
3.04617E-10 6.19945E-11
3.85531E-10 4.19593E-11
4.75965E-10 2.91991E-11
5.75917E-10 2.08884E-11
6.85389E-10 1.53404E-11
8.04380E-10 1.15469E-11
9.32891E-10 8.88578E-12
1.07092E-09 6.97166E-12
1.21847E-09 5.56250E-12
1.37554E-09 4.50285E-12
1.54213E-09 3.69067E-12
1.71823E-09 3.05753E-12
1.90386E-09 2.55653E-12
2.09900E-09 2.15492E-12
2.30367E-09 1.82931E-12
2.51785E-09 1.56242E-12
2.74156E-09 1.34181E-12
2.97478E-09 1.15834E-12
3.21752E-09 1.00472E-12
3.46978E-09 8.75314E-13
3.73156E-09 7.65693E-13
4.00286E-09 6.72363E-13
4.28368E-09 5.92537E-13
4.57402E-09 5.23971E-13
4.87388E-09 4.64846E-13
5.18326E-09 4.13678E-13
5.50215E-09 3.69242E-13
5.83057E-09 3.30508E-13
6.16850E-09 2.96656E-13
6.51596E-09 2.66980E-13
6.87293E-09 2.40886E-13
7.23942E-09 2.17874E-13
7.61544E-09 1.97523E-13
1.18991E-08 8.27799E-14
1.71347E-08 4.05962E-14
2.33223E-08 2.22292E-14
3.04617E-08 1.31892E-14
3.85531E-08 8.31743E-15
4.75965E-08 5.50224E-15
5.75917E-08 3.78306E-15
6.85389E-08 2.68518E-15
8.04380E-08 1.95776E-15
9.32891E-08 1.46048E-15
1.07092E-07 1.11127E-15
1.21847E-07 8.60316E-16
1.37554E-07 6.76272E-16
1.54213E-07 5.38847E-16
1.71823E-07 4.34573E-16
1.90386E-07 3.54317E-16
2.09900E-07 2.91742E-16
2.30367E-07 2.42376E-16
2.51785E-07 2.03013E-16
2.74156E-07 1.71320E-16
2.97478E-07 1.45573E-16
3.21752E-07 1.24482E-16
3.46978E-07 1.07073E-16
3.73156E-07 9.26024E-17
4.00286E-07 8.04942E-17
4.28368E-07 7.03009E-17
4.57402E-07 6.16705E-17
4.87388E-07 5.43241E-17
5.18325E-07 4.80393E-17
5.50215E-07 4.26373E-17
5.83057E-07 3.79735E-17
6.16850E-07 3.39300E-17
6.51596E-07 3.04105E-17
6.87293E-07 2.73356E-17
7.23942E-07 2.46396E-17
7.61543E-07 2.22679E-17
1.18991E-06 9.12399E-18
1.71347E-06 4.40050E-18
2.33223E-06 2.37529E-18
3.04617E-06 1.39229E-18
3.85531E-06 8.69140E-19
4.75964E-06 5.70196E-19
5.75916E-06 3.89417E-19
6.85388E-06 2.74928E-19
8.04378E-06 1.99585E-19
9.32888E-06 1.48370E-19
1.07092E-05 1.12576E-19
1.21846E-05 8.69536E-20
1.37553E-05 6.82222E-20
1.54212E-05 5.42732E-20
1.71822E-05 4.37134E-20
1.90385E-05 3.55993E-20
2.09899E-05 2.92871E-20
2.30365E-05 2.43131E-20
2.51783E-05 2.03505E-20
2.74153E-05 1.71626E-20
2.97475E-05 1.45747E-20
3.21749E-05 1.24566E-20
3.46974E-05 1.07098E-20
3.73152E-05 9.25883E-21
4.00281E-05 8.04559E-21
4.28362E-05 7.02474E-21
4.57395E-05 6.16073E-21
4.87380E-05 5.42547E-21
5.18317E-05 4.79659E-21
5.50205E-05 4.25618E-21
5.83045E-05 3.78973E-21
6.16838E-05 3.38545E-21
6.51582E-05 3.03368E-21
6.87277E-05 2.72645E-21
7.23925E-05 2.45714E-21
7.61524E-05 2.20910E-21
9.21439E-05 1.50618E-21
1.09658E-04 1.06139E-21
1.28695E-04 7.68985E-22
1.49255E-04 5.70403E-22
1.71338E-04 4.31784E-22
1.94942E-04 3.32666E-22
2.20070E-04 2.60300E-22
2.46720E-04 2.06483E-22
2.74892E-04 1.65801E-22
3.04586E-04 1.34596E-22
3.35803E-04 1.10343E-22
3.68542E-04 9.12699E-23
4.02802E-04 7.61068E-23
4.38585E-04 6.39333E-23
4.75889E-04 5.40720E-23
5.14715E-04 4.60171E-23
5.55063E-04 3.93877E-23
5.96931E-04 3.38927E-23
6.40321E-04 2.93083E-23
6.85233E-04 2.54603E-23
7.31665E-04 2.22120E-23
7.79618E-04 1.94555E-23
8.29092E-04 1.71046E-23
8.80086E-04 1.50905E-23
9.32601E-04 1.33572E-23
9.86636E-04 1.18595E-23
1.04219E-03 1.05604E-23
1.09927E-03 9.42933E-24
1.15786E-03 8.44125E-24
1.21797E-03 7.57522E-24
1.27961E-03 6.81381E-24
1.34276E-03 6.14241E-24
1.40743E-03 5.54871E-24
1.47362E-03 5.02233E-24
1.54133E-03 4.55444E-24
1.61056E-03 4.13755E-24
1.68131E-03 3.76523E-24
1.75357E-03 3.43199E-24
1.82735E-03 3.13310E-24
1.90265E-03 2.86448E-24
1.97947E-03 2.62259E-24
2.05780E-03 2.40438E-24
2.13765E-03 2.20717E-24
2.21902E-03 2.02865E-24
2.30190E-03 1.86678E-24
2.38630E-03 1.71978E-24
2.47222E-03 1.58608E-24
2.55965E-03 1.46429E-24
2.64859E-03 1.35322E-24
2.73905E-03 1.25177E-24
2.83103E-03 1.15899E-24
2.92452E-03 1.07405E-24
3.01952E-03 9.96171E-25
3.11604E-03 9.24700E-25
3.21407E-03 8.59031E-25
3.31362E-03 7.98630E-25
3.41468E-03 7.43015E-25
3.51725E-03 6.91758E-25
3.62133E-03 6.44470E-25
3.72692E-03 6.00804E-25
3.83403E-03 5.60446E-25
3.94265E-03 5.23113E-25
4.05278E-03 4.88550E-25
4.16442E-03 4.56523E-25
4.27757E-03 4.26826E-25
4.39223E-03 3.99266E-25
4.50840E-03 3.73671E-25
4.62608E-03 3.49884E-25
4.74527E-03 3.27763E-25
4.86597E-03 3.07176E-25
4.98817E-03 2.88006E-25
5.11188E-03 2.70143E-25
5.23711E-03 2.53488E-25
5.36383E-03 2.37951E-25
5.49207E-03 2.23448E-25
5.62181E-03 2.09903E-25
5.75306E-03 1.97246E-25
5.88581E-03 1.85413E-25
6.02007E-03 1.74344E-25
6.15583E-03 1.63985E-25
6.29310E-03 1.54287E-25
6.43187E-03 1.45202E-25
6.57214E-03 1.36689E-25
6.71392E-03 1.28708E-25
6.85720E-03 1.21223E-25
7.00198E-03 1.14200E-25
7.14827E-03 1.07608E-25
7.29605E-03 1.01418E-25
7.44534E-03 9.56038E-26
7.59612E-03 9.01407E-26
7.97965E-03 7.78724E-26
8.37255E-03 6.73435E-26
8.77480E-03 5.82911E-26
9.18641E-03 5.04952E-26
9.60736E-03 4.37713E-26
1.00376E-02 3.79641E-26
1.04773E-02 3.29424E-26
1.09262E-02 2.85950E-26
1.13844E-02 2.48278E-26
1.18520E-02 2.15604E-26
1.23288E-02 1.87244E-26
1.28150E-02 1.62612E-26
1.33104E-02 1.41206E-26
1.38150E-02 1.22595E-26
1.43290E-02 1.06407E-26
1.48521E-02 9.23246E-27
1.53845E-02 8.00707E-27
1.59262E-02 6.94072E-27
1.64770E-02 6.01276E-27
1.70371E-02 5.20531E-27
1.76063E-02 4.50284E-27
1.81848E-02 3.89186E-27
1.87724E-02 3.36064E-27
1.93692E-02 2.89897E-27
1.99751E-02 2.49795E-27
2.05901E-02 2.14982E-27
2.12143E-02 1.84782E-27
2.18476E-02 1.58605E-27
2.24900E-02 1.35934E-27
2.31415E-02 1.16320E-27
2.38021E-02 9.93688E-28
2.44717E-02 8.47361E-28
2.51504E-02 7.21213E-28
2.58382E-02 6.12615E-28
2.65349E-02 5.19270E-28
2.72407E-02 4.39168E-28
2.79555E-02 3.70556E-28
2.86793E-02 3.11900E-28
2.94120E-02 2.61860E-28
3.01537E-02 2.19269E-28
3.09043E-02 1.83107E-28
3.16639E-02 1.52486E-28
3.24324E-02 1.26633E-28
3.32098E-02 1.04872E-28
3.39961E-02 8.66193E-29
3.47912E-02 7.13660E-29
3.55952E-02 5.86709E-29
3.64081E-02 4.81520E-29
3.72297E-02 3.94787E-29
3.80602E-02 3.23659E-29
3.88995E-02 2.65674E-29
3.97476E-02 2.18718E-29
4.06044E-02 1.80975E-29
4.14700E-02 1.50889E-29
4.23443E-02 1.27133E-29
4.32273E-02 1.08577E-29
4.41190E-02 9.42612E-30
4.50194E-02 8.33740E-30
4.59284E-02 7.52323E-30
4.68461E-02 6.92632E-30
4.87074E-02 6.20135E-30
5.06030E-02 5.87129E-30
5.25328E-02 5.74147E-30
5.44967E-02 5.68682E-30
5.64946E-02 5.63167E-30
5.85262E-02 5.53469E-30
6.05914E-02 5.37767E-30
6.26901E-02 5.15739E-30
6.48222E-02 4.87973E-30
6.69873E-02 4.55558E-30
6.91854E-02 4.19797E-30
7.14163E-02 3.82021E-30
7.36799E-02 3.43469E-30
7.59760E-02 3.05223E-30
7.83043E-02 2.68175E-30
8.06647E-02 2.33020E-30
8.30571E-02 2.00263E-30
8.54812E-02 1.70238E-30
8.79369E-02 1.43130E-30
9.04240E-02 1.18998E-30
9.29422E-02 9.78036E-31
9.54915E-02 7.94299E-31
9.80716E-02 6.37051E-31
1.00682E-01 5.04197E-31
1.03323E-01 3.93416E-31
1.05995E-01 3.02295E-31
1.08696E-01 2.28417E-31
1.11427E-01 1.69445E-31
1.14188E-01 1.23174E-31
1.16978E-01 8.75669E-32
1.19797E-01 6.07794E-32
1.22645E-01 4.11692E-32
1.25522E-01 2.72981E-32
1.28428E-01 1.79265E-32
1.31361E-01 1.20026E-32
1.34323E-01 8.64800E-33
1.37313E-01 7.14176E-33
1.40330E-01 6.90283E-33
1.43375E-01 7.47253E-33
1.46447E-01 8.49740E-33
1.49545E-01 9.71302E-33
1.52671E-01 1.09289E-32
1.55823E-01 1.20150E-32
1.59001E-01 1.28894E-32
1.62205E-01 1.35080E-32
1.65435E-01 1.38553E-32
1.68690E-01 1.39366E-32
1.71970E-01 1.37719E-32
1.75276E-01 1.33908E-32
1.78606E-01 1.28278E-32
1.81961E-01 1.21200E-32
1.85340E-01 1.13040E-32
1.88743E-01 1.04146E-32
1.92169E-01 9.48336E-33
1.95619E-01 8.53810E-33
1.99092E-01 7.60245E-33
2.02589E-01 6.69578E-33
2.06107E-01 5.83330E-33
2.09649E-01 5.02638E-33
2.13212E-01 4.28283E-33
2.16797E-01 3.60740E-33
2.20404E-01 3.00219E-33
2.24032E-01 2.46709E-33
2.27680E-01 2.00021E-33
2.31350E-01 1.59831E-33
2.35040E-01 1.25711E-33
2.38751E-01 9.71663E-34
2.42481E-01 7.36609E-34
2.46231E-01 5.46404E-34
2.50000E-01 3.95512E-34
2.53788E-01 2.78562E-34
2.57595E-01 1.90453E-34
2.61421E-01 1.26444E-34
2.65264E-01 8.22026E-35
2.69126E-01 5.38421E-35
2.73005E-01 3.79279E-35
2.76901E-01 3.14776E-35
2.80814E-01 3.19441E-35
2.84744E-01 3.71896E-35
2.88691E-01 4.54563E-35
2.92653E-01 5.53301E-35
2.96632E-01 6.57027E-35
3.00625E-01 7.57352E-35
3.04634E-01 8.48195E-35
3.08658E-01 9.25429E-35
3.12697E-01 9.86548E-35
3.16749E-01 1.03036E-34
3.20816E-01 1.05672E-34
3.24896E-01 1.06625E-34
3.28990E-01 1.06019E-34
3.33097E-01 1.04015E-34
3.37216E-01 1.00800E-34
3.41348E-01 9.65727E-35
3.45492E-01 9.15351E-35
3.49647E-01 8.58828E-35
3.53814E-01 7.98005E-35
3.57992E-01 7.34573E-35
3.62181E-01 6.70043E-35
3.66381E-01 6.05733E-35
3.70590E-01 5.42757E-35
3.74810E-01 4.82033E-35
3.79039E-01 4.24290E-35
3.83277E-01 3.70077E-35
3.87524E-01 3.19785E-35
3.91780E-01 2.73658E-35
3.96044E-01 2.31818E-35
4.00316E-01 1.94274E-35
4.04596E-01 1.60953E-35
4.08882E-01 1.31704E-35
4.13176E-01 1.06323E-35
4.17476E-01 8.45600E-36
4.21783E-01 6.61413E-36
4.26095E-01 5.07712E-36
4.30413E-01 3.81471E-36
4.34737E-01 2.79674E-36
4.39065E-01 1.99337E-36
4.43398E-01 1.37626E-36
4.47736E-01 9.18417E-37
4.52077E-01 5.94826E-37
4.56422E-01 3.82494E-37
4.60770E-01 2.60615E-37
4.65122E-01 2.10525E-37
4.69476E-01 2.15860E-37
4.73832E-01 2.62342E-37
4.78190E-01 3.37683E-37
4.82550E-01 4.31575E-37
4.86912E-01 5.35439E-37
4.91274E-01 6.42304E-37
4.95637E-01 7.46643E-37
5.00000E-01 8.44213E-37
5.04363E-01 9.31877E-37
5.08726E-01 1.00749E-36
5.13088E-01 1.06969E-36
5.17450E-01 1.11784E-36
5.21810E-01 1.15182E-36
5.26168E-01 1.17199E-36
5.30524E-01 1.17905E-36
5.34878E-01 1.17395E-36
5.39230E-01 1.15784E-36
5.43578E-01 1.13194E-36
5.47923E-01 1.09762E-36
5.52264E-01 1.05619E-36
5.56602E-01 1.00895E-36
5.60935E-01 9.57197E-37
5.65263E-01 9.02104E-37
5.69587E-01 8.44757E-37
5.73905E-01 7.86158E-37
5.78217E-01 7.27234E-37
5.82524E-01 6.68739E-37
5.86824E-01 6.11360E-37
5.91118E-01 5.55644E-37
5.95404E-01 5.02071E-37
5.99684E-01 4.50991E-37
6.03956E-01 4.02711E-37
6.08220E-01 3.57423E-37
6.12476E-01 3.15242E-37
6.16723E-01 2.76248E-37
6.20961E-01 2.40453E-37
6.25190E-01 2.07822E-37
6.29410E-01 1.78279E-37
6.33619E-01 1.51719E-37
6.37819E-01 1.28013E-37
6.42008E-01 1.07017E-37
6.46186E-01 8.85655E-38
6.50353E-01 7.24772E-38
6.54508E-01 5.85802E-38
6.58652E-01 4.66846E-38
6.62784E-01 3.66183E-38
6.66903E-01 2.81949E-38
6.71010E-01 2.12549E-38
6.75104E-01 1.56199E-38
6.79184E-01 1.11439E-38
6.83251E-01 7.67088E-39
6.87303E-01 5.07496E-39
6.91342E-01 3.22200E-39
6.95366E-01 2.00071E-39
6.99375E-01 1.30175E-39
7.03368E-01 1.03622E-39
7.07347E-01 1.11765E-39
7.11309E-01 1.47373E-39
7.15256E-01 2.03768E-39
7.19186E-01 2.75199E-39
7.23099E-01 3.56944E-39
7.26995E-01 4.44759E-39
7.30874E-01 5.35170E-39
7.34736E-01 6.25302E-39
7.38579E-01 7.12745E-39
7.42405E-01 7.95666E-39
7.46212E-01 8.72467E-39
7.50000E-01 9.42108E-39
7.53769E-01 1.00387E-38
7.57519E-01 1.05733E-38
7.61249E-01 1.10196E-38
7.64960E-01 1.13801E-38
7.68650E-01 1.16551E-38
7.72320E-01 1.18469E-38
7.75968E-01 1.19611E-38
7.79596E-01 1.20010E-38
7.83203E-01 1.19730E-38
7.86788E-01 1.18816E-38
7.90351E-01 1.17339E-38
7.93893E-01 1.15366E-38
7.97411E-01 1.12938E-38
8.00908E-01 1.10149E-38
8.04381E-01 1.07025E-38
8.07831E-01 1.03617E-38
8.11257E-01 9.99958E-39
8.14660E-01 9.61919E-39
8.18039E-01 9.22623E-39
8.21394E-01 8.82253E-39
8.24724E-01 8.41496E-39
8.28030E-01 8.00256E-39
8.31310E-01 7.59106E-39
8.34565E-01 7.18186E-39
8.37795E-01 6.77784E-39
8.40999E-01 6.38189E-39
8.44177E-01 5.99570E-39
8.47329E-01 5.61980E-39
8.50455E-01 5.25470E-39
8.53553E-01 4.90413E-39
8.56625E-01 4.56786E-39
8.59670E-01 4.24536E-39
8.62687E-01 3.93745E-39
8.65677E-01 3.64580E-39
8.68639E-01 3.36942E-39
8.71572E-01 3.10743E-39
8.74478E-01 2.86151E-39
8.77355E-01 2.63138E-39
8.80203E-01 2.41510E-39
8.83022E-01 2.21229E-39
8.85812E-01 2.02366E-39
8.88573E-01 1.84800E-39
8.91304E-01 1.68407E-39
8.94005E-01 1.53143E-39
8.96677E-01 1.39110E-39
8.99318E-01 1.26060E-39
9.01928E-01 1.13940E-39
9.04508E-01 1.02875E-39
9.07058E-01 9.26591E-40
9.09576E-01 8.32454E-40
9.12063E-01 7.46759E-40
9.14519E-01 6.68672E-40
9.16943E-01 5.97385E-40
9.19335E-01 5.32479E-40
9.21696E-01 4.73964E-40
9.24024E-01 4.20849E-40
9.26320E-01 3.73223E-40
9.28584E-01 3.29955E-40
9.30815E-01 2.91176E-40
9.33013E-01 2.56127E-40
9.35178E-01 2.25601E-40
9.37310E-01 1.98110E-40
9.39409E-01 1.73223E-40
9.41474E-01 1.50747E-40
9.43505E-01 1.31457E-40
9.45503E-01 1.13880E-40
9.47467E-01 9.86779E-41
9.49397E-01 8.47611E-41
9.51293E-01 7.26403E-41
9.53154E-01 6.22943E-41
9.54981E-01 1.00000E-45
9.56773E-01 1.00000E-45
9.58530E-01 1.00000E-45
9.60252E-01 1.00000E-45
9.61940E-01 1.00000E-45
9.63592E-01 1.00000E-45
9.65209E-01 1.00000E-45
9.66790E-01 1.00000E-45
9.68336E-01 1.00000E-45
9.69846E-01 1.00000E-45
9.71321E-01 1.00000E-45
9.72759E-01 1.00000E-45
9.74162E-01 1.00000E-45
9.75528E-01 1.00000E-45
9.76858E-01 1.00000E-45
9.78152E-01 1.00000E-45
9.79410E-01 1.00000E-45
9.80631E-01 1.00000E-45
9.81815E-01 1.00000E-45
9.82963E-01 1.00000E-45
9.84074E-01 1.00000E-45
9.85148E-01 1.00000E-45
9.86185E-01 1.00000E-45
9.87185E-01 1.00000E-45
9.88148E-01 1.00000E-45
9.89074E-01 1.00000E-45
9.89962E-01 1.00000E-45
9.90814E-01 1.00000E-45
9.91627E-01 1.00000E-45
9.92404E-01 1.00000E-45
9.93143E-01 1.00000E-45
9.93844E-01 1.00000E-45
9.94508E-01 1.00000E-45
9.95134E-01 1.00000E-45
9.95722E-01 1.00000E-45
9.96273E-01 1.00000E-45
9.96786E-01 1.00000E-45
9.97261E-01 1.00000E-45
9.97698E-01 1.00000E-45
9.98097E-01 1.00000E-45
9.98459E-01 1.00000E-45
9.98782E-01 1.00000E-45
9.99067E-01 1.00000E-45
9.99315E-01 1.00000E-45
9.99524E-01 1.00000E-45
9.99695E-01 1.00000E-45
9.99829E-01 1.00000E-45
9.99924E-01 1.00000E-45
9.99981E-01 1.00000E-45
1.00000E+00 1.00000E-45
