 #
 # Subroutine ELSEPA. Elastic scattering of electrons and positrons
 #                    by neutral atoms and positive ions
 #
 # Projectile: positron
 # Kinetic energy = 3.00000E+06 eV = 1.10248E+05 a.u.
 #
 # WARNING: High-energy factorization with free-atom DF screening.
 #          Absorption, polarization and exchange corrections are
 #          switched off.
 #          Phase shifts are calculated for the bare nucleus.
 #          Scattering amplitudes are not evaluated.
 #
 # Element: Mn,  Z =  25,  atomic weight = 5.49380E+01 g/mol
 #
 # Nuclear model: Fermi distribution
 #                Average radius = 4.06763E-13 cm
 #                Skin thickness = 5.46000E-14 cm
 #
 # Number of electrons = 25
 #
 # Total elastic cross section = 1.99157E-18 cm**2 = 7.11201E-02 a0**2
 # 1st transport cross section = 6.86330E-23 cm**2 = 2.45093E-06 a0**2
 # 2nd transport cross section = 1.96786E-22 cm**2 = 7.02736E-06 a0**2
 #
 #
 # Differential cross section:                       MU=(1-COS(THETA))/2
 #
 #  THETA        MU          DCS          DCS        Sherman      error
 #  (deg)                 (cm**2/sr)   (a0**2/sr)    function
 #----------------------------------------------------------------------
0.00000E+00 2.63590E-13
7.61557E-13 2.63589E-13
1.18994E-12 2.63588E-13
1.71346E-12 2.63587E-13
2.33225E-12 2.63586E-13
3.04617E-12 2.63585E-13
3.85530E-12 2.63584E-13
4.75964E-12 2.63583E-13
5.75917E-12 2.63582E-13
6.85391E-12 2.63580E-13
8.04379E-12 2.63578E-13
9.32893E-12 2.63577E-13
1.07092E-11 2.63575E-13
1.21847E-11 2.63573E-13
1.37554E-11 2.63571E-13
1.54213E-11 2.63568E-13
1.71823E-11 2.63566E-13
1.90386E-11 2.63563E-13
2.09900E-11 2.63561E-13
2.30367E-11 2.63558E-13
2.51785E-11 2.63555E-13
2.74156E-11 2.63552E-13
2.97478E-11 2.63549E-13
3.21752E-11 2.63545E-13
3.46979E-11 2.63542E-13
3.73157E-11 2.63538E-13
4.00286E-11 2.63535E-13
4.28368E-11 2.63531E-13
4.57402E-11 2.63527E-13
4.87388E-11 2.63523E-13
5.18325E-11 2.63519E-13
5.50215E-11 2.63514E-13
5.83057E-11 2.63510E-13
6.16850E-11 2.63505E-13
6.51595E-11 2.63501E-13
6.87293E-11 2.63496E-13
7.23943E-11 2.63491E-13
7.61544E-11 2.63486E-13
1.18991E-10 2.63428E-13
1.71347E-10 2.63357E-13
2.33223E-10 2.63274E-13
3.04617E-10 2.63178E-13
3.85531E-10 2.63069E-13
4.75965E-10 2.62948E-13
5.75917E-10 2.62814E-13
6.85389E-10 2.62667E-13
8.04380E-10 2.62508E-13
9.32891E-10 2.62336E-13
1.07092E-09 2.62152E-13
1.21847E-09 2.61956E-13
1.37554E-09 2.61747E-13
1.54213E-09 2.61525E-13
1.71823E-09 2.61292E-13
1.90386E-09 2.61046E-13
2.09900E-09 2.60788E-13
2.30367E-09 2.60518E-13
2.51785E-09 2.60235E-13
2.74156E-09 2.59941E-13
2.97478E-09 2.59635E-13
3.21752E-09 2.59317E-13
3.46978E-09 2.58987E-13
3.73156E-09 2.58645E-13
4.00286E-09 2.58292E-13
4.28368E-09 2.57927E-13
4.57402E-09 2.57551E-13
4.87388E-09 2.57163E-13
5.18326E-09 2.56764E-13
5.50215E-09 2.56354E-13
5.83057E-09 2.55933E-13
6.16850E-09 2.55500E-13
6.51596E-09 2.55057E-13
6.87293E-09 2.54602E-13
7.23942E-09 2.54137E-13
7.61544E-09 2.53662E-13
1.18991E-08 2.48341E-13
1.71347E-08 2.42078E-13
2.33223E-08 2.34979E-13
3.04617E-08 2.27227E-13
3.85531E-08 2.18902E-13
4.75965E-08 2.10180E-13
5.75917E-08 2.01203E-13
6.85389E-08 1.92032E-13
8.04380E-08 1.82847E-13
9.32891E-08 1.73719E-13
1.07092E-07 1.64716E-13
1.21847E-07 1.55951E-13
1.37554E-07 1.47438E-13
1.54213E-07 1.39242E-13
1.71823E-07 1.31412E-13
1.90386E-07 1.23924E-13
2.09900E-07 1.16831E-13
2.30367E-07 1.10130E-13
2.51785E-07 1.03799E-13
2.74156E-07 9.78572E-14
2.97478E-07 9.22792E-14
3.21752E-07 8.70514E-14
3.46978E-07 8.21693E-14
3.73156E-07 7.75994E-14
4.00286E-07 7.33346E-14
4.28368E-07 6.93599E-14
4.57402E-07 6.56407E-14
4.87388E-07 6.21759E-14
5.18325E-07 5.89432E-14
5.50215E-07 5.59197E-14
5.83057E-07 5.31008E-14
6.16850E-07 5.04631E-14
6.51596E-07 4.79947E-14
6.87293E-07 4.56894E-14
7.23942E-07 4.35227E-14
7.61543E-07 4.14936E-14
1.18991E-06 2.67158E-14
1.71347E-06 1.80874E-14
2.33223E-06 1.24531E-14
3.04617E-06 8.97723E-15
3.85531E-06 6.45836E-15
4.75964E-06 4.75058E-15
5.75916E-06 3.55259E-15
6.85388E-06 2.66908E-15
8.04378E-06 2.04438E-15
9.32888E-06 1.58522E-15
1.07092E-05 1.24495E-15
1.21846E-05 9.92154E-16
1.37553E-05 7.99958E-16
1.54212E-05 6.53018E-16
1.71822E-05 5.39251E-16
1.90385E-05 4.49673E-16
2.09899E-05 3.78700E-16
2.30365E-05 3.21715E-16
2.51783E-05 2.75322E-16
2.74153E-05 2.37339E-16
2.97475E-05 2.05868E-16
3.21749E-05 1.79551E-16
3.46974E-05 1.57467E-16
3.73152E-05 1.38679E-16
4.00281E-05 1.22663E-16
4.28362E-05 1.08954E-16
4.57395E-05 9.70451E-17
4.87380E-05 8.67483E-17
5.18317E-05 7.77724E-17
5.50205E-05 6.98922E-17
5.83045E-05 6.29958E-17
6.16838E-05 5.69049E-17
6.51582E-05 5.15190E-17
6.87277E-05 4.67581E-17
7.23925E-05 4.25073E-17
7.61524E-05 3.87256E-17
9.21439E-05 2.71574E-17
1.09658E-04 1.95370E-17
1.28695E-04 1.43806E-17
1.49255E-04 1.08013E-17
1.71338E-04 8.26242E-18
1.94942E-04 6.42304E-18
2.20070E-04 5.06769E-18
2.46720E-04 4.05215E-18
2.74892E-04 3.27950E-18
3.04586E-04 2.68230E-18
3.35803E-04 2.21572E-18
3.68542E-04 1.84674E-18
4.02802E-04 1.55152E-18
4.38585E-04 1.31332E-18
4.75889E-04 1.11924E-18
5.14715E-04 9.59769E-19
5.55063E-04 8.27855E-19
5.96931E-04 7.17814E-19
6.40321E-04 6.25508E-19
6.85233E-04 5.47627E-19
7.31665E-04 4.81437E-19
7.79618E-04 4.24985E-19
8.29092E-04 3.76569E-19
8.80086E-04 3.34829E-19
9.32601E-04 2.98727E-19
9.86636E-04 2.67345E-19
1.04219E-03 2.39969E-19
1.09927E-03 2.16012E-19
1.15786E-03 1.94951E-19
1.21797E-03 1.76394E-19
1.27961E-03 1.59992E-19
1.34276E-03 1.45438E-19
1.40743E-03 1.32503E-19
1.47362E-03 1.20969E-19
1.54133E-03 1.10657E-19
1.61056E-03 1.01420E-19
1.68131E-03 9.31205E-20
1.75357E-03 8.56508E-20
1.82735E-03 7.89144E-20
1.90265E-03 7.28221E-20
1.97947E-03 6.73058E-20
2.05780E-03 6.23005E-20
2.13765E-03 5.77489E-20
2.21902E-03 5.36050E-20
2.30190E-03 4.98243E-20
2.38630E-03 4.63697E-20
2.47222E-03 4.32088E-20
2.55965E-03 4.03110E-20
2.64859E-03 3.76514E-20
2.73905E-03 3.52071E-20
2.83103E-03 3.29566E-20
2.92452E-03 3.08827E-20
3.01952E-03 2.89687E-20
3.11604E-03 2.72000E-20
3.21407E-03 2.55640E-20
3.31362E-03 2.40485E-20
3.41468E-03 2.26432E-20
3.51725E-03 2.13389E-20
3.62133E-03 2.01265E-20
3.72692E-03 1.89988E-20
3.83403E-03 1.79487E-20
3.94265E-03 1.69698E-20
4.05278E-03 1.60566E-20
4.16442E-03 1.52037E-20
4.27757E-03 1.44064E-20
4.39223E-03 1.36606E-20
4.50840E-03 1.29622E-20
4.62608E-03 1.23077E-20
4.74527E-03 1.16939E-20
4.86597E-03 1.11176E-20
4.98817E-03 1.05763E-20
5.11188E-03 1.00674E-20
5.23711E-03 9.58865E-21
5.36383E-03 9.13791E-21
5.49207E-03 8.71323E-21
5.62181E-03 8.31284E-21
5.75306E-03 7.93511E-21
5.88581E-03 7.57849E-21
6.02007E-03 7.24160E-21
6.15583E-03 6.92317E-21
6.29310E-03 6.62196E-21
6.43187E-03 6.33690E-21
6.57214E-03 6.06695E-21
6.71392E-03 5.81116E-21
6.85720E-03 5.56866E-21
7.00198E-03 5.33862E-21
7.14827E-03 5.12029E-21
7.29605E-03 4.91297E-21
7.44534E-03 4.71599E-21
7.59612E-03 4.52874E-21
7.97965E-03 4.09956E-21
8.37255E-03 3.71983E-21
8.77480E-03 3.38291E-21
9.18641E-03 3.08312E-21
9.60736E-03 2.81569E-21
1.00376E-02 2.57651E-21
1.04773E-02 2.36210E-21
1.09262E-02 2.16943E-21
1.13844E-02 1.99594E-21
1.18520E-02 1.83936E-21
1.23288E-02 1.69778E-21
1.28150E-02 1.56950E-21
1.33104E-02 1.45306E-21
1.38150E-02 1.34716E-21
1.43290E-02 1.25069E-21
1.48521E-02 1.16267E-21
1.53845E-02 1.08221E-21
1.59262E-02 1.00857E-21
1.64770E-02 9.41046E-22
1.70371E-02 8.79054E-22
1.76063E-02 8.22057E-22
1.81848E-02 7.69582E-22
1.87724E-02 7.21204E-22
1.93692E-02 6.76549E-22
1.99751E-02 6.35278E-22
2.05901E-02 5.97088E-22
2.12143E-02 5.61710E-22
2.18476E-02 5.28898E-22
2.24900E-02 4.98433E-22
2.31415E-02 4.70118E-22
2.38021E-02 4.43773E-22
2.44717E-02 4.19236E-22
2.51504E-02 3.96362E-22
2.58382E-02 3.75016E-22
2.65349E-02 3.55079E-22
2.72407E-02 3.36442E-22
2.79555E-02 3.19002E-22
2.86793E-02 3.02671E-22
2.94120E-02 2.87365E-22
3.01537E-02 2.73007E-22
3.09043E-02 2.59529E-22
3.16639E-02 2.46866E-22
3.24324E-02 2.34961E-22
3.32098E-02 2.23760E-22
3.39961E-02 2.13214E-22
3.47912E-02 2.03277E-22
3.55952E-02 1.93907E-22
3.64081E-02 1.85068E-22
3.72297E-02 1.76722E-22
3.80602E-02 1.68838E-22
3.88995E-02 1.61385E-22
3.97476E-02 1.54336E-22
4.06044E-02 1.47664E-22
4.14700E-02 1.41346E-22
4.23443E-02 1.35360E-22
4.32273E-02 1.29684E-22
4.41190E-02 1.24300E-22
4.50194E-02 1.19191E-22
4.59284E-02 1.14339E-22
4.68461E-02 1.09729E-22
4.87074E-02 1.01180E-22
5.06030E-02 9.34396E-23
5.25328E-02 8.64193E-23
5.44967E-02 8.00401E-23
5.64946E-02 7.42334E-23
5.85262E-02 6.89388E-23
6.05914E-02 6.41033E-23
6.26901E-02 5.96802E-23
6.48222E-02 5.56282E-23
6.69873E-02 5.19108E-23
6.91854E-02 4.84954E-23
7.14163E-02 4.53533E-23
7.36799E-02 4.24587E-23
7.59760E-02 3.97888E-23
7.83043E-02 3.73230E-23
8.06647E-02 3.50430E-23
8.30571E-02 3.29324E-23
8.54812E-02 3.09763E-23
8.79369E-02 2.91615E-23
9.04240E-02 2.74759E-23
9.29422E-02 2.59088E-23
9.54915E-02 2.44503E-23
9.80716E-02 2.30915E-23
1.00682E-01 2.18246E-23
1.03323E-01 2.06420E-23
1.05995E-01 1.95373E-23
1.08696E-01 1.85045E-23
1.11427E-01 1.75379E-23
1.14188E-01 1.66326E-23
1.16978E-01 1.57841E-23
1.19797E-01 1.49881E-23
1.22645E-01 1.42408E-23
1.25522E-01 1.35388E-23
1.28428E-01 1.28787E-23
1.31361E-01 1.22576E-23
1.34323E-01 1.16729E-23
1.37313E-01 1.11220E-23
1.40330E-01 1.06026E-23
1.43375E-01 1.01125E-23
1.46447E-01 9.64994E-24
1.49545E-01 9.21298E-24
1.52671E-01 8.79997E-24
1.55823E-01 8.40937E-24
1.59001E-01 8.03974E-24
1.62205E-01 7.68977E-24
1.65435E-01 7.35822E-24
1.68690E-01 7.04395E-24
1.71970E-01 6.74589E-24
1.75276E-01 6.46307E-24
1.78606E-01 6.19457E-24
1.81961E-01 5.93953E-24
1.85340E-01 5.69716E-24
1.88743E-01 5.46672E-24
1.92169E-01 5.24752E-24
1.95619E-01 5.03891E-24
1.99092E-01 4.84030E-24
2.02589E-01 4.65110E-24
2.06107E-01 4.47081E-24
2.09649E-01 4.29893E-24
2.13212E-01 4.13500E-24
2.16797E-01 3.97858E-24
2.20404E-01 3.82926E-24
2.24032E-01 3.68668E-24
2.27680E-01 3.55047E-24
2.31350E-01 3.42029E-24
2.35040E-01 3.29584E-24
2.38751E-01 3.17682E-24
2.42481E-01 3.06294E-24
2.46231E-01 2.95395E-24
2.50000E-01 2.84960E-24
2.53788E-01 2.74966E-24
2.57595E-01 2.65391E-24
2.61421E-01 2.56213E-24
2.65264E-01 2.47415E-24
2.69126E-01 2.38977E-24
2.73005E-01 2.30882E-24
2.76901E-01 2.23114E-24
2.80814E-01 2.15657E-24
2.84744E-01 2.08496E-24
2.88691E-01 2.01618E-24
2.92653E-01 1.95010E-24
2.96632E-01 1.88659E-24
3.00625E-01 1.82553E-24
3.04634E-01 1.76681E-24
3.08658E-01 1.71033E-24
3.12697E-01 1.65599E-24
3.16749E-01 1.60369E-24
3.20816E-01 1.55335E-24
3.24896E-01 1.50486E-24
3.28990E-01 1.45817E-24
3.33097E-01 1.41318E-24
3.37216E-01 1.36983E-24
3.41348E-01 1.32804E-24
3.45492E-01 1.28775E-24
3.49647E-01 1.24890E-24
3.53814E-01 1.21143E-24
3.57992E-01 1.17527E-24
3.62181E-01 1.14037E-24
3.66381E-01 1.10669E-24
3.70590E-01 1.07418E-24
3.74810E-01 1.04278E-24
3.79039E-01 1.01244E-24
3.83277E-01 9.83143E-25
3.87524E-01 9.54829E-25
3.91780E-01 9.27464E-25
3.96044E-01 9.01010E-25
4.00316E-01 8.75432E-25
4.04596E-01 8.50696E-25
4.08882E-01 8.26769E-25
4.13176E-01 8.03621E-25
4.17476E-01 7.81222E-25
4.21783E-01 7.59544E-25
4.26095E-01 7.38559E-25
4.30413E-01 7.18242E-25
4.34737E-01 6.98568E-25
4.39065E-01 6.79512E-25
4.43398E-01 6.61053E-25
4.47736E-01 6.43168E-25
4.52077E-01 6.25838E-25
4.56422E-01 6.09040E-25
4.60770E-01 5.92757E-25
4.65122E-01 5.76971E-25
4.69476E-01 5.61662E-25
4.73832E-01 5.46815E-25
4.78190E-01 5.32414E-25
4.82550E-01 5.18442E-25
4.86912E-01 5.04885E-25
4.91274E-01 4.91729E-25
4.95637E-01 4.78960E-25
5.00000E-01 4.66563E-25
5.04363E-01 4.54528E-25
5.08726E-01 4.42841E-25
5.13088E-01 4.31491E-25
5.17450E-01 4.20467E-25
5.21810E-01 4.09757E-25
5.26168E-01 3.99352E-25
5.30524E-01 3.89241E-25
5.34878E-01 3.79414E-25
5.39230E-01 3.69863E-25
5.43578E-01 3.60578E-25
5.47923E-01 3.51551E-25
5.52264E-01 3.42773E-25
5.56602E-01 3.34237E-25
5.60935E-01 3.25935E-25
5.65263E-01 3.17859E-25
5.69587E-01 3.10002E-25
5.73905E-01 3.02357E-25
5.78217E-01 2.94919E-25
5.82524E-01 2.87679E-25
5.86824E-01 2.80633E-25
5.91118E-01 2.73774E-25
5.95404E-01 2.67096E-25
5.99684E-01 2.60594E-25
6.03956E-01 2.54263E-25
6.08220E-01 2.48098E-25
6.12476E-01 2.42093E-25
6.16723E-01 2.36243E-25
6.20961E-01 2.30545E-25
6.25190E-01 2.24993E-25
6.29410E-01 2.19583E-25
6.33619E-01 2.14312E-25
6.37819E-01 2.09174E-25
6.42008E-01 2.04167E-25
6.46186E-01 1.99286E-25
6.50353E-01 1.94528E-25
6.54508E-01 1.89889E-25
6.58652E-01 1.85365E-25
6.62784E-01 1.80954E-25
6.66903E-01 1.76653E-25
6.71010E-01 1.72457E-25
6.75104E-01 1.68365E-25
6.79184E-01 1.64373E-25
6.83251E-01 1.60479E-25
6.87303E-01 1.56680E-25
6.91342E-01 1.52973E-25
6.95366E-01 1.49355E-25
6.99375E-01 1.45825E-25
7.03368E-01 1.42380E-25
7.07347E-01 1.39017E-25
7.11309E-01 1.35734E-25
7.15256E-01 1.32530E-25
7.19186E-01 1.29402E-25
7.23099E-01 1.26348E-25
7.26995E-01 1.23366E-25
7.30874E-01 1.20454E-25
7.34736E-01 1.17611E-25
7.38579E-01 1.14834E-25
7.42405E-01 1.12122E-25
7.46212E-01 1.09473E-25
7.50000E-01 1.06886E-25
7.53769E-01 1.04359E-25
7.57519E-01 1.01890E-25
7.61249E-01 9.94780E-26
7.64960E-01 9.71214E-26
7.68650E-01 9.48190E-26
7.72320E-01 9.25693E-26
7.75968E-01 9.03709E-26
7.79596E-01 8.82227E-26
7.83203E-01 8.61234E-26
7.86788E-01 8.40718E-26
7.90351E-01 8.20666E-26
7.93893E-01 8.01068E-26
7.97411E-01 7.81912E-26
8.00908E-01 7.63189E-26
8.04381E-01 7.44887E-26
8.07831E-01 7.26996E-26
8.11257E-01 7.09506E-26
8.14660E-01 6.92409E-26
8.18039E-01 6.75694E-26
8.21394E-01 6.59352E-26
8.24724E-01 6.43376E-26
8.28030E-01 6.27756E-26
8.31310E-01 6.12484E-26
8.34565E-01 5.97552E-26
8.37795E-01 5.82952E-26
8.40999E-01 5.68677E-26
8.44177E-01 5.54719E-26
8.47329E-01 5.41071E-26
8.50455E-01 5.27726E-26
8.53553E-01 5.14678E-26
8.56625E-01 5.01919E-26
8.59670E-01 4.89444E-26
8.62687E-01 4.77245E-26
8.65677E-01 4.65318E-26
8.68639E-01 4.53655E-26
8.71572E-01 4.42252E-26
8.74478E-01 4.31103E-26
8.77355E-01 4.20202E-26
8.80203E-01 4.09544E-26
8.83022E-01 3.99124E-26
8.85812E-01 3.88936E-26
8.88573E-01 3.78977E-26
8.91304E-01 3.69242E-26
8.94005E-01 3.59725E-26
8.96677E-01 3.50422E-26
8.99318E-01 3.41329E-26
9.01928E-01 3.32442E-26
9.04508E-01 3.23756E-26
9.07058E-01 3.15268E-26
9.09576E-01 3.06973E-26
9.12063E-01 2.98869E-26
9.14519E-01 2.90950E-26
9.16943E-01 2.83215E-26
9.19335E-01 2.75658E-26
9.21696E-01 2.68277E-26
9.24024E-01 2.61068E-26
9.26320E-01 2.54029E-26
9.28584E-01 2.47155E-26
9.30815E-01 2.40445E-26
9.33013E-01 2.33895E-26
9.35178E-01 2.27502E-26
9.37310E-01 2.21263E-26
9.39409E-01 2.15177E-26
9.41474E-01 2.09239E-26
9.43505E-01 2.03448E-26
9.45503E-01 1.97801E-26
9.47467E-01 1.92295E-26
9.49397E-01 1.86929E-26
9.51293E-01 1.81700E-26
9.53154E-01 1.76605E-26
9.54981E-01 1.71644E-26
9.56773E-01 1.66812E-26
9.58530E-01 1.62110E-26
9.60252E-01 1.57533E-26
9.61940E-01 1.53082E-26
9.63592E-01 1.48753E-26
9.65209E-01 1.44546E-26
9.66790E-01 1.40457E-26
9.68336E-01 1.36486E-26
9.69846E-01 1.32632E-26
9.71321E-01 1.28891E-26
9.72759E-01 1.25263E-26
9.74162E-01 1.21747E-26
9.75528E-01 1.18341E-26
9.76858E-01 1.15043E-26
9.78152E-01 1.11853E-26
9.79410E-01 1.08768E-26
9.80631E-01 1.05788E-26
9.81815E-01 1.02912E-26
9.82963E-01 1.00138E-26
9.84074E-01 9.74656E-27
9.85148E-01 9.48931E-27
9.86185E-01 9.24198E-27
9.87185E-01 9.00447E-27
9.88148E-01 8.77669E-27
9.89074E-01 8.55854E-27
9.89962E-01 8.34994E-27
9.90814E-01 8.15080E-27
9.91627E-01 7.96106E-27
9.92404E-01 7.78062E-27
9.93143E-01 7.60943E-27
9.93844E-01 7.44742E-27
9.94508E-01 7.29452E-27
9.95134E-01 7.15067E-27
9.95722E-01 7.01581E-27
9.96273E-01 6.88990E-27
9.96786E-01 6.77289E-27
9.97261E-01 6.66472E-27
9.97698E-01 6.56536E-27
9.98097E-01 6.47477E-27
9.98459E-01 6.39291E-27
9.98782E-01 6.31975E-27
9.99067E-01 6.25527E-27
9.99315E-01 6.19943E-27
9.99524E-01 6.15223E-27
9.99695E-01 6.11363E-27
9.99829E-01 6.08362E-27
9.99924E-01 6.06219E-27
9.99981E-01 6.04934E-27
1.00000E+00 6.04507E-27
