 #
 # Subroutine ELSEPA. Elastic scattering of electrons and positrons
 #                    by neutral atoms and positive ions
 #
 # Projectile: positron
 # Kinetic energy = 8.00000E+07 eV = 2.93995E+06 a.u.
 #
 # WARNING: High-energy factorization with free-atom DF screening.
 #          Absorption, polarization and exchange corrections are
 #          switched off.
 #          Phase shifts are calculated for the bare nucleus.
 #          Scattering amplitudes are not evaluated.
 #
 # Element: Mn,  Z =  25,  atomic weight = 5.49380E+01 g/mol
 #
 # Nuclear model: Fermi distribution
 #                Average radius = 4.06763E-13 cm
 #                Skin thickness = 5.46000E-14 cm
 #
 # Number of electrons = 25
 #
 # Total elastic cross section = 1.95080E-18 cm**2 = 6.96644E-02 a0**2
 # 1st transport cross section = 1.94345E-25 cm**2 = 6.94019E-09 a0**2
 # 2nd transport cross section = 5.74606E-25 cm**2 = 2.05196E-08 a0**2
 #
 #
 # Differential cross section:                       MU=(1-COS(THETA))/2
 #
 #  THETA        MU          DCS          DCS        Sherman      error
 #  (deg)                 (cm**2/sr)   (a0**2/sr)    function
 #----------------------------------------------------------------------
0.00000E+00 1.38605E-10
7.61557E-13 1.38316E-10
1.18994E-12 1.38154E-10
1.71346E-12 1.37956E-10
2.33225E-12 1.37724E-10
3.04617E-12 1.37456E-10
3.85530E-12 1.37154E-10
4.75964E-12 1.36817E-10
5.75917E-12 1.36447E-10
6.85391E-12 1.36043E-10
8.04379E-12 1.35606E-10
9.32893E-12 1.35137E-10
1.07092E-11 1.34635E-10
1.21847E-11 1.34103E-10
1.37554E-11 1.33540E-10
1.54213E-11 1.32947E-10
1.71823E-11 1.32324E-10
1.90386E-11 1.31673E-10
2.09900E-11 1.30994E-10
2.30367E-11 1.30288E-10
2.51785E-11 1.29556E-10
2.74156E-11 1.28798E-10
2.97478E-11 1.28015E-10
3.21752E-11 1.27209E-10
3.46979E-11 1.26379E-10
3.73157E-11 1.25524E-10
4.00286E-11 1.24647E-10
4.28368E-11 1.23752E-10
4.57402E-11 1.22839E-10
4.87388E-11 1.21908E-10
5.18325E-11 1.20962E-10
5.50215E-11 1.20001E-10
5.83057E-11 1.19014E-10
6.16850E-11 1.18013E-10
6.51595E-11 1.17000E-10
6.87293E-11 1.15976E-10
7.23943E-11 1.14942E-10
7.61544E-11 1.13898E-10
1.18991E-10 1.02975E-10
1.71347E-10 9.18057E-11
2.33223E-10 8.09981E-11
3.04617E-10 7.09748E-11
3.85531E-10 6.19598E-11
4.75965E-10 5.40255E-11
5.75917E-10 4.71536E-11
6.85389E-10 4.12528E-11
8.04380E-10 3.62196E-11
9.32891E-10 3.19273E-11
1.07092E-09 2.82719E-11
1.21847E-09 2.51421E-11
1.37554E-09 2.24600E-11
1.54213E-09 2.01430E-11
1.71823E-09 1.81368E-11
1.90386E-09 1.63853E-11
2.09900E-09 1.48512E-11
2.30367E-09 1.34980E-11
2.51785E-09 1.22997E-11
2.74156E-09 1.12332E-11
2.97478E-09 1.02794E-11
3.21752E-09 9.42433E-12
3.46978E-09 8.65321E-12
3.73156E-09 7.91330E-12
4.00286E-09 7.24715E-12
4.28368E-09 6.66233E-12
4.57402E-09 6.14694E-12
4.87388E-09 5.69103E-12
5.18326E-09 5.28632E-12
5.50215E-09 4.92582E-12
5.83057E-09 4.54172E-12
6.16850E-09 4.19483E-12
6.51596E-09 3.88516E-12
6.87293E-09 3.60790E-12
7.23942E-09 3.35897E-12
7.61544E-09 3.13484E-12
1.18991E-08 1.57608E-12
1.71347E-08 8.54103E-13
2.33223E-08 4.97317E-13
3.04617E-08 3.09694E-13
3.85531E-08 2.04331E-13
4.75965E-08 1.41270E-13
5.75917E-08 1.01375E-13
6.85389E-08 7.48645E-14
8.04380E-08 5.65949E-14
9.32891E-08 4.35581E-14
1.07092E-07 3.40616E-14
1.21847E-07 2.69721E-14
1.37554E-07 2.16174E-14
1.54213E-07 1.74981E-14
1.71823E-07 1.43001E-14
1.90386E-07 1.17853E-14
2.09900E-07 9.79178E-15
2.30367E-07 8.19624E-15
2.51785E-07 6.90918E-15
2.74156E-07 5.86269E-15
2.97478E-07 5.00534E-15
3.21752E-07 4.29823E-15
3.46978E-07 3.71102E-15
3.73156E-07 3.21984E-15
4.00286E-07 2.80775E-15
4.28368E-07 2.46029E-15
4.57402E-07 2.16410E-15
4.87388E-07 1.91165E-15
5.18325E-07 1.69516E-15
5.50215E-07 1.50831E-15
5.83057E-07 1.34680E-15
6.16850E-07 1.20636E-15
6.51596E-07 1.08382E-15
6.87293E-07 9.76622E-16
7.23942E-07 8.82294E-16
7.61543E-07 7.99175E-16
1.18991E-06 3.34077E-16
1.71347E-06 1.63569E-16
2.33223E-06 8.92332E-17
3.04617E-06 5.26965E-17
3.85531E-06 3.30690E-17
4.75964E-06 2.17750E-17
5.75916E-06 1.49110E-17
6.85388E-06 1.05478E-17
8.04378E-06 7.66830E-18
9.32888E-06 5.70680E-18
1.07092E-05 4.33373E-18
1.21846E-05 3.34955E-18
1.37553E-05 2.62936E-18
1.54212E-05 2.09261E-18
1.71822E-05 1.68602E-18
1.90385E-05 1.37344E-18
2.09899E-05 1.13016E-18
2.30365E-05 9.38396E-19
2.51783E-05 7.85581E-19
2.74153E-05 6.62606E-19
2.97475E-05 5.62758E-19
3.21749E-05 4.81021E-19
3.46974E-05 4.13601E-19
3.73152E-05 3.57593E-19
4.00281E-05 3.10755E-19
4.28362E-05 2.71341E-19
4.57395E-05 2.37980E-19
4.87380E-05 2.09587E-19
5.18317E-05 1.85301E-19
5.50205E-05 1.64429E-19
5.83045E-05 1.46413E-19
6.16838E-05 1.30798E-19
6.51582E-05 1.17210E-19
6.87277E-05 1.05342E-19
7.23925E-05 9.49393E-20
7.61524E-05 8.57867E-20
9.21439E-05 5.85711E-20
1.09658E-04 4.13380E-20
1.28695E-04 3.00004E-20
1.49255E-04 2.22945E-20
1.71338E-04 1.69107E-20
1.94942E-04 1.30573E-20
2.20070E-04 1.02411E-20
2.46720E-04 8.14437E-21
2.74892E-04 6.55744E-21
3.04586E-04 5.33867E-21
3.35803E-04 4.39010E-21
3.68542E-04 3.64301E-21
4.02802E-04 3.04816E-21
4.38585E-04 2.56980E-21
4.75889E-04 2.18163E-21
5.14715E-04 1.86397E-21
5.55063E-04 1.60203E-21
5.96931E-04 1.38447E-21
6.40321E-04 1.20258E-21
6.85233E-04 1.04957E-21
7.31665E-04 9.20098E-22
7.79618E-04 8.09967E-22
8.29092E-04 7.15806E-22
8.80086E-04 6.34919E-22
9.32601E-04 5.65124E-22
9.86636E-04 5.04645E-22
1.04219E-03 4.52032E-22
1.09927E-03 4.06087E-22
1.15786E-03 3.65823E-22
1.21797E-03 3.30419E-22
1.27961E-03 2.99187E-22
1.34276E-03 2.71552E-22
1.40743E-03 2.47029E-22
1.47362E-03 2.25206E-22
1.54133E-03 2.05735E-22
1.61056E-03 1.88319E-22
1.68131E-03 1.72703E-22
1.75357E-03 1.58668E-22
1.82735E-03 1.46027E-22
1.90265E-03 1.34616E-22
1.97947E-03 1.24296E-22
2.05780E-03 1.14943E-22
2.13765E-03 1.06451E-22
2.21902E-03 9.87262E-23
2.30190E-03 9.16876E-23
2.38630E-03 8.52632E-23
2.47222E-03 7.93899E-23
2.55965E-03 7.40121E-23
2.64859E-03 6.90804E-23
2.73905E-03 6.45512E-23
2.83103E-03 6.03858E-23
2.92452E-03 5.65499E-23
3.01952E-03 5.30125E-23
3.11604E-03 4.97464E-23
3.21407E-03 4.67269E-23
3.31362E-03 4.39322E-23
3.41468E-03 4.13424E-23
3.51725E-03 3.89398E-23
3.62133E-03 3.67085E-23
3.72692E-03 3.46340E-23
3.83403E-03 3.27033E-23
3.94265E-03 3.09047E-23
4.05278E-03 2.92274E-23
4.16442E-03 2.76618E-23
4.27757E-03 2.61991E-23
4.39223E-03 2.48314E-23
4.50840E-03 2.35512E-23
4.62608E-03 2.23521E-23
4.74527E-03 2.12278E-23
4.86597E-03 2.01730E-23
4.98817E-03 1.91825E-23
5.11188E-03 1.82518E-23
5.23711E-03 1.73764E-23
5.36383E-03 1.65526E-23
5.49207E-03 1.57767E-23
5.62181E-03 1.50455E-23
5.75306E-03 1.43558E-23
5.88581E-03 1.37050E-23
6.02007E-03 1.30904E-23
6.15583E-03 1.25096E-23
6.29310E-03 1.19605E-23
6.43187E-03 1.14409E-23
6.57214E-03 1.09491E-23
6.71392E-03 1.04832E-23
6.85720E-03 1.00416E-23
7.00198E-03 9.62286E-24
7.14827E-03 9.22555E-24
7.29605E-03 8.84838E-24
7.44534E-03 8.49014E-24
7.59612E-03 8.14969E-24
7.97965E-03 7.36975E-24
8.37255E-03 6.68019E-24
8.77480E-03 6.06875E-24
9.18641E-03 5.52510E-24
9.60736E-03 5.04044E-24
1.00376E-02 4.60728E-24
1.04773E-02 4.21922E-24
1.09262E-02 3.87077E-24
1.13844E-02 3.55717E-24
1.18520E-02 3.27437E-24
1.23288E-02 3.01880E-24
1.28150E-02 2.78740E-24
1.33104E-02 2.57749E-24
1.38150E-02 2.38673E-24
1.43290E-02 2.21306E-24
1.48521E-02 2.05471E-24
1.53845E-02 1.91007E-24
1.59262E-02 1.77776E-24
1.64770E-02 1.65655E-24
1.70371E-02 1.54534E-24
1.76063E-02 1.44317E-24
1.81848E-02 1.34917E-24
1.87724E-02 1.26257E-24
1.93692E-02 1.18270E-24
1.99751E-02 1.10894E-24
2.05901E-02 1.04074E-24
2.12143E-02 9.77605E-25
2.18476E-02 9.19099E-25
2.24900E-02 8.64822E-25
2.31415E-02 8.14415E-25
2.38021E-02 7.67555E-25
2.44717E-02 7.23948E-25
2.51504E-02 6.83330E-25
2.58382E-02 6.45460E-25
2.65349E-02 6.10119E-25
2.72407E-02 5.77111E-25
2.79555E-02 5.46254E-25
2.86793E-02 5.17383E-25
2.94120E-02 4.90349E-25
3.01537E-02 4.65015E-25
3.09043E-02 4.41255E-25
3.16639E-02 4.18955E-25
3.24324E-02 3.98008E-25
3.32098E-02 3.78320E-25
3.39961E-02 3.59802E-25
3.47912E-02 3.42371E-25
3.55952E-02 3.25953E-25
3.64081E-02 3.10480E-25
3.72297E-02 2.95886E-25
3.80602E-02 2.82115E-25
3.88995E-02 2.69111E-25
3.97476E-02 2.56825E-25
4.06044E-02 2.45209E-25
4.14700E-02 2.34222E-25
4.23443E-02 2.23823E-25
4.32273E-02 2.13976E-25
4.41190E-02 2.04646E-25
4.50194E-02 1.95801E-25
4.59284E-02 1.87412E-25
4.68461E-02 1.79452E-25
4.87074E-02 1.64717E-25
5.06030E-02 1.51410E-25
5.25328E-02 1.39371E-25
5.44967E-02 1.28460E-25
5.64946E-02 1.18555E-25
5.85262E-02 1.09549E-25
6.05914E-02 1.01346E-25
6.26901E-02 9.38647E-26
6.48222E-02 8.70310E-26
6.69873E-02 8.07803E-26
6.91854E-02 7.50550E-26
7.14163E-02 6.98041E-26
7.36799E-02 6.49822E-26
7.59760E-02 6.05490E-26
7.83043E-02 5.64682E-26
8.06647E-02 5.27075E-26
8.30571E-02 4.92381E-26
8.54812E-02 4.60339E-26
8.79369E-02 4.30716E-26
9.04240E-02 4.03302E-26
9.29422E-02 3.77908E-26
9.54915E-02 3.54363E-26
9.80716E-02 3.32511E-26
1.00682E-01 3.12214E-26
1.03323E-01 2.93344E-26
1.05995E-01 2.75786E-26
1.08696E-01 2.59436E-26
1.11427E-01 2.44199E-26
1.14188E-01 2.29988E-26
1.16978E-01 2.16725E-26
1.19797E-01 2.04336E-26
1.22645E-01 1.92756E-26
1.25522E-01 1.81925E-26
1.28428E-01 1.71788E-26
1.31361E-01 1.62294E-26
1.34323E-01 1.53397E-26
1.37313E-01 1.45053E-26
1.40330E-01 1.37225E-26
1.43375E-01 1.29875E-26
1.46447E-01 1.22971E-26
1.49545E-01 1.16481E-26
1.52671E-01 1.10378E-26
1.55823E-01 1.04636E-26
1.59001E-01 9.92304E-27
1.62205E-01 9.41389E-27
1.65435E-01 8.93410E-27
1.68690E-01 8.48176E-27
1.71970E-01 8.05509E-27
1.75276E-01 7.65247E-27
1.78606E-01 7.27236E-27
1.81961E-01 6.91335E-27
1.85340E-01 6.57412E-27
1.88743E-01 6.25345E-27
1.92169E-01 5.95020E-27
1.95619E-01 5.66331E-27
1.99092E-01 5.39180E-27
2.02589E-01 5.13473E-27
2.06107E-01 4.89126E-27
2.09649E-01 4.66057E-27
2.13212E-01 4.44192E-27
2.16797E-01 4.23462E-27
2.20404E-01 4.03799E-27
2.24032E-01 3.85144E-27
2.27680E-01 3.67439E-27
2.31350E-01 3.50629E-27
2.35040E-01 3.34666E-27
2.38751E-01 3.19500E-27
2.42481E-01 3.05090E-27
2.46231E-01 2.91392E-27
2.50000E-01 2.78367E-27
2.53788E-01 2.65980E-27
2.57595E-01 2.54196E-27
2.61421E-01 2.42982E-27
2.65264E-01 2.32307E-27
2.69126E-01 2.22145E-27
2.73005E-01 2.12466E-27
2.76901E-01 2.03246E-27
2.80814E-01 1.94462E-27
2.84744E-01 1.86090E-27
2.88691E-01 1.78109E-27
2.92653E-01 1.70500E-27
2.96632E-01 1.63243E-27
3.00625E-01 1.56320E-27
3.04634E-01 1.49715E-27
3.08658E-01 1.43412E-27
3.12697E-01 1.37395E-27
3.16749E-01 1.31651E-27
3.20816E-01 1.26166E-27
3.24896E-01 1.20927E-27
3.28990E-01 1.15922E-27
3.33097E-01 1.11140E-27
3.37216E-01 1.06570E-27
3.41348E-01 1.02203E-27
3.45492E-01 9.80269E-28
3.49647E-01 9.40342E-28
3.53814E-01 9.02159E-28
3.57992E-01 8.65636E-28
3.62181E-01 8.30697E-28
3.66381E-01 7.97266E-28
3.70590E-01 7.65273E-28
3.74810E-01 7.34652E-28
3.79039E-01 7.05339E-28
3.83277E-01 6.77274E-28
3.87524E-01 6.50399E-28
3.91780E-01 6.24661E-28
3.96044E-01 6.00007E-28
4.00316E-01 5.76389E-28
4.04596E-01 5.53760E-28
4.08882E-01 5.32074E-28
4.13176E-01 5.11291E-28
4.17476E-01 4.91370E-28
4.21783E-01 4.72272E-28
4.26095E-01 4.53961E-28
4.30413E-01 4.36402E-28
4.34737E-01 4.19562E-28
4.39065E-01 4.03411E-28
4.43398E-01 3.87917E-28
4.47736E-01 3.73052E-28
4.52077E-01 3.58789E-28
4.56422E-01 3.45102E-28
4.60770E-01 3.31965E-28
4.65122E-01 3.19357E-28
4.69476E-01 3.07253E-28
4.73832E-01 2.95633E-28
4.78190E-01 2.84475E-28
4.82550E-01 2.73761E-28
4.86912E-01 2.63471E-28
4.91274E-01 2.53587E-28
4.95637E-01 2.44094E-28
5.00000E-01 2.34973E-28
5.04363E-01 2.26211E-28
5.08726E-01 2.17791E-28
5.13088E-01 2.09699E-28
5.17450E-01 2.01923E-28
5.21810E-01 1.94449E-28
5.26168E-01 1.87264E-28
5.30524E-01 1.80357E-28
5.34878E-01 1.73717E-28
5.39230E-01 1.67332E-28
5.43578E-01 1.61192E-28
5.47923E-01 1.55287E-28
5.52264E-01 1.49608E-28
5.56602E-01 1.44146E-28
5.60935E-01 1.38892E-28
5.65263E-01 1.33837E-28
5.69587E-01 1.28973E-28
5.73905E-01 1.24293E-28
5.78217E-01 1.19790E-28
5.82524E-01 1.15457E-28
5.86824E-01 1.11286E-28
5.91118E-01 1.07272E-28
5.95404E-01 1.03408E-28
5.99684E-01 9.96878E-29
6.03956E-01 9.61066E-29
6.08220E-01 9.26585E-29
6.12476E-01 8.93385E-29
6.16723E-01 8.61415E-29
6.20961E-01 8.30626E-29
6.25190E-01 8.00974E-29
6.29410E-01 7.72415E-29
6.33619E-01 7.44905E-29
6.37819E-01 7.18404E-29
6.42008E-01 6.92875E-29
6.46186E-01 6.68278E-29
6.50353E-01 6.44579E-29
6.54508E-01 6.21744E-29
6.58652E-01 5.99738E-29
6.62784E-01 5.78531E-29
6.66903E-01 5.58093E-29
6.71010E-01 5.38394E-29
6.75104E-01 5.19406E-29
6.79184E-01 5.01102E-29
6.83251E-01 4.83457E-29
6.87303E-01 4.66445E-29
6.91342E-01 4.50044E-29
6.95366E-01 4.34229E-29
6.99375E-01 4.18980E-29
7.03368E-01 4.04274E-29
7.07347E-01 3.90092E-29
7.11309E-01 3.76415E-29
7.15256E-01 3.63223E-29
7.19186E-01 3.50498E-29
7.23099E-01 3.38224E-29
7.26995E-01 3.26383E-29
7.30874E-01 3.14960E-29
7.34736E-01 3.03939E-29
7.38579E-01 2.93306E-29
7.42405E-01 2.83046E-29
7.46212E-01 2.73145E-29
7.50000E-01 2.63591E-29
7.53769E-01 2.54371E-29
7.57519E-01 2.45472E-29
7.61249E-01 2.36884E-29
7.64960E-01 2.28594E-29
7.68650E-01 2.20592E-29
7.72320E-01 2.12868E-29
7.75968E-01 2.05412E-29
7.79596E-01 1.98213E-29
7.83203E-01 1.91263E-29
7.86788E-01 1.84552E-29
7.90351E-01 1.78073E-29
7.93893E-01 1.71816E-29
7.97411E-01 1.65774E-29
8.00908E-01 1.59940E-29
8.04381E-01 1.54305E-29
8.07831E-01 1.48864E-29
8.11257E-01 1.43608E-29
8.14660E-01 1.38531E-29
8.18039E-01 1.33628E-29
8.21394E-01 1.28891E-29
8.24724E-01 1.24315E-29
8.28030E-01 1.19895E-29
8.31310E-01 1.15625E-29
8.34565E-01 1.11499E-29
8.37795E-01 1.07513E-29
8.40999E-01 1.03662E-29
8.44177E-01 9.99406E-30
8.47329E-01 9.63448E-30
8.50455E-01 9.28702E-30
8.53553E-01 8.95126E-30
8.56625E-01 8.62679E-30
8.59670E-01 8.31322E-30
8.62687E-01 8.01018E-30
8.65677E-01 7.71730E-30
8.68639E-01 7.43424E-30
8.71572E-01 7.16066E-30
8.74478E-01 6.89624E-30
8.77355E-01 6.64065E-30
8.80203E-01 6.39361E-30
8.83022E-01 6.15482E-30
8.85812E-01 5.92401E-30
8.88573E-01 5.70089E-30
8.91304E-01 5.48522E-30
8.94005E-01 5.27674E-30
8.96677E-01 5.07521E-30
8.99318E-01 4.88040E-30
9.01928E-01 4.69208E-30
9.04508E-01 4.51003E-30
9.07058E-01 4.33405E-30
9.09576E-01 4.16394E-30
9.12063E-01 3.99950E-30
9.14519E-01 3.84055E-30
9.16943E-01 3.68690E-30
9.19335E-01 3.53838E-30
9.21696E-01 3.39482E-30
9.24024E-01 3.25606E-30
9.26320E-01 3.12195E-30
9.28584E-01 2.99233E-30
9.30815E-01 2.86706E-30
9.33013E-01 2.74600E-30
9.35178E-01 2.62901E-30
9.37310E-01 2.51597E-30
9.39409E-01 2.40674E-30
9.41474E-01 2.30122E-30
9.43505E-01 2.19928E-30
9.45503E-01 2.10081E-30
9.47467E-01 2.00569E-30
9.49397E-01 1.91384E-30
9.51293E-01 1.82514E-30
9.53154E-01 1.73951E-30
9.54981E-01 1.65684E-30
9.56773E-01 1.57704E-30
9.58530E-01 1.50004E-30
9.60252E-01 1.42575E-30
9.61940E-01 1.35408E-30
9.63592E-01 1.28496E-30
9.65209E-01 1.21832E-30
9.66790E-01 1.15408E-30
9.68336E-01 1.09217E-30
9.69846E-01 1.03254E-30
9.71321E-01 9.75105E-31
9.72759E-01 9.19817E-31
9.74162E-01 8.66614E-31
9.75528E-01 8.15440E-31
9.76858E-01 7.66240E-31
9.78152E-01 7.18963E-31
9.79410E-01 6.73557E-31
9.80631E-01 6.29975E-31
9.81815E-01 5.88171E-31
9.82963E-01 5.48102E-31
9.84074E-01 5.09725E-31
9.85148E-01 4.73000E-31
9.86185E-01 4.37888E-31
9.87185E-01 4.04354E-31
9.88148E-01 3.72360E-31
9.89074E-01 3.41875E-31
9.89962E-01 3.12867E-31
9.90814E-01 2.85305E-31
9.91627E-01 2.59160E-31
9.92404E-01 2.34406E-31
9.93143E-01 2.11017E-31
9.93844E-01 1.88969E-31
9.94508E-01 1.68238E-31
9.95134E-01 1.48803E-31
9.95722E-01 1.30645E-31
9.96273E-01 1.13744E-31
9.96786E-01 9.80833E-32
9.97261E-01 8.36461E-32
9.97698E-01 7.04184E-32
9.98097E-01 5.83853E-32
9.98459E-01 4.75357E-32
9.98782E-01 3.78576E-32
9.99067E-01 2.93419E-32
9.99315E-01 2.19787E-32
9.99524E-01 1.57613E-32
9.99695E-01 1.06829E-32
9.99829E-01 6.73859E-33
9.99924E-01 3.92396E-33
9.99981E-01 2.23634E-33
1.00000E+00 1.67436E-33
