 #
 # Subroutine ELSEPA. Elastic scattering of electrons and positrons
 #                    by neutral atoms and positive ions
 #
 # Projectile: positron
 # Kinetic energy = 2.50000E+07 eV = 9.18733E+05 a.u.
 #
 # WARNING: High-energy factorization with free-atom DF screening.
 #          Absorption, polarization and exchange corrections are
 #          switched off.
 #          Phase shifts are calculated for the bare nucleus.
 #          Scattering amplitudes are not evaluated.
 #
 # Element: Mn,  Z =  25,  atomic weight = 5.49380E+01 g/mol
 #
 # Nuclear model: Fermi distribution
 #                Average radius = 4.06763E-13 cm
 #                Skin thickness = 5.46000E-14 cm
 #
 # Number of electrons = 25
 #
 # Total elastic cross section = 1.95164E-18 cm**2 = 6.96944E-02 a0**2
 # 1st transport cross section = 1.73073E-24 cm**2 = 6.18056E-08 a0**2
 # 2nd transport cross section = 5.04161E-24 cm**2 = 1.80039E-07 a0**2
 #
 #
 # Differential cross section:                       MU=(1-COS(THETA))/2
 #
 #  THETA        MU          DCS          DCS        Sherman      error
 #  (deg)                 (cm**2/sr)   (a0**2/sr)    function
 #----------------------------------------------------------------------
0.00000E+00 1.39162E-11
7.61557E-13 1.39133E-11
1.18994E-12 1.39117E-11
1.71346E-12 1.39097E-11
2.33225E-12 1.39073E-11
3.04617E-12 1.39046E-11
3.85530E-12 1.39015E-11
4.75964E-12 1.38980E-11
5.75917E-12 1.38942E-11
6.85391E-12 1.38900E-11
8.04379E-12 1.38855E-11
9.32893E-12 1.38806E-11
1.07092E-11 1.38753E-11
1.21847E-11 1.38697E-11
1.37554E-11 1.38637E-11
1.54213E-11 1.38574E-11
1.71823E-11 1.38507E-11
1.90386E-11 1.38437E-11
2.09900E-11 1.38363E-11
2.30367E-11 1.38285E-11
2.51785E-11 1.38204E-11
2.74156E-11 1.38120E-11
2.97478E-11 1.38032E-11
3.21752E-11 1.37940E-11
3.46979E-11 1.37845E-11
3.73157E-11 1.37747E-11
4.00286E-11 1.37645E-11
4.28368E-11 1.37539E-11
4.57402E-11 1.37430E-11
4.87388E-11 1.37318E-11
5.18325E-11 1.37203E-11
5.50215E-11 1.37083E-11
5.83057E-11 1.36961E-11
6.16850E-11 1.36835E-11
6.51595E-11 1.36706E-11
6.87293E-11 1.36574E-11
7.23943E-11 1.36438E-11
7.61544E-11 1.36299E-11
1.18991E-10 1.34730E-11
1.71347E-10 1.32851E-11
2.33223E-10 1.30684E-11
3.04617E-10 1.28253E-11
3.85531E-10 1.25580E-11
4.75965E-10 1.22698E-11
5.75917E-10 1.19643E-11
6.85389E-10 1.16424E-11
8.04380E-10 1.13099E-11
9.32891E-10 1.09657E-11
1.07092E-09 1.06169E-11
1.21847E-09 1.02614E-11
1.37554E-09 9.90606E-12
1.54213E-09 9.54929E-12
1.71823E-09 9.19600E-12
1.90386E-09 8.84585E-12
2.09900E-09 8.50166E-12
2.30367E-09 8.16421E-12
2.51785E-09 7.83447E-12
2.74156E-09 7.51412E-12
2.97478E-09 7.20258E-12
3.21752E-09 6.90218E-12
3.46978E-09 6.61118E-12
3.73156E-09 6.33228E-12
4.00286E-09 6.06297E-12
4.28368E-09 5.80584E-12
4.57402E-09 5.55871E-12
4.87388E-09 5.32313E-12
5.18326E-09 5.09766E-12
5.50215E-09 4.88290E-12
5.83057E-09 4.67805E-12
6.16850E-09 4.48300E-12
6.51596E-09 4.29742E-12
6.87293E-09 4.12072E-12
7.23942E-09 3.95293E-12
7.61544E-09 3.79309E-12
1.18991E-08 2.57124E-12
1.71347E-08 1.81934E-12
2.33223E-08 1.33284E-12
3.04617E-08 1.00142E-12
3.85531E-08 7.59079E-13
4.75965E-08 5.85373E-13
5.75917E-08 4.61591E-13
6.85389E-08 3.61768E-13
8.04380E-08 2.89985E-13
9.32891E-08 2.30617E-13
1.07092E-07 1.87031E-13
1.21847E-07 1.51244E-13
1.37554E-07 1.24029E-13
1.54213E-07 1.02074E-13
1.71823E-07 8.48059E-14
1.90386E-07 7.09186E-14
2.09900E-07 5.97446E-14
2.30367E-07 5.06993E-14
2.51785E-07 4.32990E-14
2.74156E-07 3.72389E-14
2.97478E-07 3.22114E-14
3.21752E-07 2.80399E-14
3.46978E-07 2.45332E-14
3.73156E-07 2.15868E-14
4.00286E-07 1.90766E-14
4.28368E-07 1.69425E-14
4.57402E-07 1.51033E-14
4.87388E-07 1.35212E-14
5.18325E-07 1.21443E-14
5.50215E-07 1.09466E-14
5.83057E-07 9.89560E-15
6.16850E-07 8.97156E-15
6.51596E-07 8.15560E-15
6.87293E-07 7.43081E-15
7.23942E-07 6.78772E-15
7.61543E-07 6.21100E-15
1.18991E-06 2.80763E-15
1.71347E-06 1.43275E-15
2.33223E-06 7.97656E-16
3.04617E-06 4.76273E-16
3.85531E-06 3.00972E-16
4.75964E-06 1.99451E-16
5.75916E-06 1.37415E-16
6.85388E-06 9.77980E-17
8.04378E-06 7.15224E-17
9.32888E-06 5.35334E-17
1.07092E-05 4.08756E-17
1.21846E-05 3.17550E-17
1.37553E-05 2.50458E-17
1.54212E-05 2.00199E-17
1.71822E-05 1.61934E-17
1.90385E-05 1.32376E-17
2.09899E-05 1.09274E-17
2.30365E-05 9.09913E-18
2.51783E-05 7.63691E-18
2.74153E-05 6.45626E-18
2.97475E-05 5.49462E-18
3.21749E-05 4.70510E-18
3.46974E-05 4.05224E-18
3.73152E-05 3.50866E-18
4.00281E-05 3.05313E-18
4.28362E-05 2.66906E-18
4.57395E-05 2.34340E-18
4.87380E-05 2.06578E-18
5.18317E-05 1.82798E-18
5.50205E-05 1.62335E-18
5.83045E-05 1.44652E-18
6.16838E-05 1.29308E-18
6.51582E-05 1.15943E-18
6.87277E-05 1.04258E-18
7.23925E-05 9.40072E-19
7.61524E-05 8.49839E-19
9.21439E-05 5.81062E-19
1.09658E-04 4.10520E-19
1.28695E-04 2.98154E-19
1.49255E-04 2.21697E-19
1.71338E-04 1.68235E-19
1.94942E-04 1.29945E-19
2.20070E-04 1.01947E-19
2.46720E-04 8.10935E-20
2.74892E-04 6.53053E-20
3.04586E-04 5.31765E-20
3.35803E-04 4.37346E-20
3.68542E-04 3.62968E-20
4.02802E-04 3.03737E-20
4.38585E-04 2.56099E-20
4.75889E-04 2.17437E-20
5.14715E-04 1.85796E-20
5.55063E-04 1.59702E-20
5.96931E-04 1.38027E-20
6.40321E-04 1.19904E-20
6.85233E-04 1.04657E-20
7.31665E-04 9.17557E-21
7.79618E-04 8.07803E-21
8.29092E-04 7.13960E-21
8.80086E-04 6.33341E-21
9.32601E-04 5.63773E-21
9.86636E-04 5.03487E-21
1.04219E-03 4.51038E-21
1.09927E-03 4.05235E-21
1.15786E-03 3.65093E-21
1.21797E-03 3.29794E-21
1.27961E-03 2.98653E-21
1.34276E-03 2.71097E-21
1.40743E-03 2.46642E-21
1.47362E-03 2.24880E-21
1.54133E-03 2.05461E-21
1.61056E-03 1.88091E-21
1.68131E-03 1.72515E-21
1.75357E-03 1.58515E-21
1.82735E-03 1.45905E-21
1.90265E-03 1.34522E-21
1.97947E-03 1.24225E-21
2.05780E-03 1.14894E-21
2.13765E-03 1.06420E-21
2.21902E-03 9.87121E-22
2.30190E-03 9.16880E-22
2.38630E-03 8.52764E-22
2.47222E-03 7.94144E-22
2.55965E-03 7.40465E-22
2.64859E-03 6.91235E-22
2.73905E-03 6.46021E-22
2.83103E-03 6.04435E-22
2.92452E-03 5.66134E-22
3.01952E-03 5.30813E-22
3.11604E-03 4.98197E-22
3.21407E-03 4.68042E-22
3.31362E-03 4.40129E-22
3.41468E-03 4.14260E-22
3.51725E-03 3.90260E-22
3.62133E-03 3.67968E-22
3.72692E-03 3.47242E-22
3.83403E-03 3.27950E-22
3.94265E-03 3.09976E-22
4.05278E-03 2.93213E-22
4.16442E-03 2.77565E-22
4.27757E-03 2.62944E-22
4.39223E-03 2.49270E-22
4.50840E-03 2.36471E-22
4.62608E-03 2.24481E-22
4.74527E-03 2.13239E-22
4.86597E-03 2.02689E-22
4.98817E-03 1.92782E-22
5.11188E-03 1.83471E-22
5.23711E-03 1.74714E-22
5.36383E-03 1.66471E-22
5.49207E-03 1.58707E-22
5.62181E-03 1.51389E-22
5.75306E-03 1.44487E-22
5.88581E-03 1.37972E-22
6.02007E-03 1.31819E-22
6.15583E-03 1.26003E-22
6.29310E-03 1.20504E-22
6.43187E-03 1.15301E-22
6.57214E-03 1.10374E-22
6.71392E-03 1.05707E-22
6.85720E-03 1.01283E-22
7.00198E-03 9.70871E-23
7.14827E-03 9.31055E-23
7.29605E-03 8.93250E-23
7.44534E-03 8.57338E-23
7.59612E-03 8.23205E-23
7.97965E-03 7.44990E-23
8.37255E-03 6.75812E-23
8.77480E-03 6.14449E-23
9.18641E-03 5.59867E-23
9.60736E-03 5.11189E-23
1.00376E-02 4.67666E-23
1.04773E-02 4.28657E-23
1.09262E-02 3.93614E-23
1.13844E-02 3.62063E-23
1.18520E-02 3.33597E-23
1.23288E-02 3.07860E-23
1.28150E-02 2.84546E-23
1.33104E-02 2.63386E-23
1.38150E-02 2.44147E-23
1.43290E-02 2.26624E-23
1.48521E-02 2.10636E-23
1.53845E-02 1.96026E-23
1.59262E-02 1.82653E-23
1.64770E-02 1.70396E-23
1.70371E-02 1.59143E-23
1.76063E-02 1.48798E-23
1.81848E-02 1.39276E-23
1.87724E-02 1.30498E-23
1.93692E-02 1.22396E-23
1.99751E-02 1.14910E-23
2.05901E-02 1.07983E-23
2.12143E-02 1.01567E-23
2.18476E-02 9.56171E-24
2.24900E-02 9.00935E-24
2.31415E-02 8.49602E-24
2.38021E-02 8.01846E-24
2.44717E-02 7.57374E-24
2.51504E-02 7.15920E-24
2.58382E-02 6.77241E-24
2.65349E-02 6.41118E-24
2.72407E-02 6.07353E-24
2.79555E-02 5.75763E-24
2.86793E-02 5.46184E-24
2.94120E-02 5.18464E-24
3.01537E-02 4.92465E-24
3.09043E-02 4.68062E-24
3.16639E-02 4.45137E-24
3.24324E-02 4.23587E-24
3.32098E-02 4.03313E-24
3.39961E-02 3.84227E-24
3.47912E-02 3.66245E-24
3.55952E-02 3.49293E-24
3.64081E-02 3.33301E-24
3.72297E-02 3.18205E-24
3.80602E-02 3.03945E-24
3.88995E-02 2.90467E-24
3.97476E-02 2.77720E-24
4.06044E-02 2.65657E-24
4.14700E-02 2.54235E-24
4.23443E-02 2.43413E-24
4.32273E-02 2.33155E-24
4.41190E-02 2.23426E-24
4.50194E-02 2.14193E-24
4.59284E-02 2.05427E-24
4.68461E-02 1.97099E-24
4.87074E-02 1.81658E-24
5.06030E-02 1.67682E-24
5.25328E-02 1.55009E-24
5.44967E-02 1.43497E-24
5.64946E-02 1.33020E-24
5.85262E-02 1.23470E-24
6.05914E-02 1.14750E-24
6.26901E-02 1.06776E-24
6.48222E-02 9.94739E-25
6.69873E-02 9.27762E-25
6.91854E-02 8.66246E-25
7.14163E-02 8.09669E-25
7.36799E-02 7.57565E-25
7.59760E-02 7.09520E-25
7.83043E-02 6.65162E-25
8.06647E-02 6.24160E-25
8.30571E-02 5.86216E-25
8.54812E-02 5.51062E-25
8.79369E-02 5.18457E-25
9.04240E-02 4.88185E-25
9.29422E-02 4.60049E-25
9.54915E-02 4.33873E-25
9.80716E-02 4.09496E-25
1.00682E-01 3.86773E-25
1.03323E-01 3.65573E-25
1.05995E-01 3.45776E-25
1.08696E-01 3.27272E-25
1.11427E-01 3.09964E-25
1.14188E-01 2.93759E-25
1.16978E-01 2.78575E-25
1.19797E-01 2.64338E-25
1.22645E-01 2.50977E-25
1.25522E-01 2.38429E-25
1.28428E-01 2.26637E-25
1.31361E-01 2.15547E-25
1.34323E-01 2.05110E-25
1.37313E-01 1.95280E-25
1.40330E-01 1.86017E-25
1.43375E-01 1.77281E-25
1.46447E-01 1.69039E-25
1.49545E-01 1.61256E-25
1.52671E-01 1.53904E-25
1.55823E-01 1.46953E-25
1.59001E-01 1.40379E-25
1.62205E-01 1.34158E-25
1.65435E-01 1.28266E-25
1.68690E-01 1.22685E-25
1.71970E-01 1.17394E-25
1.75276E-01 1.12376E-25
1.78606E-01 1.07614E-25
1.81961E-01 1.03094E-25
1.85340E-01 9.88002E-26
1.88743E-01 9.47200E-26
1.92169E-01 9.08407E-26
1.95619E-01 8.71508E-26
1.99092E-01 8.36396E-26
2.02589E-01 8.02968E-26
2.06107E-01 7.71130E-26
2.09649E-01 7.40794E-26
2.13212E-01 7.11876E-26
2.16797E-01 6.84300E-26
2.20404E-01 6.57991E-26
2.24032E-01 6.32883E-26
2.27680E-01 6.08911E-26
2.31350E-01 5.86015E-26
2.35040E-01 5.64138E-26
2.38751E-01 5.43228E-26
2.42481E-01 5.23234E-26
2.46231E-01 5.04110E-26
2.50000E-01 4.85811E-26
2.53788E-01 4.68297E-26
2.57595E-01 4.51526E-26
2.61421E-01 4.35464E-26
2.65264E-01 4.20074E-26
2.69126E-01 4.05324E-26
2.73005E-01 3.91183E-26
2.76901E-01 3.77622E-26
2.80814E-01 3.64612E-26
2.84744E-01 3.52128E-26
2.88691E-01 3.40145E-26
2.92653E-01 3.28639E-26
2.96632E-01 3.17589E-26
3.00625E-01 3.06973E-26
3.04634E-01 2.96771E-26
3.08658E-01 2.86965E-26
3.12697E-01 2.77537E-26
3.16749E-01 2.68470E-26
3.20816E-01 2.59747E-26
3.24896E-01 2.51354E-26
3.28990E-01 2.43276E-26
3.33097E-01 2.35499E-26
3.37216E-01 2.28010E-26
3.41348E-01 2.20797E-26
3.45492E-01 2.13848E-26
3.49647E-01 2.07152E-26
3.53814E-01 2.00698E-26
3.57992E-01 1.94476E-26
3.62181E-01 1.88476E-26
3.66381E-01 1.82689E-26
3.70590E-01 1.77106E-26
3.74810E-01 1.71720E-26
3.79039E-01 1.66521E-26
3.83277E-01 1.61503E-26
3.87524E-01 1.56658E-26
3.91780E-01 1.51979E-26
3.96044E-01 1.47459E-26
4.00316E-01 1.43093E-26
4.04596E-01 1.38874E-26
4.08882E-01 1.34797E-26
4.13176E-01 1.30855E-26
4.17476E-01 1.27045E-26
4.21783E-01 1.23360E-26
4.26095E-01 1.19796E-26
4.30413E-01 1.16349E-26
4.34737E-01 1.13013E-26
4.39065E-01 1.09786E-26
4.43398E-01 1.06662E-26
4.47736E-01 1.03638E-26
4.52077E-01 1.00710E-26
4.56422E-01 9.78752E-27
4.60770E-01 9.51296E-27
4.65122E-01 9.24701E-27
4.69476E-01 8.98935E-27
4.73832E-01 8.73970E-27
4.78190E-01 8.49777E-27
4.82550E-01 8.26327E-27
4.86912E-01 8.03595E-27
4.91274E-01 7.81556E-27
4.95637E-01 7.60185E-27
5.00000E-01 7.39459E-27
5.04363E-01 7.19356E-27
5.08726E-01 6.99854E-27
5.13088E-01 6.80932E-27
5.17450E-01 6.62572E-27
5.21810E-01 6.44753E-27
5.26168E-01 6.27458E-27
5.30524E-01 6.10668E-27
5.34878E-01 5.94368E-27
5.39230E-01 5.78540E-27
5.43578E-01 5.63169E-27
5.47923E-01 5.48240E-27
5.52264E-01 5.33738E-27
5.56602E-01 5.19650E-27
5.60935E-01 5.05962E-27
5.65263E-01 4.92661E-27
5.69587E-01 4.79735E-27
5.73905E-01 4.67171E-27
5.78217E-01 4.54958E-27
5.82524E-01 4.43085E-27
5.86824E-01 4.31541E-27
5.91118E-01 4.20316E-27
5.95404E-01 4.09399E-27
5.99684E-01 3.98782E-27
6.03956E-01 3.88454E-27
6.08220E-01 3.78407E-27
6.12476E-01 3.68632E-27
6.16723E-01 3.59121E-27
6.20961E-01 3.49866E-27
6.25190E-01 3.40859E-27
6.29410E-01 3.32093E-27
6.33619E-01 3.23559E-27
6.37819E-01 3.15252E-27
6.42008E-01 3.07164E-27
6.46186E-01 2.99289E-27
6.50353E-01 2.91621E-27
6.54508E-01 2.84153E-27
6.58652E-01 2.76880E-27
6.62784E-01 2.69796E-27
6.66903E-01 2.62895E-27
6.71010E-01 2.56173E-27
6.75104E-01 2.49623E-27
6.79184E-01 2.43241E-27
6.83251E-01 2.37023E-27
6.87303E-01 2.30962E-27
6.91342E-01 2.25056E-27
6.95366E-01 2.19300E-27
6.99375E-01 2.13688E-27
7.03368E-01 2.08219E-27
7.07347E-01 2.02886E-27
7.11309E-01 1.97687E-27
7.15256E-01 1.92618E-27
7.19186E-01 1.87675E-27
7.23099E-01 1.82854E-27
7.26995E-01 1.78153E-27
7.30874E-01 1.73569E-27
7.34736E-01 1.69097E-27
7.38579E-01 1.64735E-27
7.42405E-01 1.60479E-27
7.46212E-01 1.56328E-27
7.50000E-01 1.52279E-27
7.53769E-01 1.48327E-27
7.57519E-01 1.44472E-27
7.61249E-01 1.40710E-27
7.64960E-01 1.37039E-27
7.68650E-01 1.33456E-27
7.72320E-01 1.29960E-27
7.75968E-01 1.26547E-27
7.79596E-01 1.23217E-27
7.83203E-01 1.19966E-27
7.86788E-01 1.16792E-27
7.90351E-01 1.13695E-27
7.93893E-01 1.10671E-27
7.97411E-01 1.07718E-27
8.00908E-01 1.04836E-27
8.04381E-01 1.02022E-27
8.07831E-01 9.92746E-28
8.11257E-01 9.65920E-28
8.14660E-01 9.39726E-28
8.18039E-01 9.14148E-28
8.21394E-01 8.89172E-28
8.24724E-01 8.64782E-28
8.28030E-01 8.40964E-28
8.31310E-01 8.17705E-28
8.34565E-01 7.94990E-28
8.37795E-01 7.72806E-28
8.40999E-01 7.51142E-28
8.44177E-01 7.29983E-28
8.47329E-01 7.09318E-28
8.50455E-01 6.89136E-28
8.53553E-01 6.69425E-28
8.56625E-01 6.50174E-28
8.59670E-01 6.31372E-28
8.62687E-01 6.13008E-28
8.65677E-01 5.95073E-28
8.68639E-01 5.77556E-28
8.71572E-01 5.60448E-28
8.74478E-01 5.43740E-28
8.77355E-01 5.27422E-28
8.80203E-01 5.11486E-28
8.83022E-01 4.95923E-28
8.85812E-01 4.80725E-28
8.88573E-01 4.65883E-28
8.91304E-01 4.51390E-28
8.94005E-01 4.37237E-28
8.96677E-01 4.23419E-28
8.99318E-01 4.09927E-28
9.01928E-01 3.96754E-28
9.04508E-01 3.83893E-28
9.07058E-01 3.71338E-28
9.09576E-01 3.59082E-28
9.12063E-01 3.47120E-28
9.14519E-01 3.35444E-28
9.16943E-01 3.24049E-28
9.19335E-01 3.12929E-28
9.21696E-01 3.02078E-28
9.24024E-01 2.91492E-28
9.26320E-01 2.81164E-28
9.28584E-01 2.71090E-28
9.30815E-01 2.61264E-28
9.33013E-01 2.51681E-28
9.35178E-01 2.42338E-28
9.37310E-01 2.33229E-28
9.39409E-01 2.24349E-28
9.41474E-01 2.15695E-28
9.43505E-01 2.07262E-28
9.45503E-01 1.99047E-28
9.47467E-01 1.91044E-28
9.49397E-01 1.83250E-28
9.51293E-01 1.75663E-28
9.53154E-01 1.68276E-28
9.54981E-01 1.61088E-28
9.56773E-01 1.54095E-28
9.58530E-01 1.47294E-28
9.60252E-01 1.40681E-28
9.61940E-01 1.34253E-28
9.63592E-01 1.28007E-28
9.65209E-01 1.21940E-28
9.66790E-01 1.16049E-28
9.68336E-01 1.10333E-28
9.69846E-01 1.04787E-28
9.71321E-01 9.94089E-29
9.72759E-01 9.41970E-29
9.74162E-01 8.91485E-29
9.75528E-01 8.42611E-29
9.76858E-01 7.95324E-29
9.78152E-01 7.49604E-29
9.79410E-01 7.05429E-29
9.80631E-01 6.62778E-29
9.81815E-01 6.21633E-29
9.82963E-01 5.81975E-29
9.84074E-01 5.43785E-29
9.85148E-01 5.07045E-29
9.86185E-01 4.71741E-29
9.87185E-01 4.37854E-29
9.88148E-01 4.05370E-29
9.89074E-01 3.74275E-29
9.89962E-01 3.44553E-29
9.90814E-01 3.16193E-29
9.91627E-01 2.89180E-29
9.92404E-01 2.63503E-29
9.93143E-01 2.39151E-29
9.93844E-01 2.16112E-29
9.94508E-01 1.94376E-29
9.95134E-01 1.73933E-29
9.95722E-01 1.54775E-29
9.96273E-01 1.36892E-29
9.96786E-01 1.20277E-29
9.97261E-01 1.04921E-29
9.97698E-01 9.08199E-30
9.98097E-01 7.79653E-30
9.98459E-01 6.63522E-30
9.98782E-01 5.59753E-30
9.99067E-01 4.68301E-30
9.99315E-01 3.89124E-30
9.99524E-01 3.22187E-30
9.99695E-01 2.67461E-30
9.99829E-01 2.24922E-30
9.99924E-01 1.94550E-30
9.99981E-01 1.76332E-30
1.00000E+00 1.70264E-30
