 #
 # Subroutine ELSEPA. Elastic scattering of electrons and positrons
 #                    by neutral atoms and positive ions
 #
 # Projectile: positron
 # Kinetic energy = 6.00000E+06 eV = 2.20496E+05 a.u.
 #
 # WARNING: High-energy factorization with free-atom DF screening.
 #          Absorption, polarization and exchange corrections are
 #          switched off.
 #          Phase shifts are calculated for the bare nucleus.
 #          Scattering amplitudes are not evaluated.
 #
 # Element: Mn,  Z =  25,  atomic weight = 5.49380E+01 g/mol
 #
 # Nuclear model: Fermi distribution
 #                Average radius = 4.06763E-13 cm
 #                Skin thickness = 5.46000E-14 cm
 #
 # Number of electrons = 25
 #
 # Total elastic cross section = 1.96196E-18 cm**2 = 7.00629E-02 a0**2
 # 1st transport cross section = 2.17367E-23 cm**2 = 7.76231E-07 a0**2
 # 2nd transport cross section = 6.26960E-23 cm**2 = 2.23892E-06 a0**2
 #
 #
 # Differential cross section:                       MU=(1-COS(THETA))/2
 #
 #  THETA        MU          DCS          DCS        Sherman      error
 #  (deg)                 (cm**2/sr)   (a0**2/sr)    function
 #----------------------------------------------------------------------
0.00000E+00 9.06489E-13
7.61557E-13 9.06476E-13
1.18994E-12 9.06469E-13
1.71346E-12 9.06460E-13
2.33225E-12 9.06450E-13
3.04617E-12 9.06438E-13
3.85530E-12 9.06425E-13
4.75964E-12 9.06410E-13
5.75917E-12 9.06394E-13
6.85391E-12 9.06376E-13
8.04379E-12 9.06356E-13
9.32893E-12 9.06336E-13
1.07092E-11 9.06313E-13
1.21847E-11 9.06289E-13
1.37554E-11 9.06264E-13
1.54213E-11 9.06237E-13
1.71823E-11 9.06208E-13
1.90386E-11 9.06178E-13
2.09900E-11 9.06146E-13
2.30367E-11 9.06113E-13
2.51785E-11 9.06078E-13
2.74156E-11 9.06042E-13
2.97478E-11 9.06004E-13
3.21752E-11 9.05965E-13
3.46979E-11 9.05924E-13
3.73157E-11 9.05882E-13
4.00286E-11 9.05838E-13
4.28368E-11 9.05793E-13
4.57402E-11 9.05746E-13
4.87388E-11 9.05697E-13
5.18325E-11 9.05647E-13
5.50215E-11 9.05596E-13
5.83057E-11 9.05543E-13
6.16850E-11 9.05488E-13
6.51595E-11 9.05432E-13
6.87293E-11 9.05375E-13
7.23943E-11 9.05315E-13
7.61544E-11 9.05255E-13
1.18991E-10 9.04564E-13
1.71347E-10 9.03722E-13
2.33223E-10 9.02729E-13
3.04617E-10 9.01586E-13
3.85531E-10 9.00292E-13
4.75965E-10 8.98851E-13
5.75917E-10 8.97263E-13
6.85389E-10 8.95528E-13
8.04380E-10 8.93649E-13
9.32891E-10 8.91626E-13
1.07092E-09 8.89463E-13
1.21847E-09 8.87159E-13
1.37554E-09 8.84717E-13
1.54213E-09 8.82139E-13
1.71823E-09 8.79426E-13
1.90386E-09 8.76582E-13
2.09900E-09 8.73608E-13
2.30367E-09 8.70506E-13
2.51785E-09 8.67278E-13
2.74156E-09 8.63927E-13
2.97478E-09 8.60456E-13
3.21752E-09 8.56866E-13
3.46978E-09 8.53162E-13
3.73156E-09 8.49344E-13
4.00286E-09 8.45417E-13
4.28368E-09 8.41382E-13
4.57402E-09 8.37243E-13
4.87388E-09 8.33002E-13
5.18326E-09 8.28663E-13
5.50215E-09 8.24223E-13
5.83057E-09 8.19672E-13
6.16850E-09 8.15037E-13
6.51596E-09 8.10322E-13
6.87293E-09 8.05530E-13
7.23942E-09 8.00664E-13
7.61544E-09 7.95729E-13
1.18991E-08 7.42729E-13
1.71347E-08 6.85325E-13
2.33223E-08 6.26309E-13
3.04617E-08 5.68061E-13
3.85531E-08 5.12327E-13
4.75965E-08 4.60272E-13
5.75917E-08 4.12556E-13
6.85389E-08 3.69393E-13
8.04380E-08 3.30827E-13
9.32891E-08 2.96629E-13
1.07092E-07 2.66456E-13
1.21847E-07 2.39912E-13
1.37554E-07 2.16572E-13
1.54213E-07 1.96049E-13
1.71823E-07 1.77991E-13
1.90386E-07 1.62066E-13
2.09900E-07 1.47985E-13
2.30367E-07 1.35492E-13
2.51785E-07 1.24353E-13
2.74156E-07 1.14403E-13
2.97478E-07 1.05483E-13
3.21752E-07 9.74595E-14
3.46978E-07 9.02164E-14
3.73156E-07 8.36440E-14
4.00286E-07 7.76672E-14
4.28368E-07 7.22219E-14
4.57402E-07 6.72473E-14
4.87388E-07 6.26913E-14
5.18325E-07 5.85062E-14
5.50215E-07 5.45828E-14
5.83057E-07 5.07359E-14
6.16850E-07 4.72809E-14
6.51596E-07 4.41700E-14
6.87293E-07 4.13618E-14
7.23942E-07 3.88208E-14
7.61543E-07 3.65160E-14
1.18991E-06 2.00653E-14
1.71347E-06 1.14927E-14
2.33223E-06 6.88712E-15
3.04617E-06 4.33619E-15
3.85531E-06 2.86047E-15
4.75964E-06 1.96866E-15
5.75916E-06 1.40601E-15
6.85388E-06 1.03586E-15
8.04378E-06 7.83302E-16
9.32888E-06 6.05157E-16
1.07092E-05 4.75860E-16
1.21846E-05 3.79722E-16
1.37553E-05 3.06676E-16
1.54212E-05 2.50236E-16
1.71822E-05 2.06095E-16
1.90385E-05 1.71144E-16
2.09899E-05 1.43202E-16
2.30365E-05 1.20627E-16
2.51783E-05 1.02215E-16
2.74153E-05 8.71182E-17
2.97475E-05 7.46578E-17
3.21749E-05 6.43117E-17
3.46974E-05 5.56725E-17
3.73152E-05 4.84158E-17
4.00281E-05 4.22909E-17
4.28362E-05 3.70963E-17
4.57395E-05 3.26690E-17
4.87380E-05 2.88782E-17
5.18317E-05 2.56181E-17
5.50205E-05 2.28017E-17
5.83045E-05 2.03581E-17
6.16838E-05 1.82368E-17
6.51582E-05 1.63882E-17
6.87277E-05 1.47644E-17
7.23925E-05 1.33376E-17
7.61524E-05 1.20810E-17
9.21439E-05 8.32069E-18
1.09658E-04 5.91926E-18
1.28695E-04 4.32760E-18
1.49255E-04 3.23813E-18
1.71338E-04 2.47173E-18
1.94942E-04 1.91958E-18
2.20070E-04 1.51339E-18
2.46720E-04 1.20916E-18
2.74892E-04 9.77650E-19
3.04586E-04 7.98949E-19
3.35803E-04 6.59217E-19
3.68542E-04 5.48689E-19
4.02802E-04 4.60318E-19
4.38585E-04 3.89006E-19
4.75889E-04 3.30954E-19
5.14715E-04 2.83311E-19
5.55063E-04 2.43920E-19
5.96931E-04 2.11121E-19
6.40321E-04 1.83639E-19
6.85233E-04 1.60475E-19
7.31665E-04 1.40841E-19
7.79618E-04 1.24113E-19
8.29092E-04 1.09788E-19
8.80086E-04 9.74661E-20
9.32601E-04 8.68207E-20
9.86636E-04 7.75859E-20
1.04219E-03 6.95439E-20
1.09927E-03 6.25147E-20
1.15786E-03 5.63491E-20
1.21797E-03 5.09231E-20
1.27961E-03 4.61332E-20
1.34276E-03 4.18921E-20
1.40743E-03 3.81261E-20
1.47362E-03 3.47729E-20
1.54133E-03 3.17794E-20
1.61056E-03 2.91004E-20
1.68131E-03 2.66971E-20
1.75357E-03 2.45363E-20
1.82735E-03 2.25892E-20
1.90265E-03 2.08310E-20
1.97947E-03 1.92401E-20
2.05780E-03 1.77979E-20
2.13765E-03 1.64879E-20
2.21902E-03 1.52960E-20
2.30190E-03 1.42097E-20
2.38630E-03 1.32178E-20
2.47222E-03 1.23107E-20
2.55965E-03 1.14800E-20
2.64859E-03 1.07179E-20
2.73905E-03 1.00180E-20
2.83103E-03 9.37404E-21
2.92452E-03 8.78089E-21
3.01952E-03 8.23381E-21
3.11604E-03 7.72857E-21
3.21407E-03 7.26139E-21
3.31362E-03 6.82888E-21
3.41468E-03 6.42802E-21
3.51725E-03 6.05606E-21
3.62133E-03 5.71055E-21
3.72692E-03 5.38926E-21
3.83403E-03 5.09019E-21
3.94265E-03 4.81152E-21
4.05278E-03 4.55161E-21
4.16442E-03 4.30896E-21
4.27757E-03 4.08222E-21
4.39223E-03 3.87016E-21
4.50840E-03 3.67165E-21
4.62608E-03 3.48567E-21
4.74527E-03 3.31128E-21
4.86597E-03 3.14763E-21
4.98817E-03 2.99393E-21
5.11188E-03 2.84947E-21
5.23711E-03 2.71360E-21
5.36383E-03 2.58570E-21
5.49207E-03 2.46522E-21
5.62181E-03 2.35166E-21
5.75306E-03 2.24454E-21
5.88581E-03 2.14343E-21
6.02007E-03 2.04793E-21
6.15583E-03 1.95767E-21
6.29310E-03 1.87232E-21
6.43187E-03 1.79155E-21
6.57214E-03 1.71507E-21
6.71392E-03 1.64262E-21
6.85720E-03 1.57394E-21
7.00198E-03 1.50880E-21
7.14827E-03 1.44698E-21
7.29605E-03 1.38828E-21
7.44534E-03 1.33252E-21
7.59612E-03 1.27953E-21
7.97965E-03 1.15807E-21
8.37255E-03 1.05064E-21
8.77480E-03 9.55343E-22
9.18641E-03 8.70568E-22
9.60736E-03 7.94956E-22
1.00376E-02 7.27346E-22
1.04773E-02 6.66745E-22
1.09262E-02 6.12301E-22
1.13844E-02 5.63280E-22
1.18520E-02 5.19047E-22
1.23288E-02 4.79054E-22
1.28150E-02 4.42823E-22
1.33104E-02 4.09937E-22
1.38150E-02 3.80035E-22
1.43290E-02 3.52798E-22
1.48521E-02 3.27946E-22
1.53845E-02 3.05234E-22
1.59262E-02 2.84444E-22
1.64770E-02 2.65386E-22
1.70371E-02 2.47890E-22
1.76063E-02 2.31804E-22
1.81848E-02 2.16996E-22
1.87724E-02 2.03345E-22
1.93692E-02 1.90745E-22
1.99751E-02 1.79100E-22
2.05901E-02 1.68326E-22
2.12143E-02 1.58345E-22
2.18476E-02 1.49089E-22
2.24900E-02 1.40495E-22
2.31415E-02 1.32508E-22
2.38021E-02 1.25077E-22
2.44717E-02 1.18156E-22
2.51504E-02 1.11705E-22
2.58382E-02 1.05685E-22
2.65349E-02 1.00062E-22
2.72407E-02 9.48064E-23
2.79555E-02 8.98887E-23
2.86793E-02 8.52835E-23
2.94120E-02 8.09675E-23
3.01537E-02 7.69192E-23
3.09043E-02 7.31189E-23
3.16639E-02 6.95488E-23
3.24324E-02 6.61923E-23
3.32098E-02 6.30344E-23
3.39961E-02 6.00612E-23
3.47912E-02 5.72598E-23
3.55952E-02 5.46186E-23
3.64081E-02 5.21268E-23
3.72297E-02 4.97743E-23
3.80602E-02 4.75520E-23
3.88995E-02 4.54513E-23
3.97476E-02 4.34644E-23
4.06044E-02 4.15840E-23
4.14700E-02 3.98033E-23
4.23443E-02 3.81160E-23
4.32273E-02 3.65165E-23
4.41190E-02 3.49992E-23
4.50194E-02 3.35592E-23
4.59284E-02 3.21919E-23
4.68461E-02 3.08928E-23
4.87074E-02 2.84837E-23
5.06030E-02 2.63029E-23
5.25328E-02 2.43248E-23
5.44967E-02 2.25275E-23
5.64946E-02 2.08916E-23
5.85262E-02 1.94000E-23
6.05914E-02 1.80378E-23
6.26901E-02 1.67919E-23
6.48222E-02 1.56505E-23
6.69873E-02 1.46035E-23
6.91854E-02 1.36415E-23
7.14163E-02 1.27566E-23
7.36799E-02 1.19415E-23
7.59760E-02 1.11896E-23
7.83043E-02 1.04952E-23
8.06647E-02 9.85326E-24
8.30571E-02 9.25899E-24
8.54812E-02 8.70826E-24
8.79369E-02 8.19733E-24
9.04240E-02 7.72280E-24
9.29422E-02 7.28164E-24
9.54915E-02 6.87109E-24
9.80716E-02 6.48864E-24
1.00682E-01 6.13203E-24
1.03323E-01 5.79922E-24
1.05995E-01 5.48832E-24
1.08696E-01 5.19765E-24
1.11427E-01 4.92566E-24
1.14188E-01 4.67093E-24
1.16978E-01 4.43218E-24
1.19797E-01 4.20823E-24
1.22645E-01 3.99799E-24
1.25522E-01 3.80048E-24
1.28428E-01 3.61479E-24
1.31361E-01 3.44010E-24
1.34323E-01 3.27563E-24
1.37313E-01 3.12067E-24
1.40330E-01 2.97459E-24
1.43375E-01 2.83679E-24
1.46447E-01 2.70670E-24
1.49545E-01 2.58383E-24
1.52671E-01 2.46771E-24
1.55823E-01 2.35789E-24
1.59001E-01 2.25397E-24
1.62205E-01 2.15559E-24
1.65435E-01 2.06239E-24
1.68690E-01 1.97405E-24
1.71970E-01 1.89027E-24
1.75276E-01 1.81079E-24
1.78606E-01 1.73533E-24
1.81961E-01 1.66366E-24
1.85340E-01 1.59556E-24
1.88743E-01 1.53081E-24
1.92169E-01 1.46922E-24
1.95619E-01 1.41062E-24
1.99092E-01 1.35482E-24
2.02589E-01 1.30168E-24
2.06107E-01 1.25104E-24
2.09649E-01 1.20276E-24
2.13212E-01 1.15672E-24
2.16797E-01 1.11280E-24
2.20404E-01 1.07087E-24
2.24032E-01 1.03084E-24
2.27680E-01 9.92595E-25
2.31350E-01 9.56050E-25
2.35040E-01 9.21115E-25
2.38751E-01 8.87705E-25
2.42481E-01 8.55743E-25
2.46231E-01 8.25155E-25
2.50000E-01 7.95871E-25
2.53788E-01 7.67826E-25
2.57595E-01 7.40959E-25
2.61421E-01 7.15211E-25
2.65264E-01 6.90528E-25
2.69126E-01 6.66858E-25
2.73005E-01 6.44152E-25
2.76901E-01 6.22364E-25
2.80814E-01 6.01451E-25
2.84744E-01 5.81370E-25
2.88691E-01 5.62084E-25
2.92653E-01 5.43556E-25
2.96632E-01 5.25750E-25
3.00625E-01 5.08633E-25
3.04634E-01 4.92175E-25
3.08658E-01 4.76345E-25
3.12697E-01 4.61115E-25
3.16749E-01 4.46460E-25
3.20816E-01 4.32352E-25
3.24896E-01 4.18768E-25
3.28990E-01 4.05686E-25
3.33097E-01 3.93084E-25
3.37216E-01 3.80941E-25
3.41348E-01 3.69237E-25
3.45492E-01 3.57954E-25
3.49647E-01 3.47074E-25
3.53814E-01 3.36581E-25
3.57992E-01 3.26458E-25
3.62181E-01 3.16689E-25
3.66381E-01 3.07261E-25
3.70590E-01 2.98160E-25
3.74810E-01 2.89372E-25
3.79039E-01 2.80884E-25
3.83277E-01 2.72685E-25
3.87524E-01 2.64764E-25
3.91780E-01 2.57108E-25
3.96044E-01 2.49708E-25
4.00316E-01 2.42554E-25
4.04596E-01 2.35636E-25
4.08882E-01 2.28945E-25
4.13176E-01 2.22473E-25
4.17476E-01 2.16210E-25
4.21783E-01 2.10150E-25
4.26095E-01 2.04285E-25
4.30413E-01 1.98606E-25
4.34737E-01 1.93108E-25
4.39065E-01 1.87783E-25
4.43398E-01 1.82625E-25
4.47736E-01 1.77629E-25
4.52077E-01 1.72788E-25
4.56422E-01 1.68096E-25
4.60770E-01 1.63549E-25
4.65122E-01 1.59140E-25
4.69476E-01 1.54866E-25
4.73832E-01 1.50721E-25
4.78190E-01 1.46701E-25
4.82550E-01 1.42801E-25
4.86912E-01 1.39017E-25
4.91274E-01 1.35346E-25
4.95637E-01 1.31783E-25
5.00000E-01 1.28325E-25
5.04363E-01 1.24967E-25
5.08726E-01 1.21708E-25
5.13088E-01 1.18542E-25
5.17450E-01 1.15468E-25
5.21810E-01 1.12482E-25
5.26168E-01 1.09581E-25
5.30524E-01 1.06762E-25
5.34878E-01 1.04024E-25
5.39230E-01 1.01362E-25
5.43578E-01 9.87745E-26
5.47923E-01 9.62593E-26
5.52264E-01 9.38140E-26
5.56602E-01 9.14362E-26
5.60935E-01 8.91239E-26
5.65263E-01 8.68749E-26
5.69587E-01 8.46872E-26
5.73905E-01 8.25589E-26
5.78217E-01 8.04882E-26
5.82524E-01 7.84732E-26
5.86824E-01 7.65122E-26
5.91118E-01 7.46036E-26
5.95404E-01 7.27457E-26
5.99684E-01 7.09370E-26
6.03956E-01 6.91760E-26
6.08220E-01 6.74612E-26
6.12476E-01 6.57913E-26
6.16723E-01 6.41650E-26
6.20961E-01 6.25808E-26
6.25190E-01 6.10376E-26
6.29410E-01 5.95341E-26
6.33619E-01 5.80692E-26
6.37819E-01 5.66417E-26
6.42008E-01 5.52505E-26
6.46186E-01 5.38947E-26
6.50353E-01 5.25731E-26
6.54508E-01 5.12848E-26
6.58652E-01 5.00289E-26
6.62784E-01 4.88043E-26
6.66903E-01 4.76102E-26
6.71010E-01 4.64458E-26
6.75104E-01 4.53102E-26
6.79184E-01 4.42026E-26
6.83251E-01 4.31223E-26
6.87303E-01 4.20684E-26
6.91342E-01 4.10402E-26
6.95366E-01 4.00370E-26
6.99375E-01 3.90582E-26
7.03368E-01 3.81030E-26
7.07347E-01 3.71709E-26
7.11309E-01 3.62612E-26
7.15256E-01 3.53733E-26
7.19186E-01 3.45065E-26
7.23099E-01 3.36605E-26
7.26995E-01 3.28345E-26
7.30874E-01 3.20281E-26
7.34736E-01 3.12407E-26
7.38579E-01 3.04719E-26
7.42405E-01 2.97211E-26
7.46212E-01 2.89880E-26
7.50000E-01 2.82719E-26
7.53769E-01 2.75726E-26
7.57519E-01 2.68895E-26
7.61249E-01 2.62223E-26
7.64960E-01 2.55705E-26
7.68650E-01 2.49338E-26
7.72320E-01 2.43117E-26
7.75968E-01 2.37039E-26
7.79596E-01 2.31101E-26
7.83203E-01 2.25299E-26
7.86788E-01 2.19629E-26
7.90351E-01 2.14089E-26
7.93893E-01 2.08675E-26
7.97411E-01 2.03383E-26
8.00908E-01 1.98212E-26
8.04381E-01 1.93158E-26
8.07831E-01 1.88218E-26
8.11257E-01 1.83390E-26
8.14660E-01 1.78671E-26
8.18039E-01 1.74058E-26
8.21394E-01 1.69548E-26
8.24724E-01 1.65140E-26
8.28030E-01 1.60831E-26
8.31310E-01 1.56619E-26
8.34565E-01 1.52501E-26
8.37795E-01 1.48475E-26
8.40999E-01 1.44539E-26
8.44177E-01 1.40692E-26
8.47329E-01 1.36930E-26
8.50455E-01 1.33252E-26
8.53553E-01 1.29657E-26
8.56625E-01 1.26142E-26
8.59670E-01 1.22705E-26
8.62687E-01 1.19345E-26
8.65677E-01 1.16061E-26
8.68639E-01 1.12849E-26
8.71572E-01 1.09710E-26
8.74478E-01 1.06641E-26
8.77355E-01 1.03640E-26
8.80203E-01 1.00707E-26
8.83022E-01 9.78399E-27
8.85812E-01 9.50371E-27
8.88573E-01 9.22974E-27
8.91304E-01 8.96196E-27
8.94005E-01 8.70022E-27
8.96677E-01 8.44441E-27
8.99318E-01 8.19441E-27
9.01928E-01 7.95009E-27
9.04508E-01 7.71135E-27
9.07058E-01 7.47806E-27
9.09576E-01 7.25013E-27
9.12063E-01 7.02744E-27
9.14519E-01 6.80989E-27
9.16943E-01 6.59739E-27
9.19335E-01 6.38984E-27
9.21696E-01 6.18713E-27
9.24024E-01 5.98918E-27
9.26320E-01 5.79590E-27
9.28584E-01 5.60721E-27
9.30815E-01 5.42301E-27
9.33013E-01 5.24323E-27
9.35178E-01 5.06779E-27
9.37310E-01 4.89660E-27
9.39409E-01 4.72959E-27
9.41474E-01 4.56670E-27
9.43505E-01 4.40784E-27
9.45503E-01 4.25295E-27
9.47467E-01 4.10196E-27
9.49397E-01 3.95480E-27
9.51293E-01 3.81142E-27
9.53154E-01 3.67175E-27
9.54981E-01 3.53573E-27
9.56773E-01 3.40330E-27
9.58530E-01 3.27440E-27
9.60252E-01 3.14899E-27
9.61940E-01 3.02700E-27
9.63592E-01 2.90839E-27
9.65209E-01 2.79311E-27
9.66790E-01 2.68111E-27
9.68336E-01 2.57233E-27
9.69846E-01 2.46674E-27
9.71321E-01 2.36430E-27
9.72759E-01 2.26495E-27
9.74162E-01 2.16866E-27
9.75528E-01 2.07539E-27
9.76858E-01 1.98510E-27
9.78152E-01 1.89775E-27
9.79410E-01 1.81331E-27
9.80631E-01 1.73174E-27
9.81815E-01 1.65302E-27
9.82963E-01 1.57709E-27
9.84074E-01 1.50395E-27
9.85148E-01 1.43355E-27
9.86185E-01 1.36587E-27
9.87185E-01 1.30088E-27
9.88148E-01 1.23855E-27
9.89074E-01 1.17887E-27
9.89962E-01 1.12180E-27
9.90814E-01 1.06732E-27
9.91627E-01 1.01541E-27
9.92404E-01 9.66057E-28
9.93143E-01 9.19231E-28
9.93844E-01 8.74917E-28
9.94508E-01 8.33097E-28
9.95134E-01 7.93754E-28
9.95722E-01 7.56872E-28
9.96273E-01 7.22438E-28
9.96786E-01 6.90438E-28
9.97261E-01 6.60858E-28
9.97698E-01 6.33688E-28
9.98097E-01 6.08916E-28
9.98459E-01 5.86532E-28
9.98782E-01 5.66529E-28
9.99067E-01 5.48897E-28
9.99315E-01 5.33630E-28
9.99524E-01 5.20722E-28
9.99695E-01 5.10168E-28
9.99829E-01 5.01964E-28
9.99924E-01 4.96106E-28
9.99981E-01 4.92591E-28
1.00000E+00 4.91422E-28
