 #
 # Subroutine ELSEPA. Elastic scattering of electrons and positrons
 #                    by neutral atoms and positive ions
 #
 # Projectile: positron
 # Kinetic energy = 6.00000E+08 eV = 2.20496E+07 a.u.
 #
 # WARNING: High-energy factorization with free-atom DF screening.
 #          Absorption, polarization and exchange corrections are
 #          switched off.
 #          Phase shifts are calculated for the bare nucleus.
 #          Scattering amplitudes are not evaluated.
 #
 # Element: Mn,  Z =  25,  atomic weight = 5.49380E+01 g/mol
 #
 # Nuclear model: Fermi distribution
 #                Average radius = 4.06763E-13 cm
 #                Skin thickness = 5.46000E-14 cm
 #
 # Number of electrons = 25
 #
 # Total elastic cross section = 1.94591E-18 cm**2 = 6.94896E-02 a0**2
 # 1st transport cross section = 3.60191E-27 cm**2 = 1.28627E-10 a0**2
 # 2nd transport cross section = 1.08020E-26 cm**2 = 3.85745E-10 a0**2
 #
 #
 # Differential cross section:                       MU=(1-COS(THETA))/2
 #
 #  THETA        MU          DCS          DCS        Sherman      error
 #  (deg)                 (cm**2/sr)   (a0**2/sr)    function
 #----------------------------------------------------------------------
0.00000E+00 7.71097E-09
7.61557E-13 6.89295E-09
1.18994E-12 6.49235E-09
1.71346E-12 6.05184E-09
2.33225E-12 5.59114E-09
3.04617E-12 5.12764E-09
3.85530E-12 4.67524E-09
4.75964E-12 4.24424E-09
5.75917E-12 3.84135E-09
6.85391E-12 3.47044E-09
8.04379E-12 3.13323E-09
9.32893E-12 2.82939E-09
1.07092E-11 2.55742E-09
1.21847E-11 2.31507E-09
1.37554E-11 2.09970E-09
1.54213E-11 1.90856E-09
1.71823E-11 1.73897E-09
1.90386E-11 1.58836E-09
2.09900E-11 1.45442E-09
2.30367E-11 1.33496E-09
2.51785E-11 1.22821E-09
2.74156E-11 1.13255E-09
2.97478E-11 1.04659E-09
3.21752E-11 9.69096E-10
3.46979E-11 8.99026E-10
3.73157E-11 8.35475E-10
4.00286E-11 7.77666E-10
4.28368E-11 7.24930E-10
4.57402E-11 6.76691E-10
4.87388E-11 6.32436E-10
5.18325E-11 5.91698E-10
5.50215E-11 5.54169E-10
5.83057E-11 5.19525E-10
6.16850E-11 4.87484E-10
6.51595E-11 4.56604E-10
6.87293E-11 4.26954E-10
7.23943E-11 4.00099E-10
7.61544E-11 3.75724E-10
1.18991E-10 2.11432E-10
1.71347E-10 1.24335E-10
2.33223E-10 7.60556E-11
3.04617E-10 4.84195E-11
3.85531E-10 3.20865E-11
4.75965E-10 2.20960E-11
5.75917E-10 1.57588E-11
6.85389E-10 1.15910E-11
8.04380E-10 8.75366E-12
9.32891E-10 6.75889E-12
1.07092E-09 5.31592E-12
1.21847E-09 4.24593E-12
1.37554E-09 3.43550E-12
1.54213E-09 2.81058E-12
1.71823E-09 2.32104E-12
1.90386E-09 1.93272E-12
2.09900E-09 1.62137E-12
2.30367E-09 1.36909E-12
2.51785E-09 1.16313E-12
2.74156E-09 9.93754E-13
2.97478E-09 8.53511E-13
3.21752E-09 7.36674E-13
3.46978E-09 6.38792E-13
3.73156E-09 5.56367E-13
4.00286E-09 4.86618E-13
4.28368E-09 4.27321E-13
4.57402E-09 3.76683E-13
4.87388E-09 3.33249E-13
5.18326E-09 2.95836E-13
5.50215E-09 2.63490E-13
5.83057E-09 2.35421E-13
6.16850E-09 2.10976E-13
6.51596E-09 1.89593E-13
6.87293E-09 1.70840E-13
7.23942E-09 1.54377E-13
7.61544E-09 1.39875E-13
1.18991E-08 5.84781E-14
1.71347E-08 2.86810E-14
2.33223E-08 1.56978E-14
3.04617E-08 9.30328E-15
3.85531E-08 5.85729E-15
4.75965E-08 3.86802E-15
5.75917E-08 2.65509E-15
6.85389E-08 1.88181E-15
8.04380E-08 1.37025E-15
9.32891E-08 1.02107E-15
1.07092E-07 7.76226E-16
1.21847E-07 6.00469E-16
1.37554E-07 4.71704E-16
1.54213E-07 3.75643E-16
1.71823E-07 3.02815E-16
1.90386E-07 2.46796E-16
2.09900E-07 2.03143E-16
2.30367E-07 1.68722E-16
2.51785E-07 1.41288E-16
2.74156E-07 1.19207E-16
2.97478E-07 1.01273E-16
3.21752E-07 8.65874E-17
3.46978E-07 7.44686E-17
3.73156E-07 6.43969E-17
4.00286E-07 5.59712E-17
4.28368E-07 4.88791E-17
4.57402E-07 4.28752E-17
4.87388E-07 3.77652E-17
5.18325E-07 3.33941E-17
5.50215E-07 2.96374E-17
5.83057E-07 2.63942E-17
6.16850E-07 2.35827E-17
6.51596E-07 2.11357E-17
6.87293E-07 1.89980E-17
7.23942E-07 1.71237E-17
7.61543E-07 1.54750E-17
1.18991E-06 6.33958E-18
1.71347E-06 3.05734E-18
2.33223E-06 1.65021E-18
3.04617E-06 9.67255E-19
3.85531E-06 6.03802E-19
4.75964E-06 3.96119E-19
5.75916E-06 2.70528E-19
6.85388E-06 1.90992E-19
8.04378E-06 1.38651E-19
9.32888E-06 1.03071E-19
1.07092E-05 7.82058E-20
1.21846E-05 6.04057E-20
1.37553E-05 4.73932E-20
1.54212E-05 3.77029E-20
1.71822E-05 3.03671E-20
1.90385E-05 2.47304E-20
2.09899E-05 2.03453E-20
2.30365E-05 1.68899E-20
2.51783E-05 1.41372E-20
2.74153E-05 1.19226E-20
2.97475E-05 1.01248E-20
3.21749E-05 8.65338E-21
3.46974E-05 7.43987E-21
3.73152E-05 6.43193E-21
4.00281E-05 5.58912E-21
4.28362E-05 4.87995E-21
4.57395E-05 4.27974E-21
4.87380E-05 3.76897E-21
5.18317E-05 3.33210E-21
5.50205E-05 2.95668E-21
5.83045E-05 2.63265E-21
6.16838E-05 2.35181E-21
6.51582E-05 2.10744E-21
6.87277E-05 1.89401E-21
7.23925E-05 1.70693E-21
7.61524E-05 1.53019E-21
9.21439E-05 1.04255E-21
1.09658E-04 7.34093E-22
1.28695E-04 5.31389E-22
1.49255E-04 3.93786E-22
1.71338E-04 2.97778E-22
1.94942E-04 2.29163E-22
2.20070E-04 1.79096E-22
2.46720E-04 1.41885E-22
2.74892E-04 1.13773E-22
3.04586E-04 9.22256E-23
3.35803E-04 7.54910E-23
3.68542E-04 6.23405E-23
4.02802E-04 5.18947E-23
4.38585E-04 4.35159E-23
4.75889E-04 3.67348E-23
5.14715E-04 3.12012E-23
5.55063E-04 2.66517E-23
5.96931E-04 2.28847E-23
6.40321E-04 1.97455E-23
6.85233E-04 1.71137E-23
7.31665E-04 1.48947E-23
7.79618E-04 1.30141E-23
8.29092E-04 1.14124E-23
8.80086E-04 1.00420E-23
9.32601E-04 8.86448E-24
9.86636E-04 7.84848E-24
1.04219E-03 6.96856E-24
1.09927E-03 6.20373E-24
1.15786E-03 5.53668E-24
1.21797E-03 4.95304E-24
1.27961E-03 4.44081E-24
1.34276E-03 3.98997E-24
1.40743E-03 3.59207E-24
1.47362E-03 3.23997E-24
1.54133E-03 2.92764E-24
1.61056E-03 2.64993E-24
1.68131E-03 2.40245E-24
1.75357E-03 2.18143E-24
1.82735E-03 1.98364E-24
1.90265E-03 1.80630E-24
1.97947E-03 1.64700E-24
2.05780E-03 1.50364E-24
2.13765E-03 1.37442E-24
2.21902E-03 1.25774E-24
2.30190E-03 1.15223E-24
2.38630E-03 1.05667E-24
2.47222E-03 9.70009E-25
2.55965E-03 8.91300E-25
2.64859E-03 8.19723E-25
2.73905E-03 7.54548E-25
2.83103E-03 6.95132E-25
2.92452E-03 6.40903E-25
3.01952E-03 5.91351E-25
3.11604E-03 5.46026E-25
3.21407E-03 5.04523E-25
3.31362E-03 4.66483E-25
3.41468E-03 4.31583E-25
3.51725E-03 3.99535E-25
3.62133E-03 3.70080E-25
3.72692E-03 3.42985E-25
3.83403E-03 3.18040E-25
3.94265E-03 2.95058E-25
4.05278E-03 2.73866E-25
4.16442E-03 2.54313E-25
4.27757E-03 2.36258E-25
4.39223E-03 2.19576E-25
4.50840E-03 2.04152E-25
4.62608E-03 1.89882E-25
4.74527E-03 1.76673E-25
4.86597E-03 1.64438E-25
4.98817E-03 1.53099E-25
5.11188E-03 1.42585E-25
5.23711E-03 1.32832E-25
5.36383E-03 1.23779E-25
5.49207E-03 1.15372E-25
5.62181E-03 1.07562E-25
5.75306E-03 1.00304E-25
5.88581E-03 9.35551E-26
6.02007E-03 8.72776E-26
6.15583E-03 8.14363E-26
6.29310E-03 7.59989E-26
6.43187E-03 7.09358E-26
6.57214E-03 6.62196E-26
6.71392E-03 6.18252E-26
6.85720E-03 5.77294E-26
7.00198E-03 5.39108E-26
7.14827E-03 5.03498E-26
7.29605E-03 4.70280E-26
7.44534E-03 4.39287E-26
7.59612E-03 4.10363E-26
7.97965E-03 3.46186E-26
8.37255E-03 2.92095E-26
8.77480E-03 2.46459E-26
9.18641E-03 2.07924E-26
9.60736E-03 1.75363E-26
1.00376E-02 1.47836E-26
1.04773E-02 1.24556E-26
1.09262E-02 1.04866E-26
1.13844E-02 8.82112E-27
1.18520E-02 7.41256E-27
1.23288E-02 6.22162E-27
1.28150E-02 5.21515E-27
1.33104E-02 4.36506E-27
1.38150E-02 3.64760E-27
1.43290E-02 3.04262E-27
1.48521E-02 2.53303E-27
1.53845E-02 2.10433E-27
1.59262E-02 1.74417E-27
1.64770E-02 1.44207E-27
1.70371E-02 1.18912E-27
1.76063E-02 9.77750E-28
1.81848E-02 8.01498E-28
1.87724E-02 6.54885E-28
1.93692E-02 5.33249E-28
1.99751E-02 4.32628E-28
2.05901E-02 3.49658E-28
2.12143E-02 2.81482E-28
2.18476E-02 2.25679E-28
2.24900E-02 1.80198E-28
2.31415E-02 1.43304E-28
2.38021E-02 1.13532E-28
2.44717E-02 8.96459E-29
2.51504E-02 7.06060E-29
2.58382E-02 5.55388E-29
2.65349E-02 4.37125E-29
2.72407E-02 3.45158E-29
2.79555E-02 2.74395E-29
2.86793E-02 2.20609E-29
2.94120E-02 1.80304E-29
3.01537E-02 1.50603E-29
3.09043E-02 1.29148E-29
3.16639E-02 1.14018E-29
3.24324E-02 1.03658E-29
3.32098E-02 9.68212E-30
3.39961E-02 9.25114E-30
3.47912E-02 8.99453E-30
3.55952E-02 8.85129E-30
3.64081E-02 8.77470E-30
3.72297E-02 8.72965E-30
3.80602E-02 8.69045E-30
3.88995E-02 8.63899E-30
3.97476E-02 8.56314E-30
4.06044E-02 8.45552E-30
4.14700E-02 8.31239E-30
4.23443E-02 8.13278E-30
4.32273E-02 7.91779E-30
4.41190E-02 7.66999E-30
4.50194E-02 7.39294E-30
4.59284E-02 7.09084E-30
4.68461E-02 6.76821E-30
4.87074E-02 6.07980E-30
5.06030E-02 5.36315E-30
5.25328E-02 4.64922E-30
5.44967E-02 3.96291E-30
5.64946E-02 3.32259E-30
5.85262E-02 2.74048E-30
6.05914E-02 2.22343E-30
6.26901E-02 1.77386E-30
6.48222E-02 1.39073E-30
6.69873E-02 1.07054E-30
6.91854E-02 8.08054E-31
7.14163E-02 5.97081E-31
7.36799E-02 4.30966E-31
7.59760E-02 3.03039E-31
7.83043E-02 2.06916E-31
8.06647E-02 1.36702E-31
8.30571E-02 8.71224E-32
8.54812E-02 5.35790E-32
8.79369E-02 3.21621E-32
9.04240E-02 1.96259E-32
9.29422E-02 1.33405E-32
9.54915E-02 1.12285E-32
9.80716E-02 1.16940E-32
1.00682E-01 1.35507E-32
1.03323E-01 1.59513E-32
1.05995E-01 1.83220E-32
1.08696E-01 2.03039E-32
1.11427E-01 2.17016E-32
1.14188E-01 2.24394E-32
1.16978E-01 2.25255E-32
1.19797E-01 2.20227E-32
1.22645E-01 2.10257E-32
1.25522E-01 1.96440E-32
1.28428E-01 1.79893E-32
1.31361E-01 1.61669E-32
1.34323E-01 1.42705E-32
1.37313E-01 1.23788E-32
1.40330E-01 1.05547E-32
1.43375E-01 8.84562E-33
1.46447E-01 7.28407E-33
1.49545E-01 5.88989E-33
1.52671E-01 4.67194E-33
1.55823E-01 3.63029E-33
1.59001E-01 2.75818E-33
1.62205E-01 2.04392E-33
1.65435E-01 1.47255E-33
1.68690E-01 1.02721E-33
1.71970E-01 6.90360E-34
1.75276E-01 4.44621E-34
1.78606E-01 2.73485E-34
1.81961E-01 1.61772E-34
1.85340E-01 9.59335E-35
1.88743E-01 6.41988E-35
1.92169E-01 5.66137E-35
1.95619E-01 6.49866E-35
1.99092E-01 8.27777E-35
2.02589E-01 1.04938E-34
2.06107E-01 1.27730E-34
2.09649E-01 1.48539E-34
2.13212E-01 1.65676E-34
2.16797E-01 1.78205E-34
2.20404E-01 1.85769E-34
2.24032E-01 1.88447E-34
2.27680E-01 1.86625E-34
2.31350E-01 1.80886E-34
2.35040E-01 1.71922E-34
2.38751E-01 1.60471E-34
2.42481E-01 1.47257E-34
2.46231E-01 1.32956E-34
2.50000E-01 1.18174E-34
2.53788E-01 1.03426E-34
2.57595E-01 8.91346E-35
2.61421E-01 7.56285E-35
2.65264E-01 6.31471E-35
2.69126E-01 5.18486E-35
2.73005E-01 4.18206E-35
2.76901E-01 3.30903E-35
2.80814E-01 2.56361E-35
2.84744E-01 1.93988E-35
2.88691E-01 1.42912E-35
2.92653E-01 1.02073E-35
2.96632E-01 7.03048E-36
3.00625E-01 4.63938E-36
3.04634E-01 2.91376E-36
3.08658E-01 1.73837E-36
3.12697E-01 1.00592E-36
3.16749E-01 6.19290E-37
3.20816E-01 4.92468E-37
3.24896E-01 5.51289E-37
3.28990E-01 7.33365E-37
3.33097E-01 9.87456E-37
3.37216E-01 1.27293E-36
3.41348E-01 1.55857E-36
3.45492E-01 1.82161E-36
3.49647E-01 2.04646E-36
3.53814E-01 2.22360E-36
3.57992E-01 2.34844E-36
3.62181E-01 2.42026E-36
3.66381E-01 2.44131E-36
3.70590E-01 2.41593E-36
3.74810E-01 2.34987E-36
3.79039E-01 2.24968E-36
3.83277E-01 2.12227E-36
3.87524E-01 1.97446E-36
3.91780E-01 1.81271E-36
3.96044E-01 1.64298E-36
4.00316E-01 1.47053E-36
4.04596E-01 1.29985E-36
4.08882E-01 1.13466E-36
4.13176E-01 9.77910E-37
4.17476E-01 8.31819E-37
4.21783E-01 6.97904E-37
4.26095E-01 5.77112E-37
4.30413E-01 4.69854E-37
4.34737E-01 3.76076E-37
4.39065E-01 2.95423E-37
4.43398E-01 2.27204E-37
4.47736E-01 1.70561E-37
4.52077E-01 1.24476E-37
4.56422E-01 8.78485E-38
4.60770E-01 5.95441E-38
4.65122E-01 3.84451E-38
4.69476E-01 2.34476E-38
4.73832E-01 1.35184E-38
4.78190E-01 7.71157E-39
4.82550E-01 5.15301E-39
4.86912E-01 5.07290E-39
4.91274E-01 6.79792E-39
4.95637E-01 9.75127E-39
5.00000E-01 1.34496E-38
5.04363E-01 1.74951E-38
5.08726E-01 2.15728E-38
5.13088E-01 2.54413E-38
5.17450E-01 2.89209E-38
5.21810E-01 3.18908E-38
5.26168E-01 3.42751E-38
5.30524E-01 3.60412E-38
5.34878E-01 3.71858E-38
5.39230E-01 3.77299E-38
5.43578E-01 3.77173E-38
5.47923E-01 3.71997E-38
5.52264E-01 3.62400E-38
5.56602E-01 3.49068E-38
5.60935E-01 3.32656E-38
5.65263E-01 3.13837E-38
5.69587E-01 2.93267E-38
5.73905E-01 2.71532E-38
5.78217E-01 2.49127E-38
5.82524E-01 2.26556E-38
5.86824E-01 2.04211E-38
5.91118E-01 1.82463E-38
5.95404E-01 1.61579E-38
5.99684E-01 1.41805E-38
6.03956E-01 1.23280E-38
6.08220E-01 1.06138E-38
6.12476E-01 9.04672E-39
6.16723E-01 7.62847E-39
6.20961E-01 6.35915E-39
6.25190E-01 5.23540E-39
6.29410E-01 4.25222E-39
6.33619E-01 3.40216E-39
6.37819E-01 2.67608E-39
6.42008E-01 2.06378E-39
6.46186E-01 1.55511E-39
6.50353E-01 1.14045E-39
6.54508E-01 1.00000E-45
6.58652E-01 1.00000E-45
6.62784E-01 1.00000E-45
6.66903E-01 1.00000E-45
6.71010E-01 1.00000E-45
6.75104E-01 1.00000E-45
6.79184E-01 1.00000E-45
6.83251E-01 1.00000E-45
6.87303E-01 1.00000E-45
6.91342E-01 1.00000E-45
6.95366E-01 1.00000E-45
6.99375E-01 1.00000E-45
7.03368E-01 1.00000E-45
7.07347E-01 1.00000E-45
7.11309E-01 1.00000E-45
7.15256E-01 1.00000E-45
7.19186E-01 1.00000E-45
7.23099E-01 1.00000E-45
7.26995E-01 1.00000E-45
7.30874E-01 1.00000E-45
7.34736E-01 1.00000E-45
7.38579E-01 1.00000E-45
7.42405E-01 1.00000E-45
7.46212E-01 1.00000E-45
7.50000E-01 1.00000E-45
7.53769E-01 1.00000E-45
7.57519E-01 1.00000E-45
7.61249E-01 1.00000E-45
7.64960E-01 1.00000E-45
7.68650E-01 1.00000E-45
7.72320E-01 1.00000E-45
7.75968E-01 1.00000E-45
7.79596E-01 1.00000E-45
7.83203E-01 1.00000E-45
7.86788E-01 1.00000E-45
7.90351E-01 1.00000E-45
7.93893E-01 1.00000E-45
7.97411E-01 1.00000E-45
8.00908E-01 1.00000E-45
8.04381E-01 1.00000E-45
8.07831E-01 1.00000E-45
8.11257E-01 1.00000E-45
8.14660E-01 1.00000E-45
8.18039E-01 1.00000E-45
8.21394E-01 1.00000E-45
8.24724E-01 1.00000E-45
8.28030E-01 1.00000E-45
8.31310E-01 1.00000E-45
8.34565E-01 1.00000E-45
8.37795E-01 1.00000E-45
8.40999E-01 1.00000E-45
8.44177E-01 1.00000E-45
8.47329E-01 1.00000E-45
8.50455E-01 1.00000E-45
8.53553E-01 1.00000E-45
8.56625E-01 1.00000E-45
8.59670E-01 1.00000E-45
8.62687E-01 1.00000E-45
8.65677E-01 1.00000E-45
8.68639E-01 1.00000E-45
8.71572E-01 1.00000E-45
8.74478E-01 1.00000E-45
8.77355E-01 1.00000E-45
8.80203E-01 1.00000E-45
8.83022E-01 1.00000E-45
8.85812E-01 1.00000E-45
8.88573E-01 1.00000E-45
8.91304E-01 1.00000E-45
8.94005E-01 1.00000E-45
8.96677E-01 1.00000E-45
8.99318E-01 1.00000E-45
9.01928E-01 1.00000E-45
9.04508E-01 1.00000E-45
9.07058E-01 1.00000E-45
9.09576E-01 1.00000E-45
9.12063E-01 1.00000E-45
9.14519E-01 1.00000E-45
9.16943E-01 1.00000E-45
9.19335E-01 1.00000E-45
9.21696E-01 1.00000E-45
9.24024E-01 1.00000E-45
9.26320E-01 1.00000E-45
9.28584E-01 1.00000E-45
9.30815E-01 1.00000E-45
9.33013E-01 1.00000E-45
9.35178E-01 1.00000E-45
9.37310E-01 1.00000E-45
9.39409E-01 1.00000E-45
9.41474E-01 1.00000E-45
9.43505E-01 1.00000E-45
9.45503E-01 1.00000E-45
9.47467E-01 1.00000E-45
9.49397E-01 1.00000E-45
9.51293E-01 1.00000E-45
9.53154E-01 1.00000E-45
9.54981E-01 1.00000E-45
9.56773E-01 1.00000E-45
9.58530E-01 1.00000E-45
9.60252E-01 1.00000E-45
9.61940E-01 1.00000E-45
9.63592E-01 1.00000E-45
9.65209E-01 1.00000E-45
9.66790E-01 1.00000E-45
9.68336E-01 1.00000E-45
9.69846E-01 1.00000E-45
9.71321E-01 1.00000E-45
9.72759E-01 1.00000E-45
9.74162E-01 1.00000E-45
9.75528E-01 1.00000E-45
9.76858E-01 1.00000E-45
9.78152E-01 1.00000E-45
9.79410E-01 1.00000E-45
9.80631E-01 1.00000E-45
9.81815E-01 1.00000E-45
9.82963E-01 1.00000E-45
9.84074E-01 1.00000E-45
9.85148E-01 1.00000E-45
9.86185E-01 1.00000E-45
9.87185E-01 1.00000E-45
9.88148E-01 1.00000E-45
9.89074E-01 1.00000E-45
9.89962E-01 1.00000E-45
9.90814E-01 1.00000E-45
9.91627E-01 1.00000E-45
9.92404E-01 1.00000E-45
9.93143E-01 1.00000E-45
9.93844E-01 1.00000E-45
9.94508E-01 1.00000E-45
9.95134E-01 1.00000E-45
9.95722E-01 1.00000E-45
9.96273E-01 1.00000E-45
9.96786E-01 1.00000E-45
9.97261E-01 1.00000E-45
9.97698E-01 1.00000E-45
9.98097E-01 1.00000E-45
9.98459E-01 1.00000E-45
9.98782E-01 1.00000E-45
9.99067E-01 1.00000E-45
9.99315E-01 1.00000E-45
9.99524E-01 1.00000E-45
9.99695E-01 1.00000E-45
9.99829E-01 1.00000E-45
9.99924E-01 1.00000E-45
9.99981E-01 1.00000E-45
1.00000E+00 1.00000E-45
