 #
 # Subroutine ELSEPA. Elastic scattering of electrons and positrons
 #                    by neutral atoms and positive ions
 #
 # Projectile: electron
 # Kinetic energy = 4.50000E+08 eV = 1.65372E+07 a.u.
 #
 # WARNING: High-energy factorization with free-atom DF screening.
 #          Absorption, polarization and exchange corrections are
 #          switched off.
 #          Phase shifts are calculated for the bare nucleus.
 #          Scattering amplitudes are not evaluated.
 #
 # Element: Sn,  Z =  50,  atomic weight = 1.18710E+02 g/mol
 #
 # Nuclear model: Fermi distribution
 #                Average radius = 5.25871E-13 cm
 #                Skin thickness = 5.46000E-14 cm
 #
 # Number of electrons = 50
 #
 # Total elastic cross section = 5.08508E-18 cm**2 = 1.81592E-01 a0**2
 # 1st transport cross section = 2.42504E-26 cm**2 = 8.65998E-10 a0**2
 # 2nd transport cross section = 7.27161E-26 cm**2 = 2.59674E-09 a0**2
 #
 #
 # Differential cross section:                       MU=(1-COS(THETA))/2
 #
 #  THETA        MU          DCS          DCS        Sherman      error
 #  (deg)                 (cm**2/sr)   (a0**2/sr)    function
 #----------------------------------------------------------------------
0.00000E+00 9.05249E-09
7.61557E-13 8.58654E-09
1.18994E-12 8.34157E-09
1.71346E-12 8.05810E-09
2.33225E-12 7.74272E-09
3.04617E-12 7.40408E-09
3.85530E-12 7.04989E-09
4.75964E-12 6.68727E-09
5.75917E-12 6.32253E-09
6.85391E-12 5.95934E-09
8.04379E-12 5.60358E-09
9.32893E-12 5.25912E-09
1.07092E-11 4.92865E-09
1.21847E-11 4.61396E-09
1.37554E-11 4.31583E-09
1.54213E-11 4.03422E-09
1.71823E-11 3.77049E-09
1.90386E-11 3.52434E-09
2.09900E-11 3.29526E-09
2.30367E-11 3.08252E-09
2.51785E-11 2.88473E-09
2.74156E-11 2.70137E-09
2.97478E-11 2.53177E-09
3.21752E-11 2.37496E-09
3.46979E-11 2.22998E-09
3.73157E-11 2.09589E-09
4.00286E-11 1.97138E-09
4.28368E-11 1.85617E-09
4.57402E-11 1.74949E-09
4.87388E-11 1.65060E-09
5.18325E-11 1.55886E-09
5.50215E-11 1.47348E-09
5.83057E-11 1.39393E-09
6.16850E-11 1.31990E-09
6.51595E-11 1.25091E-09
6.87293E-11 1.18654E-09
7.23943E-11 1.12641E-09
7.61544E-11 1.06995E-09
1.18991E-10 6.58986E-10
1.71347E-10 4.27322E-10
2.33223E-10 2.83876E-10
3.04617E-10 1.94243E-10
3.85531E-10 1.36374E-10
4.75965E-10 9.80806E-11
5.75917E-10 7.22180E-11
6.85389E-10 5.43314E-11
8.04380E-10 4.18009E-11
9.32891E-10 3.28117E-11
1.07092E-09 2.62103E-11
1.21847E-09 2.12564E-11
1.37554E-09 1.74591E-11
1.54213E-09 1.44861E-11
1.71823E-09 1.21318E-11
1.90386E-09 1.02416E-11
2.09900E-09 8.70578E-12
2.30367E-09 7.44495E-12
2.51785E-09 6.39696E-12
2.74156E-09 5.52313E-12
2.97478E-09 4.78914E-12
3.21752E-09 4.16973E-12
3.46978E-09 3.64518E-12
3.73156E-09 3.19887E-12
4.00286E-09 2.81658E-12
4.28368E-09 2.48900E-12
4.57402E-09 2.20709E-12
4.87388E-09 1.96350E-12
5.18326E-09 1.75223E-12
5.50215E-09 1.56821E-12
5.83057E-09 1.40747E-12
6.16850E-09 1.26679E-12
6.51596E-09 1.14329E-12
6.87293E-09 1.03455E-12
7.23942E-09 9.38531E-13
7.61544E-09 8.53450E-13
1.18991E-08 3.68844E-13
1.71347E-08 1.85408E-13
2.33223E-08 1.03166E-13
3.04617E-08 6.17948E-14
3.85531E-08 3.91771E-14
4.75965E-08 2.59956E-14
5.75917E-08 1.79086E-14
6.85389E-08 1.27315E-14
8.04380E-08 9.29594E-15
9.32891E-08 6.94490E-15
1.07092E-07 5.29259E-15
1.21847E-07 4.10403E-15
1.37554E-07 3.23141E-15
1.54213E-07 2.57907E-15
1.71823E-07 2.08346E-15
1.90386E-07 1.70147E-15
2.09900E-07 1.40319E-15
2.30367E-07 1.16754E-15
2.51785E-07 9.79354E-16
2.74156E-07 8.27612E-16
2.97478E-07 7.04154E-16
3.21752E-07 6.02881E-16
3.46978E-07 5.19175E-16
3.73156E-07 4.49501E-16
4.00286E-07 3.91129E-16
4.28368E-07 3.41928E-16
4.57402E-07 3.00223E-16
4.87388E-07 2.64683E-16
5.18325E-07 2.34246E-16
5.50215E-07 2.08060E-16
5.83057E-07 1.85430E-16
6.16850E-07 1.65792E-16
6.51596E-07 1.48686E-16
6.87293E-07 1.33728E-16
7.23942E-07 1.20603E-16
7.61543E-07 1.09049E-16
1.18991E-06 4.48464E-17
1.71347E-06 2.16765E-17
2.33223E-06 1.17170E-17
3.04617E-06 6.87488E-18
3.85531E-06 4.29494E-18
4.75964E-06 2.81942E-18
5.75916E-06 1.92654E-18
6.85388E-06 1.36076E-18
8.04378E-06 9.88261E-19
9.32888E-06 7.34949E-19
1.07092E-05 5.57851E-19
1.21846E-05 4.31031E-19
1.37553E-05 3.38293E-19
1.54212E-05 2.69211E-19
1.71822E-05 2.16901E-19
1.90385E-05 1.76655E-19
2.09899E-05 1.45412E-19
2.30365E-05 1.20773E-19
2.51783E-05 1.01125E-19
2.74153E-05 8.53036E-20
2.97475E-05 7.24538E-20
3.21749E-05 6.19349E-20
3.46974E-05 5.32609E-20
3.73152E-05 4.60581E-20
4.00281E-05 4.00361E-20
4.28362E-05 3.49687E-20
4.57395E-05 3.06786E-20
4.87380E-05 2.70260E-20
5.18317E-05 2.39001E-20
5.50205E-05 2.12129E-20
5.83045E-05 1.88928E-20
6.16838E-05 1.68816E-20
6.51582E-05 1.51315E-20
6.87277E-05 1.36030E-20
7.23925E-05 1.22632E-20
7.61524E-05 1.11213E-20
9.21439E-05 7.59973E-21
1.09658E-04 5.36714E-21
1.28695E-04 3.89705E-21
1.49255E-04 2.89671E-21
1.71338E-04 2.19728E-21
1.94942E-04 1.69624E-21
2.20070E-04 1.32979E-21
2.46720E-04 1.05681E-21
2.74892E-04 8.50087E-22
3.04586E-04 6.91263E-22
3.35803E-04 5.67612E-22
3.68542E-04 4.70210E-22
4.02802E-04 3.92653E-22
4.38585E-04 3.30289E-22
4.75889E-04 2.79694E-22
5.14715E-04 2.38305E-22
5.55063E-04 2.04191E-22
5.96931E-04 1.75876E-22
6.40321E-04 1.52221E-22
6.85233E-04 1.32339E-22
7.31665E-04 1.15535E-22
7.79618E-04 1.01258E-22
8.29092E-04 8.90675E-23
8.80086E-04 7.86117E-23
9.32601E-04 6.96046E-23
9.86636E-04 6.18140E-23
1.04219E-03 5.50500E-23
1.09927E-03 4.91559E-23
1.15786E-03 4.40026E-23
1.21797E-03 3.94824E-23
1.27961E-03 3.55054E-23
1.34276E-03 3.19963E-23
1.40743E-03 2.88915E-23
1.47362E-03 2.61373E-23
1.54133E-03 2.36880E-23
1.61056E-03 2.15047E-23
1.68131E-03 1.95543E-23
1.75357E-03 1.78081E-23
1.82735E-03 1.62415E-23
1.90265E-03 1.48334E-23
1.97947E-03 1.35653E-23
2.05780E-03 1.24213E-23
2.13765E-03 1.13875E-23
2.21902E-03 1.04518E-23
2.30190E-03 9.60345E-24
2.38630E-03 8.83322E-24
2.47222E-03 8.13291E-24
2.55965E-03 7.49528E-24
2.64859E-03 6.91396E-24
2.73905E-03 6.38330E-24
2.83103E-03 5.89830E-24
2.92452E-03 5.45451E-24
3.01952E-03 5.04797E-24
3.11604E-03 4.67515E-24
3.21407E-03 4.33290E-24
3.31362E-03 4.01839E-24
3.41468E-03 3.72911E-24
3.51725E-03 3.46277E-24
3.62133E-03 3.21735E-24
3.72692E-03 2.99100E-24
3.83403E-03 2.78207E-24
3.94265E-03 2.58907E-24
4.05278E-03 2.41064E-24
4.16442E-03 2.24556E-24
4.27757E-03 2.09273E-24
4.39223E-03 1.95114E-24
4.50840E-03 1.81988E-24
4.62608E-03 1.69811E-24
4.74527E-03 1.58508E-24
4.86597E-03 1.48010E-24
4.98817E-03 1.38255E-24
5.11188E-03 1.29184E-24
5.23711E-03 1.20745E-24
5.36383E-03 1.12891E-24
5.49207E-03 1.05577E-24
5.62181E-03 9.87633E-25
5.75306E-03 9.24123E-25
5.88581E-03 8.64901E-25
6.02007E-03 8.09655E-25
6.15583E-03 7.58099E-25
6.29310E-03 7.09966E-25
6.43187E-03 6.65014E-25
6.57214E-03 6.23018E-25
6.71392E-03 5.83769E-25
6.85720E-03 5.47076E-25
7.00198E-03 5.12763E-25
7.14827E-03 4.80665E-25
7.29605E-03 4.50631E-25
7.44534E-03 4.22521E-25
7.59612E-03 3.96205E-25
7.97965E-03 3.37493E-25
8.37255E-03 2.87605E-25
8.77480E-03 2.45165E-25
9.18641E-03 2.09022E-25
9.60736E-03 1.78216E-25
1.00376E-02 1.51939E-25
1.04773E-02 1.29512E-25
1.09262E-02 1.10364E-25
1.13844E-02 9.40094E-26
1.18520E-02 8.00394E-26
1.23288E-02 6.81060E-26
1.28150E-02 5.79132E-26
1.33104E-02 4.92092E-26
1.38150E-02 4.17792E-26
1.43290E-02 3.54397E-26
1.48521E-02 3.00341E-26
1.53845E-02 2.54279E-26
1.59262E-02 2.15063E-26
1.64770E-02 1.81708E-26
1.70371E-02 1.53368E-26
1.76063E-02 1.29317E-26
1.81848E-02 1.08934E-26
1.87724E-02 9.16836E-27
1.93692E-02 7.71066E-27
1.99751E-02 6.48091E-27
2.05901E-02 5.44529E-27
2.12143E-02 4.57477E-27
2.18476E-02 3.84445E-27
2.24900E-02 3.23300E-27
2.31415E-02 2.72214E-27
2.38021E-02 2.29623E-27
2.44717E-02 1.94192E-27
2.51504E-02 1.64779E-27
2.58382E-02 1.40412E-27
2.65349E-02 1.20263E-27
2.72407E-02 1.03631E-27
2.79555E-02 8.99198E-28
2.86793E-02 7.86257E-28
2.94120E-02 6.93241E-28
3.01537E-02 6.16581E-28
3.09043E-02 5.53282E-28
3.16639E-02 5.00844E-28
3.24324E-02 4.57189E-28
3.32098E-02 4.20594E-28
3.39961E-02 3.89640E-28
3.47912E-02 3.63164E-28
3.55952E-02 3.40218E-28
3.64081E-02 3.20039E-28
3.72297E-02 3.02012E-28
3.80602E-02 2.85652E-28
3.88995E-02 2.70577E-28
3.97476E-02 2.56492E-28
4.06044E-02 2.43172E-28
4.14700E-02 2.30451E-28
4.23443E-02 2.18208E-28
4.32273E-02 2.06360E-28
4.41190E-02 1.94851E-28
4.50194E-02 1.83649E-28
4.59284E-02 1.72738E-28
4.68461E-02 1.62115E-28
4.87074E-02 1.41760E-28
5.06030E-02 1.22680E-28
5.25328E-02 1.05001E-28
5.44967E-02 8.88355E-29
5.64946E-02 7.42591E-29
5.85262E-02 6.13047E-29
6.05914E-02 4.99598E-29
6.26901E-02 4.01713E-29
6.48222E-02 3.18529E-29
6.69873E-02 2.48930E-29
6.91854E-02 1.91631E-29
7.14163E-02 1.45256E-29
7.36799E-02 1.08400E-29
7.59760E-02 7.96855E-30
7.83043E-02 5.78043E-30
8.06647E-02 4.15465E-30
8.30571E-02 2.98206E-30
8.54812E-02 2.16639E-30
8.79369E-02 1.62460E-30
9.04240E-02 1.28656E-30
9.29422E-02 1.09442E-30
9.54915E-02 1.00154E-30
9.80716E-02 9.71362E-31
1.00682E-01 9.76099E-31
1.03323E-01 9.95435E-31
1.05995E-01 1.01526E-30
1.08696E-01 1.02649E-30
1.11427E-01 1.02400E-30
1.14188E-01 1.00563E-30
1.16978E-01 9.71427E-31
1.19797E-01 9.22902E-31
1.22645E-01 8.62501E-31
1.25522E-01 7.93144E-31
1.28428E-01 7.17894E-31
1.31361E-01 6.39702E-31
1.34323E-01 5.61244E-31
1.37313E-01 4.84809E-31
1.40330E-01 4.12253E-31
1.43375E-01 3.44979E-31
1.46447E-01 2.83956E-31
1.49545E-01 2.29756E-31
1.52671E-01 1.82605E-31
1.55823E-01 1.42438E-31
1.59001E-01 1.08959E-31
1.62205E-01 8.16996E-32
1.65435E-01 6.00695E-32
1.68690E-01 4.34077E-32
1.71970E-01 3.10213E-32
1.75276E-01 2.22193E-32
1.78606E-01 1.63391E-32
1.81961E-01 1.27656E-32
1.85340E-01 1.09450E-32
1.88743E-01 1.03926E-32
1.92169E-01 1.06958E-32
1.95619E-01 1.15142E-32
1.99092E-01 1.25765E-32
2.02589E-01 1.36745E-32
2.06107E-01 1.46574E-32
2.09649E-01 1.54236E-32
2.13212E-01 1.59129E-32
2.16797E-01 1.60994E-32
2.20404E-01 1.59832E-32
2.24032E-01 1.55845E-32
2.27680E-01 1.49370E-32
2.31350E-01 1.40833E-32
2.35040E-01 1.30700E-32
2.38751E-01 1.19445E-32
2.42481E-01 1.07524E-32
2.46231E-01 9.53554E-33
2.50000E-01 8.33038E-33
2.53788E-01 7.16764E-33
2.57595E-01 6.07178E-33
2.61421E-01 5.06107E-33
2.65264E-01 4.14797E-33
2.69126E-01 3.33963E-33
2.73005E-01 2.63856E-33
2.76901E-01 2.04339E-33
2.80814E-01 1.54955E-33
2.84744E-01 1.15010E-33
2.88691E-01 8.36375E-34
2.92653E-01 5.98613E-34
2.96632E-01 4.26526E-34
3.00625E-01 3.09754E-34
3.04634E-01 2.38246E-34
3.08658E-01 2.02548E-34
3.12697E-01 1.94023E-34
3.16749E-01 2.04988E-34
3.20816E-01 2.28790E-34
3.24896E-01 2.59838E-34
3.28990E-01 2.93574E-34
3.33097E-01 3.26428E-34
3.37216E-01 3.55735E-34
3.41348E-01 3.79640E-34
3.45492E-01 3.96995E-34
3.49647E-01 4.07245E-34
3.53814E-01 4.10321E-34
3.57992E-01 4.06535E-34
3.62181E-01 3.96486E-34
3.66381E-01 3.80969E-34
3.70590E-01 3.60900E-34
3.74810E-01 3.37252E-34
3.79039E-01 3.11003E-34
3.83277E-01 2.83089E-34
3.87524E-01 2.54379E-34
3.91780E-01 2.25647E-34
3.96044E-01 1.97559E-34
4.00316E-01 1.70669E-34
4.04596E-01 1.45413E-34
4.08882E-01 1.22118E-34
4.13176E-01 1.01003E-34
4.17476E-01 8.21961E-35
4.21783E-01 6.57385E-35
4.26095E-01 5.16020E-35
4.30413E-01 3.97000E-35
4.34737E-01 2.98996E-35
4.39065E-01 2.20342E-35
4.43398E-01 1.59138E-35
4.47736E-01 1.13348E-35
4.52077E-01 8.08841E-36
4.56422E-01 5.96789E-36
4.60770E-01 4.77405E-36
4.65122E-01 4.31982E-36
4.69476E-01 4.43356E-36
4.73832E-01 4.96126E-36
4.78190E-01 5.76777E-36
4.82550E-01 6.73731E-36
4.86912E-01 7.77327E-36
4.91274E-01 8.79735E-36
4.95637E-01 9.74849E-36
5.00000E-01 1.05813E-35
5.04363E-01 1.12646E-35
5.08726E-01 1.17792E-35
5.13088E-01 1.21165E-35
5.17450E-01 1.22766E-35
5.21810E-01 1.22663E-35
5.26168E-01 1.20979E-35
5.30524E-01 1.17876E-35
5.34878E-01 1.13542E-35
5.39230E-01 1.08176E-35
5.43578E-01 1.01988E-35
5.47923E-01 9.51806E-36
5.52264E-01 8.79493E-36
5.56602E-01 8.04759E-36
5.60935E-01 7.29245E-36
5.65263E-01 6.54403E-36
5.69587E-01 5.81478E-36
5.73905E-01 5.11502E-36
5.78217E-01 4.45307E-36
5.82524E-01 3.83522E-36
5.86824E-01 3.26596E-36
5.91118E-01 2.74811E-36
5.95404E-01 2.28297E-36
5.99684E-01 1.87058E-36
6.03956E-01 1.50986E-36
6.08220E-01 1.19885E-36
6.12476E-01 9.34867E-37
6.16723E-01 7.14681E-37
6.20961E-01 5.34692E-37
6.25190E-01 3.91054E-37
6.29410E-01 2.79812E-37
6.33619E-01 1.97004E-37
6.37819E-01 1.38750E-37
6.42008E-01 1.01326E-37
6.46186E-01 8.12237E-38
6.50353E-01 7.51843E-38
6.54508E-01 8.02343E-38
6.58652E-01 9.37002E-38
6.62784E-01 1.13215E-37
6.66903E-01 1.36717E-37
6.71010E-01 1.62441E-37
6.75104E-01 1.88912E-37
6.79184E-01 2.14910E-37
6.83251E-01 2.39472E-37
6.87303E-01 2.61852E-37
6.91342E-01 2.81503E-37
6.95366E-01 2.98056E-37
6.99375E-01 3.11296E-37
7.03368E-01 3.21131E-37
7.07347E-01 3.27584E-37
7.11309E-01 3.30761E-37
7.15256E-01 3.30840E-37
7.19186E-01 3.28050E-37
7.23099E-01 3.22657E-37
7.26995E-01 3.14955E-37
7.30874E-01 3.05248E-37
7.34736E-01 2.93847E-37
7.38579E-01 2.81059E-37
7.42405E-01 2.67175E-37
7.46212E-01 2.52478E-37
7.50000E-01 2.37224E-37
7.53769E-01 2.21655E-37
7.57519E-01 2.05984E-37
7.61249E-01 1.90401E-37
7.64960E-01 1.75069E-37
7.68650E-01 1.60132E-37
7.72320E-01 1.45703E-37
7.75968E-01 1.31881E-37
7.79596E-01 1.18739E-37
7.83203E-01 1.06333E-37
7.86788E-01 9.47015E-38
7.90351E-01 8.38670E-38
7.93893E-01 7.38405E-38
7.97411E-01 6.46193E-38
8.00908E-01 5.61923E-38
8.04381E-01 4.85385E-38
8.07831E-01 4.16314E-38
8.11257E-01 3.54383E-38
8.14660E-01 2.99227E-38
8.18039E-01 2.50443E-38
8.21394E-01 2.07612E-38
8.24724E-01 1.70299E-38
8.28030E-01 1.38072E-38
8.31310E-01 1.10492E-38
8.34565E-01 8.71338E-39
8.37795E-01 6.75836E-39
8.40999E-01 5.14449E-39
8.44177E-01 1.00000E-45
8.47329E-01 1.00000E-45
8.50455E-01 1.00000E-45
8.53553E-01 1.00000E-45
8.56625E-01 1.00000E-45
8.59670E-01 1.00000E-45
8.62687E-01 1.00000E-45
8.65677E-01 1.00000E-45
8.68639E-01 1.00000E-45
8.71572E-01 1.00000E-45
8.74478E-01 1.00000E-45
8.77355E-01 1.00000E-45
8.80203E-01 1.00000E-45
8.83022E-01 1.00000E-45
8.85812E-01 1.00000E-45
8.88573E-01 1.00000E-45
8.91304E-01 1.00000E-45
8.94005E-01 1.00000E-45
8.96677E-01 1.00000E-45
8.99318E-01 1.00000E-45
9.01928E-01 1.00000E-45
9.04508E-01 1.00000E-45
9.07058E-01 1.00000E-45
9.09576E-01 1.00000E-45
9.12063E-01 1.00000E-45
9.14519E-01 1.00000E-45
9.16943E-01 1.00000E-45
9.19335E-01 1.00000E-45
9.21696E-01 1.00000E-45
9.24024E-01 1.00000E-45
9.26320E-01 1.00000E-45
9.28584E-01 1.00000E-45
9.30815E-01 1.00000E-45
9.33013E-01 1.00000E-45
9.35178E-01 1.00000E-45
9.37310E-01 1.00000E-45
9.39409E-01 1.00000E-45
9.41474E-01 1.00000E-45
9.43505E-01 1.00000E-45
9.45503E-01 1.00000E-45
9.47467E-01 1.00000E-45
9.49397E-01 1.00000E-45
9.51293E-01 1.00000E-45
9.53154E-01 1.00000E-45
9.54981E-01 1.00000E-45
9.56773E-01 1.00000E-45
9.58530E-01 1.00000E-45
9.60252E-01 1.00000E-45
9.61940E-01 1.00000E-45
9.63592E-01 1.00000E-45
9.65209E-01 1.00000E-45
9.66790E-01 1.00000E-45
9.68336E-01 1.00000E-45
9.69846E-01 1.00000E-45
9.71321E-01 1.00000E-45
9.72759E-01 1.00000E-45
9.74162E-01 1.00000E-45
9.75528E-01 1.00000E-45
9.76858E-01 1.00000E-45
9.78152E-01 1.00000E-45
9.79410E-01 1.00000E-45
9.80631E-01 1.00000E-45
9.81815E-01 1.00000E-45
9.82963E-01 1.00000E-45
9.84074E-01 1.00000E-45
9.85148E-01 1.00000E-45
9.86185E-01 1.00000E-45
9.87185E-01 1.00000E-45
9.88148E-01 1.00000E-45
9.89074E-01 1.00000E-45
9.89962E-01 1.00000E-45
9.90814E-01 1.00000E-45
9.91627E-01 1.00000E-45
9.92404E-01 1.00000E-45
9.93143E-01 1.00000E-45
9.93844E-01 1.00000E-45
9.94508E-01 1.00000E-45
9.95134E-01 1.00000E-45
9.95722E-01 1.00000E-45
9.96273E-01 1.00000E-45
9.96786E-01 1.00000E-45
9.97261E-01 1.00000E-45
9.97698E-01 1.00000E-45
9.98097E-01 1.00000E-45
9.98459E-01 1.00000E-45
9.98782E-01 1.00000E-45
9.99067E-01 1.00000E-45
9.99315E-01 1.00000E-45
9.99524E-01 1.00000E-45
9.99695E-01 1.00000E-45
9.99829E-01 1.00000E-45
9.99924E-01 1.00000E-45
9.99981E-01 1.00000E-45
1.00000E+00 1.00000E-45
