 #
 # Subroutine ELSEPA. Elastic scattering of electrons and positrons
 #                    by neutral atoms and positive ions
 #
 # Projectile: electron
 # Kinetic energy = 6.00000E+06 eV = 2.20496E+05 a.u.
 #
 # WARNING: High-energy factorization with free-atom DF screening.
 #          Absorption, polarization and exchange corrections are
 #          switched off.
 #          Phase shifts are calculated for the bare nucleus.
 #          Scattering amplitudes are not evaluated.
 #
 # Element: Sn,  Z =  50,  atomic weight = 1.18710E+02 g/mol
 #
 # Nuclear model: Fermi distribution
 #                Average radius = 5.25871E-13 cm
 #                Skin thickness = 5.46000E-14 cm
 #
 # Number of electrons = 50
 #
 # Total elastic cross section = 5.12279E-18 cm**2 = 1.82938E-01 a0**2
 # 1st transport cross section = 9.72987E-23 cm**2 = 3.47460E-06 a0**2
 # 2nd transport cross section = 2.72019E-22 cm**2 = 9.71396E-06 a0**2
 #
 #
 # Differential cross section:                       MU=(1-COS(THETA))/2
 #
 #  THETA        MU          DCS          DCS        Sherman      error
 #  (deg)                 (cm**2/sr)   (a0**2/sr)    function
 #----------------------------------------------------------------------
0.00000E+00 1.89083E-12
7.61557E-13 1.89081E-12
1.18994E-12 1.89080E-12
1.71346E-12 1.89078E-12
2.33225E-12 1.89077E-12
3.04617E-12 1.89075E-12
3.85530E-12 1.89072E-12
4.75964E-12 1.89070E-12
5.75917E-12 1.89067E-12
6.85391E-12 1.89064E-12
8.04379E-12 1.89061E-12
9.32893E-12 1.89057E-12
1.07092E-11 1.89053E-12
1.21847E-11 1.89049E-12
1.37554E-11 1.89045E-12
1.54213E-11 1.89040E-12
1.71823E-11 1.89035E-12
1.90386E-11 1.89030E-12
2.09900E-11 1.89025E-12
2.30367E-11 1.89019E-12
2.51785E-11 1.89013E-12
2.74156E-11 1.89007E-12
2.97478E-11 1.89001E-12
3.21752E-11 1.88994E-12
3.46979E-11 1.88987E-12
3.73157E-11 1.88980E-12
4.00286E-11 1.88972E-12
4.28368E-11 1.88964E-12
4.57402E-11 1.88956E-12
4.87388E-11 1.88948E-12
5.18325E-11 1.88939E-12
5.50215E-11 1.88931E-12
5.83057E-11 1.88922E-12
6.16850E-11 1.88912E-12
6.51595E-11 1.88903E-12
6.87293E-11 1.88893E-12
7.23943E-11 1.88883E-12
7.61544E-11 1.88872E-12
1.18991E-10 1.88754E-12
1.71347E-10 1.88609E-12
2.33223E-10 1.88439E-12
3.04617E-10 1.88242E-12
3.85531E-10 1.88020E-12
4.75965E-10 1.87772E-12
5.75917E-10 1.87499E-12
6.85389E-10 1.87200E-12
8.04380E-10 1.86876E-12
9.32891E-10 1.86528E-12
1.07092E-09 1.86155E-12
1.21847E-09 1.85757E-12
1.37554E-09 1.85336E-12
1.54213E-09 1.84890E-12
1.71823E-09 1.84422E-12
1.90386E-09 1.83929E-12
2.09900E-09 1.83415E-12
2.30367E-09 1.82877E-12
2.51785E-09 1.82317E-12
2.74156E-09 1.81736E-12
2.97478E-09 1.81133E-12
3.21752E-09 1.80509E-12
3.46978E-09 1.79864E-12
3.73156E-09 1.79199E-12
4.00286E-09 1.78514E-12
4.28368E-09 1.77810E-12
4.57402E-09 1.77087E-12
4.87388E-09 1.76345E-12
5.18326E-09 1.75585E-12
5.50215E-09 1.74806E-12
5.83057E-09 1.74005E-12
6.16850E-09 1.73188E-12
6.51596E-09 1.72357E-12
6.87293E-09 1.71512E-12
7.23942E-09 1.70654E-12
7.61544E-09 1.69783E-12
1.18991E-08 1.60342E-12
1.71347E-08 1.49942E-12
2.33223E-08 1.39039E-12
3.04617E-08 1.28051E-12
3.85531E-08 1.17301E-12
4.75965E-08 1.07025E-12
5.75917E-08 9.73754E-13
6.85389E-08 8.84169E-13
8.04380E-08 8.02218E-13
9.32891E-08 7.27871E-13
1.07092E-07 6.60830E-13
1.21847E-07 6.00633E-13
1.37554E-07 5.46631E-13
1.54213E-07 4.98299E-13
1.71823E-07 4.55117E-13
1.90386E-07 4.16520E-13
2.09900E-07 3.81986E-13
2.30367E-07 3.51029E-13
2.51785E-07 3.23168E-13
2.74156E-07 2.98107E-13
2.97478E-07 2.75511E-13
3.21752E-07 2.55087E-13
3.46978E-07 2.36580E-13
3.73156E-07 2.19734E-13
4.00286E-07 2.04377E-13
4.28368E-07 1.90361E-13
4.57402E-07 1.77538E-13
4.87388E-07 1.65780E-13
5.18325E-07 1.54970E-13
5.50215E-07 1.44829E-13
5.83057E-07 1.34882E-13
6.16850E-07 1.25941E-13
6.51596E-07 1.17882E-13
6.87293E-07 1.10600E-13
7.23942E-07 1.04005E-13
7.61543E-07 9.80167E-14
1.18991E-06 5.50581E-14
1.71347E-06 3.23549E-14
2.33223E-06 1.99514E-14
3.04617E-06 1.29529E-14
3.85531E-06 8.81653E-15
4.75964E-06 6.25320E-15
5.75916E-06 4.58886E-15
6.85388E-06 3.45734E-15
8.04378E-06 2.66160E-15
9.32888E-06 2.08434E-15
1.07092E-05 1.65501E-15
1.21846E-05 1.32933E-15
1.37553E-05 1.07812E-15
1.54212E-05 8.81451E-16
1.71822E-05 7.26779E-16
1.90385E-05 6.03853E-16
2.09899E-05 5.05765E-16
2.30365E-05 4.26488E-16
2.51783E-05 3.61842E-16
2.74153E-05 3.08858E-16
2.97475E-05 2.65171E-16
3.21749E-05 2.28949E-16
3.46974E-05 1.98752E-16
3.73152E-05 1.73423E-16
4.00281E-05 1.52053E-16
4.28362E-05 1.33916E-16
4.57395E-05 1.18428E-16
4.87380E-05 1.05132E-16
5.18317E-05 9.36607E-17
5.50205E-05 8.37118E-17
5.83045E-05 7.50397E-17
6.16838E-05 6.74966E-17
6.51582E-05 6.09102E-17
6.87277E-05 5.50801E-17
7.23925E-05 4.99408E-17
7.61524E-05 4.54066E-17
9.21439E-05 3.16749E-17
1.09658E-04 2.27519E-17
1.28695E-04 1.67574E-17
1.49255E-04 1.26080E-17
1.71338E-04 9.66386E-18
1.94942E-04 7.52855E-18
2.20070E-04 5.94963E-18
2.46720E-04 4.76292E-18
2.74892E-04 3.85750E-18
3.04586E-04 3.15736E-18
3.35803E-04 2.60908E-18
3.68542E-04 2.17491E-18
4.02802E-04 1.82743E-18
4.38585E-04 1.54678E-18
4.75889E-04 1.31811E-18
5.14715E-04 1.13028E-18
5.55063E-04 9.74827E-19
5.96931E-04 8.45265E-19
6.40321E-04 7.36588E-19
6.85233E-04 6.44883E-19
7.31665E-04 5.67058E-19
7.79618E-04 5.00666E-19
8.29092E-04 4.43741E-19
8.80086E-04 3.94703E-19
9.32601E-04 3.52277E-19
9.86636E-04 3.15421E-19
1.04219E-03 2.83277E-19
1.09927E-03 2.55138E-19
1.15786E-03 2.30418E-19
1.21797E-03 2.08630E-19
1.27961E-03 1.89366E-19
1.34276E-03 1.72282E-19
1.40743E-03 1.57089E-19
1.47362E-03 1.43539E-19
1.54133E-03 1.31424E-19
1.61056E-03 1.20564E-19
1.68131E-03 1.10808E-19
1.75357E-03 1.02022E-19
1.82735E-03 9.40928E-20
1.90265E-03 8.69215E-20
1.97947E-03 8.04231E-20
2.05780E-03 7.45231E-20
2.13765E-03 6.91563E-20
2.21902E-03 6.42659E-20
2.30190E-03 5.98019E-20
2.38630E-03 5.57202E-20
2.47222E-03 5.19822E-20
2.55965E-03 4.85539E-20
2.64859E-03 4.54048E-20
2.73905E-03 4.25079E-20
2.83103E-03 3.98394E-20
2.92452E-03 3.73779E-20
3.01952E-03 3.51045E-20
3.11604E-03 3.30022E-20
3.21407E-03 3.10556E-20
3.31362E-03 2.92512E-20
3.41468E-03 2.75765E-20
3.51725E-03 2.60206E-20
3.62133E-03 2.45734E-20
3.72692E-03 2.32261E-20
3.83403E-03 2.19703E-20
3.94265E-03 2.07986E-20
4.05278E-03 1.97045E-20
4.16442E-03 1.86818E-20
4.27757E-03 1.77249E-20
4.39223E-03 1.68290E-20
4.50840E-03 1.59892E-20
4.62608E-03 1.52015E-20
4.74527E-03 1.44620E-20
4.86597E-03 1.37672E-20
4.98817E-03 1.31139E-20
5.11188E-03 1.24992E-20
5.23711E-03 1.19203E-20
5.36383E-03 1.13747E-20
5.49207E-03 1.08602E-20
5.62181E-03 1.03747E-20
5.75306E-03 9.91619E-21
5.88581E-03 9.48291E-21
6.02007E-03 9.07324E-21
6.15583E-03 8.68559E-21
6.29310E-03 8.31861E-21
6.43187E-03 7.97091E-21
6.57214E-03 7.64138E-21
6.71392E-03 7.32879E-21
6.85720E-03 7.03218E-21
7.00198E-03 6.75052E-21
7.14827E-03 6.48296E-21
7.29605E-03 6.22861E-21
7.44534E-03 5.98674E-21
7.59612E-03 5.75657E-21
7.97965E-03 5.22815E-21
8.37255E-03 4.75949E-21
8.77480E-03 4.34262E-21
9.18641E-03 3.97079E-21
9.60736E-03 3.63827E-21
1.00376E-02 3.34016E-21
1.04773E-02 3.07225E-21
1.09262E-02 2.83093E-21
1.13844E-02 2.61308E-21
1.18520E-02 2.41599E-21
1.23288E-02 2.23733E-21
1.28150E-02 2.07505E-21
1.33104E-02 1.92738E-21
1.38150E-02 1.79277E-21
1.43290E-02 1.66983E-21
1.48521E-02 1.55737E-21
1.53845E-02 1.45433E-21
1.59262E-02 1.35978E-21
1.64770E-02 1.27287E-21
1.70371E-02 1.19289E-21
1.76063E-02 1.11916E-21
1.81848E-02 1.05112E-21
1.87724E-02 9.88236E-22
1.93692E-02 9.30046E-22
1.99751E-02 8.76132E-22
2.05901E-02 8.26121E-22
2.12143E-02 7.79676E-22
2.18476E-02 7.36495E-22
2.24900E-02 6.96303E-22
2.31415E-02 6.58854E-22
2.38021E-02 6.23924E-22
2.44717E-02 5.91312E-22
2.51504E-02 5.60834E-22
2.58382E-02 5.32323E-22
2.65349E-02 5.05627E-22
2.72407E-02 4.80609E-22
2.79555E-02 4.57142E-22
2.86793E-02 4.35112E-22
2.94120E-02 4.14413E-22
3.01537E-02 3.94950E-22
3.09043E-02 3.76634E-22
3.16639E-02 3.59383E-22
3.24324E-02 3.43125E-22
3.32098E-02 3.27790E-22
3.39961E-02 3.13316E-22
3.47912E-02 2.99644E-22
3.55952E-02 2.86723E-22
3.64081E-02 2.74501E-22
3.72297E-02 2.62935E-22
3.80602E-02 2.51981E-22
3.88995E-02 2.41601E-22
3.97476E-02 2.31759E-22
4.06044E-02 2.22421E-22
4.14700E-02 2.13557E-22
4.23443E-02 2.05137E-22
4.32273E-02 1.97135E-22
4.41190E-02 1.89526E-22
4.50194E-02 1.82286E-22
4.59284E-02 1.75395E-22
4.68461E-02 1.68832E-22
4.87074E-02 1.56616E-22
5.06030E-02 1.45503E-22
5.25328E-02 1.35374E-22
5.44967E-02 1.26126E-22
5.64946E-02 1.17666E-22
5.85262E-02 1.09916E-22
6.05914E-02 1.02803E-22
6.26901E-02 9.62663E-23
6.48222E-02 9.02489E-23
6.69873E-02 8.47018E-23
6.91854E-02 7.95811E-23
7.14163E-02 7.48476E-23
7.36799E-02 7.04665E-23
7.59760E-02 6.64063E-23
7.83043E-02 6.26388E-23
8.06647E-02 5.91387E-23
8.30571E-02 5.58833E-23
8.54812E-02 5.28521E-23
8.79369E-02 5.00267E-23
9.04240E-02 4.73904E-23
9.29422E-02 4.49279E-23
9.54915E-02 4.26255E-23
9.80716E-02 4.04706E-23
1.00682E-01 3.84520E-23
1.03323E-01 3.65593E-23
1.05995E-01 3.47832E-23
1.08696E-01 3.31149E-23
1.11427E-01 3.15466E-23
1.14188E-01 3.00711E-23
1.16978E-01 2.86818E-23
1.19797E-01 2.73728E-23
1.22645E-01 2.61383E-23
1.25522E-01 2.49734E-23
1.28428E-01 2.38731E-23
1.31361E-01 2.28334E-23
1.34323E-01 2.18501E-23
1.37313E-01 2.09196E-23
1.40330E-01 2.00385E-23
1.43375E-01 1.92036E-23
1.46447E-01 1.84120E-23
1.49545E-01 1.76610E-23
1.52671E-01 1.69481E-23
1.55823E-01 1.62710E-23
1.59001E-01 1.56276E-23
1.62205E-01 1.50157E-23
1.65435E-01 1.44335E-23
1.68690E-01 1.38793E-23
1.71970E-01 1.33515E-23
1.75276E-01 1.28486E-23
1.78606E-01 1.23692E-23
1.81961E-01 1.19118E-23
1.85340E-01 1.14754E-23
1.88743E-01 1.10587E-23
1.92169E-01 1.06608E-23
1.95619E-01 1.02805E-23
1.99092E-01 9.91693E-24
2.02589E-01 9.56920E-24
2.06107E-01 9.23647E-24
2.09649E-01 8.91799E-24
2.13212E-01 8.61302E-24
2.16797E-01 8.32087E-24
2.20404E-01 8.04087E-24
2.24032E-01 7.77241E-24
2.27680E-01 7.51492E-24
2.31350E-01 7.26790E-24
2.35040E-01 7.03082E-24
2.38751E-01 6.80320E-24
2.42481E-01 6.58453E-24
2.46231E-01 6.37442E-24
2.50000E-01 6.17252E-24
2.53788E-01 5.97842E-24
2.57595E-01 5.79172E-24
2.61421E-01 5.61208E-24
2.65264E-01 5.43921E-24
2.69126E-01 5.27281E-24
2.73005E-01 5.11258E-24
2.76901E-01 4.95823E-24
2.80814E-01 4.80950E-24
2.84744E-01 4.66615E-24
2.88691E-01 4.52795E-24
2.92653E-01 4.39469E-24
2.96632E-01 4.26615E-24
3.00625E-01 4.14211E-24
3.04634E-01 4.02240E-24
3.08658E-01 3.90683E-24
3.12697E-01 3.79524E-24
3.16749E-01 3.68746E-24
3.20816E-01 3.58333E-24
3.24896E-01 3.48270E-24
3.28990E-01 3.38543E-24
3.33097E-01 3.29139E-24
3.37216E-01 3.20046E-24
3.41348E-01 3.11250E-24
3.45492E-01 3.02740E-24
3.49647E-01 2.94505E-24
3.53814E-01 2.86534E-24
3.57992E-01 2.78817E-24
3.62181E-01 2.71345E-24
3.66381E-01 2.64108E-24
3.70590E-01 2.57097E-24
3.74810E-01 2.50303E-24
3.79039E-01 2.43720E-24
3.83277E-01 2.37339E-24
3.87524E-01 2.31152E-24
3.91780E-01 2.25153E-24
3.96044E-01 2.19334E-24
4.00316E-01 2.13690E-24
4.04596E-01 2.08214E-24
4.08882E-01 2.02900E-24
4.13176E-01 1.97742E-24
4.17476E-01 1.92735E-24
4.21783E-01 1.87873E-24
4.26095E-01 1.83152E-24
4.30413E-01 1.78567E-24
4.34737E-01 1.74113E-24
4.39065E-01 1.69786E-24
4.43398E-01 1.65580E-24
4.47736E-01 1.61493E-24
4.52077E-01 1.57520E-24
4.56422E-01 1.53658E-24
4.60770E-01 1.49903E-24
4.65122E-01 1.46250E-24
4.69476E-01 1.42698E-24
4.73832E-01 1.39242E-24
4.78190E-01 1.35880E-24
4.82550E-01 1.32609E-24
4.86912E-01 1.29425E-24
4.91274E-01 1.26326E-24
4.95637E-01 1.23309E-24
5.00000E-01 1.20371E-24
5.04363E-01 1.17511E-24
5.08726E-01 1.14726E-24
5.13088E-01 1.12013E-24
5.17450E-01 1.09371E-24
5.21810E-01 1.06796E-24
5.26168E-01 1.04288E-24
5.30524E-01 1.01843E-24
5.34878E-01 9.94608E-25
5.39230E-01 9.71386E-25
5.43578E-01 9.48749E-25
5.47923E-01 9.26679E-25
5.52264E-01 9.05159E-25
5.56602E-01 8.84174E-25
5.60935E-01 8.63708E-25
5.65263E-01 8.43745E-25
5.69587E-01 8.24272E-25
5.73905E-01 8.05274E-25
5.78217E-01 7.86737E-25
5.82524E-01 7.68649E-25
5.86824E-01 7.50997E-25
5.91118E-01 7.33768E-25
5.95404E-01 7.16952E-25
5.99684E-01 7.00535E-25
6.03956E-01 6.84508E-25
6.08220E-01 6.68859E-25
6.12476E-01 6.53578E-25
6.16723E-01 6.38655E-25
6.20961E-01 6.24081E-25
6.25190E-01 6.09845E-25
6.29410E-01 5.95939E-25
6.33619E-01 5.82354E-25
6.37819E-01 5.69082E-25
6.42008E-01 5.56114E-25
6.46186E-01 5.43441E-25
6.50353E-01 5.31057E-25
6.54508E-01 5.18954E-25
6.58652E-01 5.07124E-25
6.62784E-01 4.95561E-25
6.66903E-01 4.84257E-25
6.71010E-01 4.73205E-25
6.75104E-01 4.62401E-25
6.79184E-01 4.51836E-25
6.83251E-01 4.41505E-25
6.87303E-01 4.31403E-25
6.91342E-01 4.21523E-25
6.95366E-01 4.11860E-25
6.99375E-01 4.02408E-25
7.03368E-01 3.93163E-25
7.07347E-01 3.84118E-25
7.11309E-01 3.75270E-25
7.15256E-01 3.66614E-25
7.19186E-01 3.58144E-25
7.23099E-01 3.49857E-25
7.26995E-01 3.41747E-25
7.30874E-01 3.33812E-25
7.34736E-01 3.26045E-25
7.38579E-01 3.18445E-25
7.42405E-01 3.11006E-25
7.46212E-01 3.03724E-25
7.50000E-01 2.96597E-25
7.53769E-01 2.89621E-25
7.57519E-01 2.82791E-25
7.61249E-01 2.76105E-25
7.64960E-01 2.69560E-25
7.68650E-01 2.63151E-25
7.72320E-01 2.56877E-25
7.75968E-01 2.50734E-25
7.79596E-01 2.44718E-25
7.83203E-01 2.38828E-25
7.86788E-01 2.33061E-25
7.90351E-01 2.27413E-25
7.93893E-01 2.21882E-25
7.97411E-01 2.16466E-25
8.00908E-01 2.11161E-25
8.04381E-01 2.05966E-25
8.07831E-01 2.00879E-25
8.11257E-01 1.95896E-25
8.14660E-01 1.91016E-25
8.18039E-01 1.86236E-25
8.21394E-01 1.81555E-25
8.24724E-01 1.76969E-25
8.28030E-01 1.72479E-25
8.31310E-01 1.68080E-25
8.34565E-01 1.63772E-25
8.37795E-01 1.59552E-25
8.40999E-01 1.55418E-25
8.44177E-01 1.51370E-25
8.47329E-01 1.47405E-25
8.50455E-01 1.43521E-25
8.53553E-01 1.39718E-25
8.56625E-01 1.35992E-25
8.59670E-01 1.32343E-25
8.62687E-01 1.28770E-25
8.65677E-01 1.25270E-25
8.68639E-01 1.21843E-25
8.71572E-01 1.18486E-25
8.74478E-01 1.15199E-25
8.77355E-01 1.11980E-25
8.80203E-01 1.08829E-25
8.83022E-01 1.05742E-25
8.85812E-01 1.02721E-25
8.88573E-01 9.97623E-26
8.91304E-01 9.68660E-26
8.94005E-01 9.40306E-26
8.96677E-01 9.12550E-26
8.99318E-01 8.85382E-26
9.01928E-01 8.58792E-26
9.04508E-01 8.32768E-26
9.07058E-01 8.07301E-26
9.09576E-01 7.82382E-26
9.12063E-01 7.58000E-26
9.14519E-01 7.34147E-26
9.16943E-01 7.10814E-26
9.19335E-01 6.87991E-26
9.21696E-01 6.65671E-26
9.24024E-01 6.43845E-26
9.26320E-01 6.22505E-26
9.28584E-01 6.01643E-26
9.30815E-01 5.81251E-26
9.33013E-01 5.61323E-26
9.35178E-01 5.41850E-26
9.37310E-01 5.22825E-26
9.39409E-01 5.04242E-26
9.41474E-01 4.86094E-26
9.43505E-01 4.68375E-26
9.45503E-01 4.51078E-26
9.47467E-01 4.34197E-26
9.49397E-01 4.17725E-26
9.51293E-01 4.01658E-26
9.53154E-01 3.85989E-26
9.54981E-01 3.70713E-26
9.56773E-01 3.55825E-26
9.58530E-01 3.41319E-26
9.60252E-01 3.27190E-26
9.61940E-01 3.13433E-26
9.63592E-01 3.00044E-26
9.65209E-01 2.87018E-26
9.66790E-01 2.74350E-26
9.68336E-01 2.62036E-26
9.69846E-01 2.50072E-26
9.71321E-01 2.38454E-26
9.72759E-01 2.27177E-26
9.74162E-01 2.16239E-26
9.75528E-01 2.05634E-26
9.76858E-01 1.95361E-26
9.78152E-01 1.85414E-26
9.79410E-01 1.75791E-26
9.80631E-01 1.66488E-26
9.81815E-01 1.57503E-26
9.82963E-01 1.48832E-26
9.84074E-01 1.40473E-26
9.85148E-01 1.32422E-26
9.86185E-01 1.24678E-26
9.87185E-01 1.17236E-26
9.88148E-01 1.10096E-26
9.89074E-01 1.03254E-26
9.89962E-01 9.67086E-27
9.90814E-01 9.04571E-27
9.91627E-01 8.44977E-27
9.92404E-01 7.88284E-27
9.93143E-01 7.34473E-27
9.93844E-01 6.83527E-27
9.94508E-01 6.35428E-27
9.95134E-01 5.90161E-27
9.95722E-01 5.47711E-27
9.96273E-01 5.08064E-27
9.96786E-01 4.71208E-27
9.97261E-01 4.37129E-27
9.97698E-01 4.05818E-27
9.98097E-01 3.77263E-27
9.98459E-01 3.51456E-27
9.98782E-01 3.28388E-27
9.99067E-01 3.08051E-27
9.99315E-01 2.90440E-27
9.99524E-01 2.75547E-27
9.99695E-01 2.63369E-27
9.99829E-01 2.53901E-27
9.99924E-01 2.47141E-27
9.99981E-01 2.43085E-27
1.00000E+00 2.41734E-27
