 #
 # Subroutine ELSEPA. Elastic scattering of electrons and positrons
 #                    by neutral atoms and positive ions
 #
 # Projectile: electron
 # Kinetic energy = 9.00000E+06 eV = 3.30744E+05 a.u.
 #
 # WARNING: High-energy factorization with free-atom DF screening.
 #          Absorption, polarization and exchange corrections are
 #          switched off.
 #          Phase shifts are calculated for the bare nucleus.
 #          Scattering amplitudes are not evaluated.
 #
 # Element: Sn,  Z =  50,  atomic weight = 1.18710E+02 g/mol
 #
 # Nuclear model: Fermi distribution
 #                Average radius = 5.25871E-13 cm
 #                Skin thickness = 5.46000E-14 cm
 #
 # Number of electrons = 50
 #
 # Total elastic cross section = 5.10545E-18 cm**2 = 1.82319E-01 a0**2
 # 1st transport cross section = 4.78295E-23 cm**2 = 1.70802E-06 a0**2
 # 2nd transport cross section = 1.34522E-22 cm**2 = 4.80387E-06 a0**2
 #
 #
 # Differential cross section:                       MU=(1-COS(THETA))/2
 #
 #  THETA        MU          DCS          DCS        Sherman      error
 #  (deg)                 (cm**2/sr)   (a0**2/sr)    function
 #----------------------------------------------------------------------
0.00000E+00 4.03469E-12
7.61557E-13 4.03459E-12
1.18994E-12 4.03453E-12
1.71346E-12 4.03447E-12
2.33225E-12 4.03439E-12
3.04617E-12 4.03430E-12
3.85530E-12 4.03419E-12
4.75964E-12 4.03408E-12
5.75917E-12 4.03395E-12
6.85391E-12 4.03381E-12
8.04379E-12 4.03366E-12
9.32893E-12 4.03350E-12
1.07092E-11 4.03332E-12
1.21847E-11 4.03314E-12
1.37554E-11 4.03294E-12
1.54213E-11 4.03273E-12
1.71823E-11 4.03250E-12
1.90386E-11 4.03227E-12
2.09900E-11 4.03202E-12
2.30367E-11 4.03176E-12
2.51785E-11 4.03149E-12
2.74156E-11 4.03121E-12
2.97478E-11 4.03091E-12
3.21752E-11 4.03061E-12
3.46979E-11 4.03029E-12
3.73157E-11 4.02996E-12
4.00286E-11 4.02961E-12
4.28368E-11 4.02926E-12
4.57402E-11 4.02889E-12
4.87388E-11 4.02851E-12
5.18325E-11 4.02812E-12
5.50215E-11 4.02772E-12
5.83057E-11 4.02730E-12
6.16850E-11 4.02688E-12
6.51595E-11 4.02644E-12
6.87293E-11 4.02599E-12
7.23943E-11 4.02553E-12
7.61544E-11 4.02505E-12
1.18991E-10 4.01965E-12
1.71347E-10 4.01308E-12
2.33223E-10 4.00533E-12
3.04617E-10 3.99642E-12
3.85531E-10 3.98636E-12
4.75965E-10 3.97517E-12
5.75917E-10 3.96286E-12
6.85389E-10 3.94945E-12
8.04380E-10 3.93496E-12
9.32891E-10 3.91941E-12
1.07092E-09 3.90283E-12
1.21847E-09 3.88523E-12
1.37554E-09 3.86664E-12
1.54213E-09 3.84709E-12
1.71823E-09 3.82659E-12
1.90386E-09 3.80519E-12
2.09900E-09 3.78290E-12
2.30367E-09 3.75976E-12
2.51785E-09 3.73580E-12
2.74156E-09 3.71087E-12
2.97478E-09 3.68522E-12
3.21752E-09 3.65891E-12
3.46978E-09 3.63200E-12
3.73156E-09 3.60452E-12
4.00286E-09 3.57643E-12
4.28368E-09 3.54733E-12
4.57402E-09 3.51777E-12
4.87388E-09 3.48777E-12
5.18326E-09 3.45739E-12
5.50215E-09 3.42665E-12
5.83057E-09 3.39537E-12
6.16850E-09 3.36332E-12
6.51596E-09 3.33103E-12
6.87293E-09 3.29852E-12
7.23942E-09 3.26584E-12
7.61544E-09 3.23302E-12
1.18991E-08 2.89251E-12
1.71347E-08 2.55286E-12
2.33223E-08 2.23244E-12
3.04617E-08 1.94117E-12
3.85531E-08 1.68381E-12
4.75965E-08 1.46093E-12
5.75917E-08 1.27009E-12
6.85389E-08 1.10733E-12
8.04380E-08 9.69203E-13
9.32891E-08 8.51989E-13
1.07092E-07 7.52238E-13
1.21847E-07 6.66858E-13
1.37554E-07 5.93633E-13
1.54213E-07 5.30506E-13
1.71823E-07 4.75719E-13
1.90386E-07 4.27898E-13
2.09900E-07 3.86022E-13
2.30367E-07 3.49172E-13
2.51785E-07 3.16522E-13
2.74156E-07 2.85445E-13
2.97478E-07 2.58512E-13
3.21752E-07 2.35330E-13
3.46978E-07 2.15272E-13
3.73156E-07 1.97830E-13
4.00286E-07 1.82251E-13
4.28368E-07 1.66102E-13
4.57402E-07 1.51986E-13
4.87388E-07 1.39593E-13
5.18325E-07 1.28670E-13
5.50215E-07 1.19007E-13
5.83057E-07 1.09984E-13
6.16850E-07 1.01145E-13
6.51596E-07 9.32902E-14
6.87293E-07 8.62872E-14
7.23942E-07 8.00245E-14
7.61543E-07 7.44074E-14
1.18991E-06 3.69187E-14
1.71347E-06 2.03970E-14
2.33223E-06 1.23385E-14
3.04617E-06 7.99439E-15
3.85531E-06 5.44043E-15
4.75964E-06 3.83627E-15
5.75916E-06 2.77754E-15
6.85388E-06 2.05179E-15
8.04378E-06 1.54310E-15
9.32888E-06 1.18035E-15
1.07092E-05 9.16764E-16
1.21846E-05 7.21851E-16
1.37553E-05 5.75824E-16
1.54212E-05 4.64937E-16
1.71822E-05 3.79641E-16
1.90385E-05 3.13113E-16
2.09899E-05 2.60826E-16
2.30365E-05 2.19080E-16
2.51783E-05 1.85387E-16
2.74153E-05 1.57885E-16
2.97475E-05 1.35416E-16
3.21749E-05 1.16799E-16
3.46974E-05 1.01294E-16
3.73152E-05 8.83194E-17
4.00281E-05 7.73245E-17
4.28362E-05 6.80379E-17
4.57395E-05 6.00594E-17
4.87380E-05 5.32411E-17
5.18317E-05 4.73462E-17
5.50205E-05 4.22432E-17
5.83045E-05 3.78116E-17
6.16838E-05 3.39353E-17
6.51582E-05 3.05541E-17
6.87277E-05 2.75693E-17
7.23925E-05 2.49479E-17
7.61524E-05 2.26256E-17
9.21439E-05 1.56457E-17
1.09658E-04 1.11525E-17
1.28695E-04 8.16101E-18
1.49255E-04 6.10747E-18
1.71338E-04 4.66129E-18
1.94942E-04 3.61887E-18
2.20070E-04 2.85262E-18
2.46720E-04 2.27920E-18
2.74892E-04 1.84309E-18
3.04586E-04 1.50668E-18
3.35803E-04 1.24379E-18
3.68542E-04 1.03595E-18
4.02802E-04 8.69850E-19
4.38585E-04 7.35810E-19
4.75889E-04 6.26683E-19
5.14715E-04 5.37097E-19
5.55063E-04 4.62992E-19
5.96931E-04 4.01264E-19
6.40321E-04 3.49510E-19
6.85233E-04 3.05854E-19
7.31665E-04 2.68817E-19
7.79618E-04 2.37233E-19
8.29092E-04 2.10163E-19
8.80086E-04 1.86854E-19
9.32601E-04 1.66694E-19
9.86636E-04 1.49188E-19
1.04219E-03 1.33925E-19
1.09927E-03 1.20569E-19
1.15786E-03 1.08841E-19
1.21797E-03 9.85081E-20
1.27961E-03 8.93757E-20
1.34276E-03 8.12800E-20
1.40743E-03 7.40827E-20
1.47362E-03 6.76670E-20
1.54133E-03 6.19328E-20
1.61056E-03 5.67949E-20
1.68131E-03 5.21805E-20
1.75357E-03 4.80267E-20
1.82735E-03 4.42794E-20
1.90265E-03 4.08917E-20
1.97947E-03 3.78230E-20
2.05780E-03 3.50378E-20
2.13765E-03 3.25051E-20
2.21902E-03 3.01981E-20
2.30190E-03 2.80929E-20
2.38630E-03 2.61687E-20
2.47222E-03 2.44071E-20
2.55965E-03 2.27918E-20
2.64859E-03 2.13086E-20
2.73905E-03 1.99445E-20
2.83103E-03 1.86884E-20
2.92452E-03 1.75302E-20
3.01952E-03 1.64606E-20
3.11604E-03 1.54718E-20
3.21407E-03 1.45565E-20
3.31362E-03 1.37082E-20
3.41468E-03 1.29211E-20
3.51725E-03 1.21900E-20
3.62133E-03 1.15102E-20
3.72692E-03 1.08774E-20
3.83403E-03 1.02877E-20
3.94265E-03 9.73763E-21
4.05278E-03 9.22405E-21
4.16442E-03 8.74410E-21
4.27757E-03 8.29517E-21
4.39223E-03 7.87483E-21
4.50840E-03 7.48095E-21
4.62608E-03 7.11156E-21
4.74527E-03 6.76482E-21
4.86597E-03 6.43910E-21
4.98817E-03 6.13288E-21
5.11188E-03 5.84478E-21
5.23711E-03 5.57350E-21
5.36383E-03 5.31789E-21
5.49207E-03 5.07688E-21
5.62181E-03 4.84946E-21
5.75306E-03 4.63473E-21
5.88581E-03 4.43184E-21
6.02007E-03 4.24001E-21
6.15583E-03 4.05853E-21
6.29310E-03 3.88673E-21
6.43187E-03 3.72399E-21
6.57214E-03 3.56975E-21
6.71392E-03 3.42348E-21
6.85720E-03 3.28469E-21
7.00198E-03 3.15291E-21
7.14827E-03 3.02773E-21
7.29605E-03 2.90876E-21
7.44534E-03 2.79562E-21
7.59612E-03 2.68798E-21
7.97965E-03 2.44087E-21
8.37255E-03 2.22175E-21
8.77480E-03 2.02688E-21
9.18641E-03 1.85310E-21
9.60736E-03 1.69772E-21
1.00376E-02 1.55843E-21
1.04773E-02 1.43328E-21
1.09262E-02 1.32056E-21
1.13844E-02 1.21881E-21
1.18520E-02 1.12678E-21
1.23288E-02 1.04335E-21
1.28150E-02 9.67592E-22
1.33104E-02 8.98656E-22
1.38150E-02 8.35818E-22
1.43290E-02 7.78438E-22
1.48521E-02 7.25954E-22
1.53845E-02 6.77870E-22
1.59262E-02 6.33748E-22
1.64770E-02 5.93199E-22
1.70371E-02 5.55881E-22
1.76063E-02 5.21488E-22
1.81848E-02 4.89746E-22
1.87724E-02 4.60414E-22
1.93692E-02 4.33272E-22
1.99751E-02 4.08127E-22
2.05901E-02 3.84803E-22
2.12143E-02 3.63143E-22
2.18476E-02 3.43006E-22
2.24900E-02 3.24264E-22
2.31415E-02 3.06803E-22
2.38021E-02 2.90517E-22
2.44717E-02 2.75312E-22
2.51504E-02 2.61103E-22
2.58382E-02 2.47812E-22
2.65349E-02 2.35367E-22
2.72407E-02 2.23705E-22
2.79555E-02 2.12767E-22
2.86793E-02 2.02498E-22
2.94120E-02 1.92851E-22
3.01537E-02 1.83780E-22
3.09043E-02 1.75244E-22
3.16639E-02 1.67205E-22
3.24324E-02 1.59629E-22
3.32098E-02 1.52483E-22
3.39961E-02 1.45738E-22
3.47912E-02 1.39368E-22
3.55952E-02 1.33348E-22
3.64081E-02 1.27654E-22
3.72297E-02 1.22266E-22
3.80602E-02 1.17163E-22
3.88995E-02 1.12327E-22
3.97476E-02 1.07742E-22
4.06044E-02 1.03393E-22
4.14700E-02 9.92640E-23
4.23443E-02 9.53424E-23
4.32273E-02 9.16156E-23
4.41190E-02 8.80718E-23
4.50194E-02 8.47004E-23
4.59284E-02 8.14912E-23
4.68461E-02 7.84349E-23
4.87074E-02 7.27468E-23
5.06030E-02 6.75728E-23
5.25328E-02 6.28572E-23
5.44967E-02 5.85518E-23
5.64946E-02 5.46143E-23
5.85262E-02 5.10072E-23
6.05914E-02 4.76971E-23
6.26901E-02 4.46550E-23
6.48222E-02 4.18552E-23
6.69873E-02 3.92745E-23
6.91854E-02 3.68924E-23
7.14163E-02 3.46906E-23
7.36799E-02 3.26530E-23
7.59760E-02 3.07648E-23
7.83043E-02 2.90128E-23
8.06647E-02 2.73855E-23
8.30571E-02 2.58721E-23
8.54812E-02 2.44631E-23
8.79369E-02 2.31499E-23
9.04240E-02 2.19247E-23
9.29422E-02 2.07805E-23
9.54915E-02 1.97107E-23
9.80716E-02 1.87096E-23
1.00682E-01 1.77720E-23
1.03323E-01 1.68930E-23
1.05995E-01 1.60682E-23
1.08696E-01 1.52936E-23
1.11427E-01 1.45656E-23
1.14188E-01 1.38806E-23
1.16978E-01 1.32358E-23
1.19797E-01 1.26284E-23
1.22645E-01 1.20556E-23
1.25522E-01 1.15151E-23
1.28428E-01 1.10048E-23
1.31361E-01 1.05226E-23
1.34323E-01 1.00667E-23
1.37313E-01 9.63526E-24
1.40330E-01 9.22682E-24
1.43375E-01 8.83985E-24
1.46447E-01 8.47302E-24
1.49545E-01 8.12507E-24
1.52671E-01 7.79482E-24
1.55823E-01 7.48119E-24
1.59001E-01 7.18320E-24
1.62205E-01 6.89988E-24
1.65435E-01 6.63037E-24
1.68690E-01 6.37388E-24
1.71970E-01 6.12964E-24
1.75276E-01 5.89695E-24
1.78606E-01 5.67515E-24
1.81961E-01 5.46364E-24
1.85340E-01 5.26183E-24
1.88743E-01 5.06920E-24
1.92169E-01 4.88524E-24
1.95619E-01 4.70949E-24
1.99092E-01 4.54149E-24
2.02589E-01 4.38086E-24
2.06107E-01 4.22719E-24
2.09649E-01 4.08012E-24
2.13212E-01 3.93932E-24
2.16797E-01 3.80446E-24
2.20404E-01 3.67524E-24
2.24032E-01 3.55137E-24
2.27680E-01 3.43260E-24
2.31350E-01 3.31866E-24
2.35040E-01 3.20933E-24
2.38751E-01 3.10439E-24
2.42481E-01 3.00361E-24
2.46231E-01 2.90680E-24
2.50000E-01 2.81378E-24
2.53788E-01 2.72437E-24
2.57595E-01 2.63839E-24
2.61421E-01 2.55569E-24
2.65264E-01 2.47613E-24
2.69126E-01 2.39955E-24
2.73005E-01 2.32583E-24
2.76901E-01 2.25484E-24
2.80814E-01 2.18645E-24
2.84744E-01 2.12055E-24
2.88691E-01 2.05704E-24
2.92653E-01 1.99580E-24
2.96632E-01 1.93675E-24
3.00625E-01 1.87978E-24
3.04634E-01 1.82482E-24
3.08658E-01 1.77177E-24
3.12697E-01 1.72056E-24
3.16749E-01 1.67111E-24
3.20816E-01 1.62334E-24
3.24896E-01 1.57720E-24
3.28990E-01 1.53261E-24
3.33097E-01 1.48951E-24
3.37216E-01 1.44784E-24
3.41348E-01 1.40755E-24
3.45492E-01 1.36858E-24
3.49647E-01 1.33088E-24
3.53814E-01 1.29440E-24
3.57992E-01 1.25909E-24
3.62181E-01 1.22491E-24
3.66381E-01 1.19181E-24
3.70590E-01 1.15976E-24
3.74810E-01 1.12871E-24
3.79039E-01 1.09863E-24
3.83277E-01 1.06948E-24
3.87524E-01 1.04123E-24
3.91780E-01 1.01384E-24
3.96044E-01 9.87284E-25
4.00316E-01 9.61532E-25
4.04596E-01 9.36553E-25
4.08882E-01 9.12321E-25
4.13176E-01 8.88808E-25
4.17476E-01 8.65990E-25
4.21783E-01 8.43842E-25
4.26095E-01 8.22341E-25
4.30413E-01 8.01464E-25
4.34737E-01 7.81190E-25
4.39065E-01 7.61498E-25
4.43398E-01 7.42369E-25
4.47736E-01 7.23783E-25
4.52077E-01 7.05722E-25
4.56422E-01 6.88169E-25
4.60770E-01 6.71107E-25
4.65122E-01 6.54519E-25
4.69476E-01 6.38391E-25
4.73832E-01 6.22706E-25
4.78190E-01 6.07451E-25
4.82550E-01 5.92611E-25
4.86912E-01 5.78174E-25
4.91274E-01 5.64127E-25
4.95637E-01 5.50456E-25
5.00000E-01 5.37151E-25
5.04363E-01 5.24199E-25
5.08726E-01 5.11590E-25
5.13088E-01 4.99313E-25
5.17450E-01 4.87358E-25
5.21810E-01 4.75715E-25
5.26168E-01 4.64374E-25
5.30524E-01 4.53326E-25
5.34878E-01 4.42562E-25
5.39230E-01 4.32074E-25
5.43578E-01 4.21854E-25
5.47923E-01 4.11893E-25
5.52264E-01 4.02183E-25
5.56602E-01 3.92718E-25
5.60935E-01 3.83491E-25
5.65263E-01 3.74493E-25
5.69587E-01 3.65719E-25
5.73905E-01 3.57162E-25
5.78217E-01 3.48815E-25
5.82524E-01 3.40674E-25
5.86824E-01 3.32731E-25
5.91118E-01 3.24982E-25
5.95404E-01 3.17420E-25
5.99684E-01 3.10041E-25
6.03956E-01 3.02840E-25
6.08220E-01 2.95811E-25
6.12476E-01 2.88950E-25
6.16723E-01 2.82252E-25
6.20961E-01 2.75712E-25
6.25190E-01 2.69327E-25
6.29410E-01 2.63092E-25
6.33619E-01 2.57003E-25
6.37819E-01 2.51056E-25
6.42008E-01 2.45248E-25
6.46186E-01 2.39574E-25
6.50353E-01 2.34031E-25
6.54508E-01 2.28616E-25
6.58652E-01 2.23325E-25
6.62784E-01 2.18155E-25
6.66903E-01 2.13103E-25
6.71010E-01 2.08165E-25
6.75104E-01 2.03340E-25
6.79184E-01 1.98623E-25
6.83251E-01 1.94013E-25
6.87303E-01 1.89505E-25
6.91342E-01 1.85099E-25
6.95366E-01 1.80791E-25
6.99375E-01 1.76579E-25
7.03368E-01 1.72460E-25
7.07347E-01 1.68433E-25
7.11309E-01 1.64494E-25
7.15256E-01 1.60641E-25
7.19186E-01 1.56874E-25
7.23099E-01 1.53188E-25
7.26995E-01 1.49583E-25
7.30874E-01 1.46057E-25
7.34736E-01 1.42607E-25
7.38579E-01 1.39232E-25
7.42405E-01 1.35930E-25
7.46212E-01 1.32699E-25
7.50000E-01 1.29538E-25
7.53769E-01 1.26444E-25
7.57519E-01 1.23417E-25
7.61249E-01 1.20454E-25
7.64960E-01 1.17555E-25
7.68650E-01 1.14718E-25
7.72320E-01 1.11940E-25
7.75968E-01 1.09222E-25
7.79596E-01 1.06562E-25
7.83203E-01 1.03957E-25
7.86788E-01 1.01408E-25
7.90351E-01 9.89127E-26
7.93893E-01 9.64698E-26
7.97411E-01 9.40783E-26
8.00908E-01 9.17371E-26
8.04381E-01 8.94451E-26
8.07831E-01 8.72011E-26
8.11257E-01 8.50041E-26
8.14660E-01 8.28531E-26
8.18039E-01 8.07471E-26
8.21394E-01 7.86852E-26
8.24724E-01 7.66663E-26
8.28030E-01 7.46896E-26
8.31310E-01 7.27541E-26
8.34565E-01 7.08591E-26
8.37795E-01 6.90036E-26
8.40999E-01 6.71868E-26
8.44177E-01 6.54079E-26
8.47329E-01 6.36662E-26
8.50455E-01 6.19608E-26
8.53553E-01 6.02910E-26
8.56625E-01 5.86562E-26
8.59670E-01 5.70555E-26
8.62687E-01 5.54884E-26
8.65677E-01 5.39540E-26
8.68639E-01 5.24519E-26
8.71572E-01 5.09813E-26
8.74478E-01 4.95417E-26
8.77355E-01 4.81323E-26
8.80203E-01 4.67528E-26
8.83022E-01 4.54023E-26
8.85812E-01 4.40805E-26
8.88573E-01 4.27868E-26
8.91304E-01 4.15206E-26
8.94005E-01 4.02814E-26
8.96677E-01 3.90687E-26
8.99318E-01 3.78821E-26
9.01928E-01 3.67210E-26
9.04508E-01 3.55850E-26
9.07058E-01 3.44737E-26
9.09576E-01 3.33865E-26
9.12063E-01 3.23231E-26
9.14519E-01 3.12831E-26
9.16943E-01 3.02660E-26
9.19335E-01 2.92714E-26
9.21696E-01 2.82990E-26
9.24024E-01 2.73484E-26
9.26320E-01 2.64192E-26
9.28584E-01 2.55110E-26
9.30815E-01 2.46236E-26
9.33013E-01 2.37565E-26
9.35178E-01 2.29095E-26
9.37310E-01 2.20822E-26
9.39409E-01 2.12743E-26
9.41474E-01 2.04855E-26
9.43505E-01 1.97155E-26
9.45503E-01 1.89640E-26
9.47467E-01 1.82308E-26
9.49397E-01 1.75155E-26
9.51293E-01 1.68180E-26
9.53154E-01 1.61379E-26
9.54981E-01 1.54750E-26
9.56773E-01 1.48291E-26
9.58530E-01 1.41999E-26
9.60252E-01 1.35871E-26
9.61940E-01 1.29907E-26
9.63592E-01 1.24103E-26
9.65209E-01 1.18457E-26
9.66790E-01 1.12968E-26
9.68336E-01 1.07633E-26
9.69846E-01 1.02451E-26
9.71321E-01 9.74194E-27
9.72759E-01 9.25367E-27
9.74162E-01 8.78012E-27
9.75528E-01 8.32110E-27
9.76858E-01 7.87648E-27
9.78152E-01 7.44608E-27
9.79410E-01 7.02975E-27
9.80631E-01 6.62735E-27
9.81815E-01 6.23874E-27
9.82963E-01 5.86378E-27
9.84074E-01 5.50233E-27
9.85148E-01 5.15429E-27
9.86185E-01 4.81951E-27
9.87185E-01 4.49789E-27
9.88148E-01 4.18931E-27
9.89074E-01 3.89367E-27
9.89962E-01 3.61087E-27
9.90814E-01 3.34080E-27
9.91627E-01 3.08337E-27
9.92404E-01 2.83850E-27
9.93143E-01 2.60611E-27
9.93844E-01 2.38610E-27
9.94508E-01 2.17841E-27
9.95134E-01 1.98296E-27
9.95722E-01 1.79969E-27
9.96273E-01 1.62853E-27
9.96786E-01 1.46943E-27
9.97261E-01 1.32233E-27
9.97698E-01 1.18719E-27
9.98097E-01 1.06395E-27
9.98459E-01 9.52568E-28
9.98782E-01 8.53015E-28
9.99067E-01 7.65254E-28
9.99315E-01 6.89255E-28
9.99524E-01 6.24992E-28
9.99695E-01 5.72442E-28
9.99829E-01 5.31589E-28
9.99924E-01 5.02418E-28
9.99981E-01 4.84919E-28
1.00000E+00 4.79088E-28
