 #
 # Subroutine ELSEPA. Elastic scattering of electrons and positrons
 #                    by neutral atoms and positive ions
 #
 # Projectile: electron
 # Kinetic energy = 2.00000E+07 eV = 7.34987E+05 a.u.
 #
 # WARNING: High-energy factorization with free-atom DF screening.
 #          Absorption, polarization and exchange corrections are
 #          switched off.
 #          Phase shifts are calculated for the bare nucleus.
 #          Scattering amplitudes are not evaluated.
 #
 # Element: Sn,  Z =  50,  atomic weight = 1.18710E+02 g/mol
 #
 # Nuclear model: Fermi distribution
 #                Average radius = 5.25871E-13 cm
 #                Skin thickness = 5.46000E-14 cm
 #
 # Number of electrons = 50
 #
 # Total elastic cross section = 5.09074E-18 cm**2 = 1.81794E-01 a0**2
 # 1st transport cross section = 1.11677E-23 cm**2 = 3.98806E-07 a0**2
 # 2nd transport cross section = 3.18847E-23 cm**2 = 1.13862E-06 a0**2
 #
 #
 # Differential cross section:                       MU=(1-COS(THETA))/2
 #
 #  THETA        MU          DCS          DCS        Sherman      error
 #  (deg)                 (cm**2/sr)   (a0**2/sr)    function
 #----------------------------------------------------------------------
0.00000E+00 1.87642E-11
7.61557E-13 1.87621E-11
1.18994E-12 1.87609E-11
1.71346E-12 1.87595E-11
2.33225E-12 1.87578E-11
3.04617E-12 1.87558E-11
3.85530E-12 1.87536E-11
4.75964E-12 1.87511E-11
5.75917E-12 1.87484E-11
6.85391E-12 1.87454E-11
8.04379E-12 1.87421E-11
9.32893E-12 1.87386E-11
1.07092E-11 1.87348E-11
1.21847E-11 1.87307E-11
1.37554E-11 1.87264E-11
1.54213E-11 1.87219E-11
1.71823E-11 1.87171E-11
1.90386E-11 1.87120E-11
2.09900E-11 1.87066E-11
2.30367E-11 1.87011E-11
2.51785E-11 1.86952E-11
2.74156E-11 1.86891E-11
2.97478E-11 1.86827E-11
3.21752E-11 1.86761E-11
3.46979E-11 1.86693E-11
3.73157E-11 1.86621E-11
4.00286E-11 1.86548E-11
4.28368E-11 1.86471E-11
4.57402E-11 1.86392E-11
4.87388E-11 1.86311E-11
5.18325E-11 1.86227E-11
5.50215E-11 1.86141E-11
5.83057E-11 1.86052E-11
6.16850E-11 1.85960E-11
6.51595E-11 1.85866E-11
6.87293E-11 1.85770E-11
7.23943E-11 1.85671E-11
7.61544E-11 1.85570E-11
1.18991E-10 1.84422E-11
1.71347E-10 1.83034E-11
2.33223E-10 1.81418E-11
3.04617E-10 1.79581E-11
3.85531E-10 1.77538E-11
4.75965E-10 1.75299E-11
5.75917E-10 1.72873E-11
6.85389E-10 1.70276E-11
8.04380E-10 1.67546E-11
9.32891E-10 1.64663E-11
1.07092E-09 1.61660E-11
1.21847E-09 1.58576E-11
1.37554E-09 1.55359E-11
1.54213E-09 1.52090E-11
1.71823E-09 1.48767E-11
1.90386E-09 1.45368E-11
2.09900E-09 1.41965E-11
2.30367E-09 1.38520E-11
2.51785E-09 1.35063E-11
2.74156E-09 1.31640E-11
2.97478E-09 1.28179E-11
3.21752E-09 1.24765E-11
3.46978E-09 1.21391E-11
3.73156E-09 1.18021E-11
4.00286E-09 1.14726E-11
4.28368E-09 1.11465E-11
4.57402E-09 1.08254E-11
4.87388E-09 1.05133E-11
5.18326E-09 1.02035E-11
5.50215E-09 9.90247E-12
5.83057E-09 9.60954E-12
6.16850E-09 9.32083E-12
6.51596E-09 9.04203E-12
6.87293E-09 8.76961E-12
7.23942E-09 8.50413E-12
7.61544E-09 8.24843E-12
1.18991E-08 6.07615E-12
1.71347E-08 4.53427E-12
2.33223E-08 3.44977E-12
3.04617E-08 2.67649E-12
3.85531E-08 2.11243E-12
4.75965E-08 1.69116E-12
5.75917E-08 1.36182E-12
6.85389E-08 1.10347E-12
8.04380E-08 9.14772E-13
9.32891E-08 7.56680E-13
1.07092E-07 6.28715E-13
1.21847E-07 5.31012E-13
1.37554E-07 4.44129E-13
1.54213E-07 3.75871E-13
1.71823E-07 3.20519E-13
1.90386E-07 2.72930E-13
2.09900E-07 2.34729E-13
2.30367E-07 2.02512E-13
2.51785E-07 1.75450E-13
2.74156E-07 1.53179E-13
2.97478E-07 1.33966E-13
3.21752E-07 1.17876E-13
3.46978E-07 1.04268E-13
3.73156E-07 9.25047E-14
4.00286E-07 8.25073E-14
4.28368E-07 7.38527E-14
4.57402E-07 6.63419E-14
4.87388E-07 5.98584E-14
5.18325E-07 5.41257E-14
5.50215E-07 4.91215E-14
5.83057E-07 4.47244E-14
6.16850E-07 4.07918E-14
6.51596E-07 3.73285E-14
6.87293E-07 3.42248E-14
7.23942E-07 3.14391E-14
7.61543E-07 2.89623E-14
1.18991E-06 1.37578E-14
1.71347E-06 7.26001E-15
2.33223E-06 4.14131E-15
3.04617E-06 2.51988E-15
3.85531E-06 1.62029E-15
4.75964E-06 1.09099E-15
5.75916E-06 7.62116E-16
6.85388E-06 5.49284E-16
8.04378E-06 4.06085E-16
9.32888E-06 3.06688E-16
1.07092E-05 2.35911E-16
1.21846E-05 1.84338E-16
1.37553E-05 1.46074E-16
1.54212E-05 1.17206E-16
1.71822E-05 9.51016E-17
1.90385E-05 7.79313E-17
2.09899E-05 6.44912E-17
2.30365E-05 5.38144E-17
2.51783E-05 4.52461E-17
2.74153E-05 3.83082E-17
2.97475E-05 3.26458E-17
3.21749E-05 2.79907E-17
3.46974E-05 2.41372E-17
3.73152E-05 2.09264E-17
4.00281E-05 1.82335E-17
4.28362E-05 1.59610E-17
4.57395E-05 1.40320E-17
4.87380E-05 1.23855E-17
5.18317E-05 1.09734E-17
5.50205E-05 9.75676E-18
5.83045E-05 8.70424E-18
6.16838E-05 7.79016E-18
6.51582E-05 6.99333E-18
6.87277E-05 6.29617E-18
7.23925E-05 5.68403E-18
7.61524E-05 5.14501E-18
9.21439E-05 3.53405E-18
1.09658E-04 2.50751E-18
1.28695E-04 1.82853E-18
1.49255E-04 1.36464E-18
1.71338E-04 1.03911E-18
1.94942E-04 8.05134E-19
2.20070E-04 6.33497E-19
2.46720E-04 5.05282E-19
2.74892E-04 4.07933E-19
3.04586E-04 3.32957E-19
3.35803E-04 2.74448E-19
3.68542E-04 2.28254E-19
4.02802E-04 1.91390E-19
4.38585E-04 1.61682E-19
4.75889E-04 1.37528E-19
5.14715E-04 1.17723E-19
5.55063E-04 1.01363E-19
5.96931E-04 8.77530E-20
6.40321E-04 7.63549E-20
6.85233E-04 6.67518E-20
7.31665E-04 5.86141E-20
7.79618E-04 5.16819E-20
8.29092E-04 4.57465E-20
8.80086E-04 4.06411E-20
9.32601E-04 3.62297E-20
9.86636E-04 3.24023E-20
1.04219E-03 2.90684E-20
1.09927E-03 2.61534E-20
1.15786E-03 2.35958E-20
1.21797E-03 2.13441E-20
1.27961E-03 1.93554E-20
1.34276E-03 1.75937E-20
1.40743E-03 1.60285E-20
1.47362E-03 1.46341E-20
1.54133E-03 1.33885E-20
1.61056E-03 1.22732E-20
1.68131E-03 1.12720E-20
1.75357E-03 1.03711E-20
1.82735E-03 9.55885E-21
1.90265E-03 8.82485E-21
1.97947E-03 8.16022E-21
2.05780E-03 7.55725E-21
2.13765E-03 7.00918E-21
2.21902E-03 6.51010E-21
2.30190E-03 6.05485E-21
2.38630E-03 5.63888E-21
2.47222E-03 5.25818E-21
2.55965E-03 4.90922E-21
2.64859E-03 4.58886E-21
2.73905E-03 4.29433E-21
2.83103E-03 4.02317E-21
2.92452E-03 3.77318E-21
3.01952E-03 3.54241E-21
3.11604E-03 3.32911E-21
3.21407E-03 3.13170E-21
3.31362E-03 2.94879E-21
3.41468E-03 2.77910E-21
3.51725E-03 2.62152E-21
3.62133E-03 2.47501E-21
3.72692E-03 2.33865E-21
3.83403E-03 2.21161E-21
3.94265E-03 2.09313E-21
4.05278E-03 1.98252E-21
4.16442E-03 1.87917E-21
4.27757E-03 1.78250E-21
4.39223E-03 1.69202E-21
4.50840E-03 1.60723E-21
4.62608E-03 1.52772E-21
4.74527E-03 1.45311E-21
4.86597E-03 1.38302E-21
4.98817E-03 1.31713E-21
5.11188E-03 1.25515E-21
5.23711E-03 1.19680E-21
5.36383E-03 1.14182E-21
5.49207E-03 1.08998E-21
5.62181E-03 1.04107E-21
5.75306E-03 9.94898E-22
5.88581E-03 9.51272E-22
6.02007E-03 9.10029E-22
6.15583E-03 8.71014E-22
6.29310E-03 8.34083E-22
6.43187E-03 7.99103E-22
6.57214E-03 7.65952E-22
6.71392E-03 7.34515E-22
6.85720E-03 7.04685E-22
7.00198E-03 6.76368E-22
7.14827E-03 6.49468E-22
7.29605E-03 6.23904E-22
7.44534E-03 5.99596E-22
7.59612E-03 5.76470E-22
7.97965E-03 5.23386E-22
8.37255E-03 4.76319E-22
8.77480E-03 4.34467E-22
9.18641E-03 3.97149E-22
9.60736E-03 3.63785E-22
1.00376E-02 3.33880E-22
1.04773E-02 3.07013E-22
1.09262E-02 2.82817E-22
1.13844E-02 2.60978E-22
1.18520E-02 2.41226E-22
1.23288E-02 2.23325E-22
1.28150E-02 2.07068E-22
1.33104E-02 1.92277E-22
1.38150E-02 1.78796E-22
1.43290E-02 1.66487E-22
1.48521E-02 1.55229E-22
1.53845E-02 1.44915E-22
1.59262E-02 1.35453E-22
1.64770E-02 1.26758E-22
1.70371E-02 1.18755E-22
1.76063E-02 1.11382E-22
1.81848E-02 1.04577E-22
1.87724E-02 9.82884E-23
1.93692E-02 9.24707E-23
1.99751E-02 8.70816E-23
2.05901E-02 8.20830E-23
2.12143E-02 7.74416E-23
2.18476E-02 7.31273E-23
2.24900E-02 6.91119E-23
2.31415E-02 6.53712E-23
2.38021E-02 6.18832E-23
2.44717E-02 5.86265E-23
2.51504E-02 5.55837E-23
2.58382E-02 5.27379E-23
2.65349E-02 5.00733E-23
2.72407E-02 4.75770E-23
2.79555E-02 4.52357E-23
2.86793E-02 4.30381E-23
2.94120E-02 4.09737E-23
3.01537E-02 3.90329E-23
3.09043E-02 3.72067E-23
3.16639E-02 3.54871E-23
3.24324E-02 3.38668E-23
3.32098E-02 3.23387E-23
3.39961E-02 3.08967E-23
3.47912E-02 2.95349E-23
3.55952E-02 2.82480E-23
3.64081E-02 2.70312E-23
3.72297E-02 2.58797E-23
3.80602E-02 2.47895E-23
3.88995E-02 2.37566E-23
3.97476E-02 2.27775E-23
4.06044E-02 2.18487E-23
4.14700E-02 2.09672E-23
4.23443E-02 2.01301E-23
4.32273E-02 1.93347E-23
4.41190E-02 1.85785E-23
4.50194E-02 1.78592E-23
4.59284E-02 1.71747E-23
4.68461E-02 1.65230E-23
4.87074E-02 1.53103E-23
5.06030E-02 1.42075E-23
5.25328E-02 1.32030E-23
5.44967E-02 1.22863E-23
5.64946E-02 1.14482E-23
5.85262E-02 1.06808E-23
6.05914E-02 9.97696E-24
6.26901E-02 9.33044E-24
6.48222E-02 8.73568E-24
6.69873E-02 8.18776E-24
6.91854E-02 7.68228E-24
7.14163E-02 7.21533E-24
7.36799E-02 6.78342E-24
7.59760E-02 6.38342E-24
7.83043E-02 6.01251E-24
8.06647E-02 5.66819E-24
8.30571E-02 5.34817E-24
8.54812E-02 5.05042E-24
8.79369E-02 4.77310E-24
9.04240E-02 4.51452E-24
9.29422E-02 4.27319E-24
9.54915E-02 4.04773E-24
9.80716E-02 3.83690E-24
1.00682E-01 3.63956E-24
1.03323E-01 3.45470E-24
1.05995E-01 3.28136E-24
1.08696E-01 3.11870E-24
1.11427E-01 2.96593E-24
1.14188E-01 2.82233E-24
1.16978E-01 2.68725E-24
1.19797E-01 2.56008E-24
1.22645E-01 2.44028E-24
1.25522E-01 2.32733E-24
1.28428E-01 2.22078E-24
1.31361E-01 2.12018E-24
1.34323E-01 2.02514E-24
1.37313E-01 1.93529E-24
1.40330E-01 1.85031E-24
1.43375E-01 1.76987E-24
1.46447E-01 1.69368E-24
1.49545E-01 1.62148E-24
1.52671E-01 1.55303E-24
1.55823E-01 1.48808E-24
1.59001E-01 1.42643E-24
1.62205E-01 1.36787E-24
1.65435E-01 1.31222E-24
1.68690E-01 1.25932E-24
1.71970E-01 1.20899E-24
1.75276E-01 1.16110E-24
1.78606E-01 1.11549E-24
1.81961E-01 1.07204E-24
1.85340E-01 1.03064E-24
1.88743E-01 9.91159E-25
1.92169E-01 9.53498E-25
1.95619E-01 9.17557E-25
1.99092E-01 8.83243E-25
2.02589E-01 8.50468E-25
2.06107E-01 8.19151E-25
2.09649E-01 7.89215E-25
2.13212E-01 7.60587E-25
2.16797E-01 7.33201E-25
2.20404E-01 7.06992E-25
2.24032E-01 6.81901E-25
2.27680E-01 6.57871E-25
2.31350E-01 6.34848E-25
2.35040E-01 6.12784E-25
2.38751E-01 5.91631E-25
2.42481E-01 5.71345E-25
2.46231E-01 5.51883E-25
2.50000E-01 5.33206E-25
2.53788E-01 5.15277E-25
2.57595E-01 4.98061E-25
2.61421E-01 4.81524E-25
2.65264E-01 4.65634E-25
2.69126E-01 4.50362E-25
2.73005E-01 4.35679E-25
2.76901E-01 4.21559E-25
2.80814E-01 4.07976E-25
2.84744E-01 3.94906E-25
2.88691E-01 3.82327E-25
2.92653E-01 3.70217E-25
2.96632E-01 3.58555E-25
3.00625E-01 3.47322E-25
3.04634E-01 3.36499E-25
3.08658E-01 3.26068E-25
3.12697E-01 3.16014E-25
3.16749E-01 3.06320E-25
3.20816E-01 2.96972E-25
3.24896E-01 2.87953E-25
3.28990E-01 2.79252E-25
3.33097E-01 2.70855E-25
3.37216E-01 2.62749E-25
3.41348E-01 2.54923E-25
3.45492E-01 2.47365E-25
3.49647E-01 2.40066E-25
3.53814E-01 2.33013E-25
3.57992E-01 2.26198E-25
3.62181E-01 2.19612E-25
3.66381E-01 2.13245E-25
3.70590E-01 2.07089E-25
3.74810E-01 2.01136E-25
3.79039E-01 1.95377E-25
3.83277E-01 1.89807E-25
3.87524E-01 1.84416E-25
3.91780E-01 1.79200E-25
3.96044E-01 1.74150E-25
4.00316E-01 1.69262E-25
4.04596E-01 1.64529E-25
4.08882E-01 1.59945E-25
4.13176E-01 1.55504E-25
4.17476E-01 1.51203E-25
4.21783E-01 1.47035E-25
4.26095E-01 1.42996E-25
4.30413E-01 1.39081E-25
4.34737E-01 1.35286E-25
4.39065E-01 1.31607E-25
4.43398E-01 1.28039E-25
4.47736E-01 1.24579E-25
4.52077E-01 1.21223E-25
4.56422E-01 1.17967E-25
4.60770E-01 1.14807E-25
4.65122E-01 1.11742E-25
4.69476E-01 1.08766E-25
4.73832E-01 1.05878E-25
4.78190E-01 1.03075E-25
4.82550E-01 1.00352E-25
4.86912E-01 9.77090E-26
4.91274E-01 9.51418E-26
4.95637E-01 9.26483E-26
5.00000E-01 9.02260E-26
5.04363E-01 8.78727E-26
5.08726E-01 8.55860E-26
5.13088E-01 8.33638E-26
5.17450E-01 8.12041E-26
5.21810E-01 7.91048E-26
5.26168E-01 7.70640E-26
5.30524E-01 7.50799E-26
5.34878E-01 7.31506E-26
5.39230E-01 7.12744E-26
5.43578E-01 6.94497E-26
5.47923E-01 6.76749E-26
5.52264E-01 6.59484E-26
5.56602E-01 6.42687E-26
5.60935E-01 6.26343E-26
5.65263E-01 6.10440E-26
5.69587E-01 5.94963E-26
5.73905E-01 5.79899E-26
5.78217E-01 5.65237E-26
5.82524E-01 5.50963E-26
5.86824E-01 5.37067E-26
5.91118E-01 5.23537E-26
5.95404E-01 5.10362E-26
5.99684E-01 4.97531E-26
6.03956E-01 4.85035E-26
6.08220E-01 4.72864E-26
6.12476E-01 4.61008E-26
6.16723E-01 4.49457E-26
6.20961E-01 4.38204E-26
6.25190E-01 4.27240E-26
6.29410E-01 4.16555E-26
6.33619E-01 4.06143E-26
6.37819E-01 3.95996E-26
6.42008E-01 3.86105E-26
6.46186E-01 3.76464E-26
6.50353E-01 3.67066E-26
6.54508E-01 3.57903E-26
6.58652E-01 3.48970E-26
6.62784E-01 3.40259E-26
6.66903E-01 3.31765E-26
6.71010E-01 3.23482E-26
6.75104E-01 3.15404E-26
6.79184E-01 3.07525E-26
6.83251E-01 2.99840E-26
6.87303E-01 2.92343E-26
6.91342E-01 2.85030E-26
6.95366E-01 2.77895E-26
6.99375E-01 2.70934E-26
7.03368E-01 2.64142E-26
7.07347E-01 2.57514E-26
7.11309E-01 2.51047E-26
7.15256E-01 2.44735E-26
7.19186E-01 2.38575E-26
7.23099E-01 2.32563E-26
7.26995E-01 2.26695E-26
7.30874E-01 2.20967E-26
7.34736E-01 2.15375E-26
7.38579E-01 2.09916E-26
7.42405E-01 2.04587E-26
7.46212E-01 1.99384E-26
7.50000E-01 1.94304E-26
7.53769E-01 1.89343E-26
7.57519E-01 1.84500E-26
7.61249E-01 1.79770E-26
7.64960E-01 1.75151E-26
7.68650E-01 1.70640E-26
7.72320E-01 1.66234E-26
7.75968E-01 1.61932E-26
7.79596E-01 1.57729E-26
7.83203E-01 1.53624E-26
7.86788E-01 1.49615E-26
7.90351E-01 1.45698E-26
7.93893E-01 1.41872E-26
7.97411E-01 1.38135E-26
8.00908E-01 1.34484E-26
8.04381E-01 1.30917E-26
8.07831E-01 1.27432E-26
8.11257E-01 1.24027E-26
8.14660E-01 1.20701E-26
8.18039E-01 1.17451E-26
8.21394E-01 1.14275E-26
8.24724E-01 1.11173E-26
8.28030E-01 1.08141E-26
8.31310E-01 1.05179E-26
8.34565E-01 1.02285E-26
8.37795E-01 9.94566E-27
8.40999E-01 9.66931E-27
8.44177E-01 9.39929E-27
8.47329E-01 9.13543E-27
8.50455E-01 8.87761E-27
8.53553E-01 8.62568E-27
8.56625E-01 8.37951E-27
8.59670E-01 8.13896E-27
8.62687E-01 7.90392E-27
8.65677E-01 7.67426E-27
8.68639E-01 7.44985E-27
8.71572E-01 7.23059E-27
8.74478E-01 7.01635E-27
8.77355E-01 6.80703E-27
8.80203E-01 6.60253E-27
8.83022E-01 6.40272E-27
8.85812E-01 6.20752E-27
8.88573E-01 6.01683E-27
8.91304E-01 5.83054E-27
8.94005E-01 5.64857E-27
8.96677E-01 5.47081E-27
8.99318E-01 5.29720E-27
9.01928E-01 5.12762E-27
9.04508E-01 4.96201E-27
9.07058E-01 4.80029E-27
9.09576E-01 4.64236E-27
9.12063E-01 4.48816E-27
9.14519E-01 4.33760E-27
9.16943E-01 4.19062E-27
9.19335E-01 4.04714E-27
9.21696E-01 3.90710E-27
9.24024E-01 3.77042E-27
9.26320E-01 3.63704E-27
9.28584E-01 3.50690E-27
9.30815E-01 3.37993E-27
9.33013E-01 3.25607E-27
9.35178E-01 3.13527E-27
9.37310E-01 3.01747E-27
9.39409E-01 2.90260E-27
9.41474E-01 2.79063E-27
9.43505E-01 2.68149E-27
9.45503E-01 2.57513E-27
9.47467E-01 2.47151E-27
9.49397E-01 2.37057E-27
9.51293E-01 2.27228E-27
9.53154E-01 2.17657E-27
9.54981E-01 2.08341E-27
9.56773E-01 1.99277E-27
9.58530E-01 1.90458E-27
9.60252E-01 1.81882E-27
9.61940E-01 1.73544E-27
9.63592E-01 1.65442E-27
9.65209E-01 1.57570E-27
9.66790E-01 1.49925E-27
9.68336E-01 1.42505E-27
9.69846E-01 1.35305E-27
9.71321E-01 1.28322E-27
9.72759E-01 1.21554E-27
9.74162E-01 1.14996E-27
9.75528E-01 1.08647E-27
9.76858E-01 1.02504E-27
9.78152E-01 9.65626E-28
9.79410E-01 9.08216E-28
9.80631E-01 8.52780E-28
9.81815E-01 7.99294E-28
9.82963E-01 7.47733E-28
9.84074E-01 6.98076E-28
9.85148E-01 6.50300E-28
9.86185E-01 6.04384E-28
9.87185E-01 5.60308E-28
9.88148E-01 5.18052E-28
9.89074E-01 4.77598E-28
9.89962E-01 4.38928E-28
9.90814E-01 4.02025E-28
9.91627E-01 3.66873E-28
9.92404E-01 3.33457E-28
9.93143E-01 3.01762E-28
9.93844E-01 2.71774E-28
9.94508E-01 2.43480E-28
9.95134E-01 2.16868E-28
9.95722E-01 1.91926E-28
9.96273E-01 1.68643E-28
9.96786E-01 1.47010E-28
9.97261E-01 1.27016E-28
9.97698E-01 1.08654E-28
9.98097E-01 9.19145E-29
9.98459E-01 7.67913E-29
9.98782E-01 6.32776E-29
9.99067E-01 5.13674E-29
9.99315E-01 4.10556E-29
9.99524E-01 3.23378E-29
9.99695E-01 2.52101E-29
9.99829E-01 1.96696E-29
9.99924E-01 1.57138E-29
9.99981E-01 1.33410E-29
1.00000E+00 1.25502E-29
