 #
 # Subroutine ELSEPA. Elastic scattering of electrons and positrons
 #                    by neutral atoms and positive ions
 #
 # Projectile: electron
 # Kinetic energy = 3.50000E+07 eV = 1.28623E+06 a.u.
 #
 # WARNING: High-energy factorization with free-atom DF screening.
 #          Absorption, polarization and exchange corrections are
 #          switched off.
 #          Phase shifts are calculated for the bare nucleus.
 #          Scattering amplitudes are not evaluated.
 #
 # Element: Sn,  Z =  50,  atomic weight = 1.18710E+02 g/mol
 #
 # Nuclear model: Fermi distribution
 #                Average radius = 5.25871E-13 cm
 #                Skin thickness = 5.46000E-14 cm
 #
 # Number of electrons = 50
 #
 # Total elastic cross section = 5.08849E-18 cm**2 = 1.81713E-01 a0**2
 # 1st transport cross section = 3.86036E-24 cm**2 = 1.37856E-07 a0**2
 # 2nd transport cross section = 1.11919E-23 cm**2 = 3.99671E-07 a0**2
 #
 #
 # Differential cross section:                       MU=(1-COS(THETA))/2
 #
 #  THETA        MU          DCS          DCS        Sherman      error
 #  (deg)                 (cm**2/sr)   (a0**2/sr)    function
 #----------------------------------------------------------------------
0.00000E+00 5.62449E-11
7.61557E-13 5.62259E-11
1.18994E-12 5.62153E-11
1.71346E-12 5.62024E-11
2.33225E-12 5.61871E-11
3.04617E-12 5.61695E-11
3.85530E-12 5.61496E-11
4.75964E-12 5.61273E-11
5.75917E-12 5.61027E-11
6.85391E-12 5.60758E-11
8.04379E-12 5.60465E-11
9.32893E-12 5.60150E-11
1.07092E-11 5.59812E-11
1.21847E-11 5.59451E-11
1.37554E-11 5.59067E-11
1.54213E-11 5.58660E-11
1.71823E-11 5.58230E-11
1.90386E-11 5.57778E-11
2.09900E-11 5.57304E-11
2.30367E-11 5.56807E-11
2.51785E-11 5.56288E-11
2.74156E-11 5.55746E-11
2.97478E-11 5.55182E-11
3.21752E-11 5.54597E-11
3.46979E-11 5.53989E-11
3.73157E-11 5.53360E-11
4.00286E-11 5.52710E-11
4.28368E-11 5.52037E-11
4.57402E-11 5.51344E-11
4.87388E-11 5.50629E-11
5.18325E-11 5.49893E-11
5.50215E-11 5.49137E-11
5.83057E-11 5.48359E-11
6.16850E-11 5.47561E-11
6.51595E-11 5.46742E-11
6.87293E-11 5.45903E-11
7.23943E-11 5.45044E-11
7.61544E-11 5.44166E-11
1.18991E-10 5.34317E-11
1.71347E-10 5.22680E-11
2.33223E-10 5.09414E-11
3.04617E-10 4.94862E-11
3.85531E-10 4.79180E-11
4.75965E-10 4.62586E-11
5.75917E-10 4.45425E-11
6.85389E-10 4.27768E-11
8.04380E-10 4.09887E-11
9.32891E-10 3.92055E-11
1.07092E-09 3.74222E-11
1.21847E-09 3.56693E-11
1.37554E-09 3.39624E-11
1.54213E-09 3.22869E-11
1.71823E-09 3.06741E-11
1.90386E-09 2.91247E-11
2.09900E-09 2.76295E-11
2.30367E-09 2.62074E-11
2.51785E-09 2.48530E-11
2.74156E-09 2.35612E-11
2.97478E-09 2.23420E-11
3.21752E-09 2.11863E-11
3.46978E-09 2.00928E-11
3.73156E-09 1.90654E-11
4.00286E-09 1.80936E-11
4.28368E-09 1.71787E-11
4.57402E-09 1.63209E-11
4.87388E-09 1.55096E-11
5.18326E-09 1.47482E-11
5.50215E-09 1.40346E-11
5.83057E-09 1.33588E-11
6.16850E-09 1.27255E-11
6.51596E-09 1.21307E-11
6.87293E-09 1.15679E-11
7.23942E-09 1.10398E-11
7.61544E-09 1.05424E-11
1.18991E-08 6.85253E-12
1.71347E-08 4.66275E-12
2.33223E-08 3.22891E-12
3.04617E-08 2.33380E-12
3.85531E-08 1.70385E-12
4.75965E-08 1.26083E-12
5.75917E-08 9.52936E-13
6.85389E-08 7.26615E-13
8.04380E-08 5.63403E-13
9.32891E-08 4.44221E-13
1.07092E-07 3.54364E-13
1.21847E-07 2.86965E-13
1.37554E-07 2.35542E-13
1.54213E-07 1.95305E-13
1.71823E-07 1.63788E-13
1.90386E-07 1.38697E-13
2.09900E-07 1.18299E-13
2.30367E-07 1.01707E-13
2.51785E-07 8.80016E-14
2.74156E-07 7.65124E-14
2.97478E-07 6.69020E-14
3.21752E-07 5.87332E-14
3.46978E-07 5.17477E-14
3.73156E-07 4.57866E-14
4.00286E-07 4.06171E-14
4.28368E-07 3.61463E-14
4.57402E-07 3.22765E-14
4.87388E-07 2.88647E-14
5.18325E-07 2.58880E-14
5.50215E-07 2.32841E-14
5.83057E-07 2.09779E-14
6.16850E-07 1.89514E-14
6.51596E-07 1.71613E-14
6.87293E-07 1.55683E-14
7.23942E-07 1.41565E-14
7.61543E-07 1.28986E-14
1.18991E-06 5.61210E-15
1.71347E-06 2.83015E-15
2.33223E-06 1.58346E-15
3.04617E-06 9.55839E-16
3.85531E-06 6.10146E-16
4.75964E-06 4.07324E-16
5.75916E-06 2.81892E-16
6.85388E-06 2.01081E-16
8.04378E-06 1.47200E-16
9.32888E-06 1.10163E-16
1.07092E-05 8.40676E-17
1.21846E-05 6.52564E-17
1.37553E-05 5.14224E-17
1.54212E-05 4.10704E-17
1.71822E-05 3.31982E-17
1.90385E-05 2.71193E-17
2.09899E-05 2.23853E-17
2.30365E-05 1.86397E-17
2.51783E-05 1.56446E-17
2.74153E-05 1.32264E-17
2.97475E-05 1.12573E-17
3.21749E-05 9.64180E-18
3.46974E-05 8.30654E-18
3.73152E-05 7.19544E-18
4.00281E-05 6.26467E-18
4.28362E-05 5.47992E-18
4.57395E-05 4.81438E-18
4.87380E-05 4.24675E-18
5.18317E-05 3.76022E-18
5.50205E-05 3.34131E-18
5.83045E-05 2.97907E-18
6.16838E-05 2.66466E-18
6.51582E-05 2.39071E-18
6.87277E-05 2.15114E-18
7.23925E-05 1.94090E-18
7.61524E-05 1.75602E-18
9.21439E-05 1.20358E-18
1.09658E-04 8.52254E-19
1.28695E-04 6.20321E-19
1.49255E-04 4.62161E-19
1.71338E-04 3.51376E-19
1.94942E-04 2.71886E-19
2.20070E-04 2.13668E-19
2.46720E-04 1.70241E-19
2.74892E-04 1.37312E-19
3.04586E-04 1.11981E-19
3.35803E-04 9.22352E-20
3.68542E-04 7.66610E-20
4.02802E-04 6.42429E-20
4.38585E-04 5.42434E-20
4.75889E-04 4.61187E-20
5.14715E-04 3.94617E-20
5.55063E-04 3.39657E-20
5.96931E-04 2.93956E-20
6.40321E-04 2.55702E-20
6.85233E-04 2.23485E-20
7.31665E-04 1.96196E-20
7.79618E-04 1.72956E-20
8.29092E-04 1.53065E-20
8.80086E-04 1.35960E-20
9.32601E-04 1.21184E-20
9.86636E-04 1.08367E-20
1.04219E-03 9.72045E-21
1.09927E-03 8.74470E-21
1.15786E-03 7.88871E-21
1.21797E-03 7.13522E-21
1.27961E-03 6.46985E-21
1.34276E-03 5.88051E-21
1.40743E-03 5.35697E-21
1.47362E-03 4.89060E-21
1.54133E-03 4.47406E-21
1.61056E-03 4.10109E-21
1.68131E-03 3.76633E-21
1.75357E-03 3.46515E-21
1.82735E-03 3.19360E-21
1.90265E-03 2.94823E-21
1.97947E-03 2.72607E-21
2.05780E-03 2.52452E-21
2.13765E-03 2.34134E-21
2.21902E-03 2.17455E-21
2.30190E-03 2.02240E-21
2.38630E-03 1.88339E-21
2.47222E-03 1.75617E-21
2.55965E-03 1.63956E-21
2.64859E-03 1.53251E-21
2.73905E-03 1.43410E-21
2.83103E-03 1.34349E-21
2.92452E-03 1.25996E-21
3.01952E-03 1.18286E-21
3.11604E-03 1.11159E-21
3.21407E-03 1.04564E-21
3.31362E-03 9.84528E-22
3.41468E-03 9.27839E-22
3.51725E-03 8.75194E-22
3.62133E-03 8.26249E-22
3.72692E-03 7.80694E-22
3.83403E-03 7.38252E-22
3.94265E-03 6.98672E-22
4.05278E-03 6.61723E-22
4.16442E-03 6.27198E-22
4.27757E-03 5.94907E-22
4.39223E-03 5.64679E-22
4.50840E-03 5.36357E-22
4.62608E-03 5.09800E-22
4.74527E-03 4.84875E-22
4.86597E-03 4.61463E-22
4.98817E-03 4.39454E-22
5.11188E-03 4.18751E-22
5.23711E-03 3.99260E-22
5.36383E-03 3.80896E-22
5.49207E-03 3.63582E-22
5.62181E-03 3.47246E-22
5.75306E-03 3.31823E-22
5.88581E-03 3.17252E-22
6.02007E-03 3.03477E-22
6.15583E-03 2.90446E-22
6.29310E-03 2.78111E-22
6.43187E-03 2.66428E-22
6.57214E-03 2.55357E-22
6.71392E-03 2.44857E-22
6.85720E-03 2.34895E-22
7.00198E-03 2.25437E-22
7.14827E-03 2.16455E-22
7.29605E-03 2.07918E-22
7.44534E-03 1.99800E-22
7.59612E-03 1.92076E-22
7.97965E-03 1.74350E-22
8.37255E-03 1.58633E-22
8.77480E-03 1.44658E-22
9.18641E-03 1.32199E-22
9.60736E-03 1.21059E-22
1.00376E-02 1.11076E-22
1.04773E-02 1.02107E-22
1.09262E-02 9.40304E-23
1.13844E-02 8.67414E-23
1.18520E-02 8.01493E-23
1.23288E-02 7.41754E-23
1.28150E-02 6.87508E-23
1.33104E-02 6.38160E-23
1.38150E-02 5.93187E-23
1.43290E-02 5.52127E-23
1.48521E-02 5.14578E-23
1.53845E-02 4.80185E-23
1.59262E-02 4.48633E-23
1.64770E-02 4.19641E-23
1.70371E-02 3.92966E-23
1.76063E-02 3.68386E-23
1.81848E-02 3.45708E-23
1.87724E-02 3.24756E-23
1.93692E-02 3.05375E-23
1.99751E-02 2.87423E-23
2.05901E-02 2.70777E-23
2.12143E-02 2.55324E-23
2.18476E-02 2.40961E-23
2.24900E-02 2.27597E-23
2.31415E-02 2.15150E-23
2.38021E-02 2.03545E-23
2.44717E-02 1.92714E-23
2.51504E-02 1.82595E-23
2.58382E-02 1.73134E-23
2.65349E-02 1.64279E-23
2.72407E-02 1.55983E-23
2.79555E-02 1.48206E-23
2.86793E-02 1.40908E-23
2.94120E-02 1.34054E-23
3.01537E-02 1.27611E-23
3.09043E-02 1.21552E-23
3.16639E-02 1.15848E-23
3.24324E-02 1.10474E-23
3.32098E-02 1.05408E-23
3.39961E-02 1.00629E-23
3.47912E-02 9.61175E-24
3.55952E-02 9.18555E-24
3.64081E-02 8.78267E-24
3.72297E-02 8.40158E-24
3.80602E-02 8.04088E-24
3.88995E-02 7.69928E-24
3.97476E-02 7.37556E-24
4.06044E-02 7.06861E-24
4.14700E-02 6.77739E-24
4.23443E-02 6.50096E-24
4.32273E-02 6.23840E-24
4.41190E-02 5.98889E-24
4.50194E-02 5.75166E-24
4.59284E-02 5.52599E-24
4.68461E-02 5.31120E-24
4.87074E-02 4.91183E-24
5.06030E-02 4.54902E-24
5.25328E-02 4.21882E-24
5.44967E-02 3.91776E-24
5.64946E-02 3.64282E-24
5.85262E-02 3.39131E-24
6.05914E-02 3.16088E-24
6.26901E-02 2.94944E-24
6.48222E-02 2.75515E-24
6.69873E-02 2.57635E-24
6.91854E-02 2.41160E-24
7.14163E-02 2.25959E-24
7.36799E-02 2.11916E-24
7.59760E-02 1.98926E-24
7.83043E-02 1.86897E-24
8.06647E-02 1.75745E-24
8.30571E-02 1.65394E-24
8.54812E-02 1.55776E-24
8.79369E-02 1.46830E-24
9.04240E-02 1.38501E-24
9.29422E-02 1.30739E-24
9.54915E-02 1.23499E-24
9.80716E-02 1.16738E-24
1.00682E-01 1.10420E-24
1.03323E-01 1.04511E-24
1.05995E-01 9.89786E-25
1.08696E-01 9.37956E-25
1.11427E-01 8.89359E-25
1.14188E-01 8.43758E-25
1.16978E-01 8.00935E-25
1.19797E-01 7.60693E-25
1.22645E-01 7.22847E-25
1.25522E-01 6.87232E-25
1.28428E-01 6.53694E-25
1.31361E-01 6.22089E-25
1.34323E-01 5.92289E-25
1.37313E-01 5.64171E-25
1.40330E-01 5.37626E-25
1.43375E-01 5.12550E-25
1.46447E-01 4.88848E-25
1.49545E-01 4.66433E-25
1.52671E-01 4.45223E-25
1.55823E-01 4.25142E-25
1.59001E-01 4.06121E-25
1.62205E-01 3.88093E-25
1.65435E-01 3.71000E-25
1.68690E-01 3.54784E-25
1.71970E-01 3.39393E-25
1.75276E-01 3.24778E-25
1.78606E-01 3.10894E-25
1.81961E-01 2.97699E-25
1.85340E-01 2.85152E-25
1.88743E-01 2.73218E-25
1.92169E-01 2.61861E-25
1.95619E-01 2.51048E-25
1.99092E-01 2.40751E-25
2.02589E-01 2.30940E-25
2.06107E-01 2.21589E-25
2.09649E-01 2.12673E-25
2.13212E-01 2.04169E-25
2.16797E-01 1.96055E-25
2.20404E-01 1.88310E-25
2.24032E-01 1.80914E-25
2.27680E-01 1.73851E-25
2.31350E-01 1.67102E-25
2.35040E-01 1.60652E-25
2.38751E-01 1.54485E-25
2.42481E-01 1.48588E-25
2.46231E-01 1.42946E-25
2.50000E-01 1.37547E-25
2.53788E-01 1.32379E-25
2.57595E-01 1.27431E-25
2.61421E-01 1.22692E-25
2.65264E-01 1.18152E-25
2.69126E-01 1.13801E-25
2.73005E-01 1.09631E-25
2.76901E-01 1.05633E-25
2.80814E-01 1.01799E-25
2.84744E-01 9.81205E-26
2.88691E-01 9.45916E-26
2.92653E-01 9.12049E-26
2.96632E-01 8.79538E-26
3.00625E-01 8.48323E-26
3.04634E-01 8.18345E-26
3.08658E-01 7.89548E-26
3.12697E-01 7.61880E-26
3.16749E-01 7.35292E-26
3.20816E-01 7.09735E-26
3.24896E-01 6.85164E-26
3.28990E-01 6.61537E-26
3.33097E-01 6.38813E-26
3.37216E-01 6.16953E-26
3.41348E-01 5.95920E-26
3.45492E-01 5.75679E-26
3.49647E-01 5.56196E-26
3.53814E-01 5.37440E-26
3.57992E-01 5.19381E-26
3.62181E-01 5.01989E-26
3.66381E-01 4.85237E-26
3.70590E-01 4.69098E-26
3.74810E-01 4.53548E-26
3.79039E-01 4.38563E-26
3.83277E-01 4.24119E-26
3.87524E-01 4.10196E-26
3.91780E-01 3.96771E-26
3.96044E-01 3.83826E-26
4.00316E-01 3.71340E-26
4.04596E-01 3.59297E-26
4.08882E-01 3.47679E-26
4.13176E-01 3.36468E-26
4.17476E-01 3.25650E-26
4.21783E-01 3.15209E-26
4.26095E-01 3.05131E-26
4.30413E-01 2.95401E-26
4.34737E-01 2.86006E-26
4.39065E-01 2.76934E-26
4.43398E-01 2.68172E-26
4.47736E-01 2.59709E-26
4.52077E-01 2.51533E-26
4.56422E-01 2.43635E-26
4.60770E-01 2.36002E-26
4.65122E-01 2.28626E-26
4.69476E-01 2.21497E-26
4.73832E-01 2.14606E-26
4.78190E-01 2.07945E-26
4.82550E-01 2.01504E-26
4.86912E-01 1.95276E-26
4.91274E-01 1.89254E-26
4.95637E-01 1.83429E-26
5.00000E-01 1.77795E-26
5.04363E-01 1.72345E-26
5.08726E-01 1.67073E-26
5.13088E-01 1.61971E-26
5.17450E-01 1.57035E-26
5.21810E-01 1.52257E-26
5.26168E-01 1.47634E-26
5.30524E-01 1.43158E-26
5.34878E-01 1.38826E-26
5.39230E-01 1.34632E-26
5.43578E-01 1.30571E-26
5.47923E-01 1.26639E-26
5.52264E-01 1.22831E-26
5.56602E-01 1.19144E-26
5.60935E-01 1.15572E-26
5.65263E-01 1.12112E-26
5.69587E-01 1.08761E-26
5.73905E-01 1.05514E-26
5.78217E-01 1.02368E-26
5.82524E-01 9.93201E-27
5.86824E-01 9.63664E-27
5.91118E-01 9.35039E-27
5.95404E-01 9.07296E-27
5.99684E-01 8.80405E-27
6.03956E-01 8.54340E-27
6.08220E-01 8.29071E-27
6.12476E-01 8.04574E-27
6.16723E-01 7.80823E-27
6.20961E-01 7.57793E-27
6.25190E-01 7.35461E-27
6.29410E-01 7.13804E-27
6.33619E-01 6.92801E-27
6.37819E-01 6.72430E-27
6.42008E-01 6.52670E-27
6.46186E-01 6.33503E-27
6.50353E-01 6.14910E-27
6.54508E-01 5.96871E-27
6.58652E-01 5.79369E-27
6.62784E-01 5.62388E-27
6.66903E-01 5.45910E-27
6.71010E-01 5.29920E-27
6.75104E-01 5.14402E-27
6.79184E-01 4.99342E-27
6.83251E-01 4.84725E-27
6.87303E-01 4.70537E-27
6.91342E-01 4.56765E-27
6.95366E-01 4.43395E-27
6.99375E-01 4.30416E-27
7.03368E-01 4.17815E-27
7.07347E-01 4.05581E-27
7.11309E-01 3.93702E-27
7.15256E-01 3.82167E-27
7.19186E-01 3.70966E-27
7.23099E-01 3.60088E-27
7.26995E-01 3.49524E-27
7.30874E-01 3.39264E-27
7.34736E-01 3.29299E-27
7.38579E-01 3.19620E-27
7.42405E-01 3.10217E-27
7.46212E-01 3.01084E-27
7.50000E-01 2.92211E-27
7.53769E-01 2.83591E-27
7.57519E-01 2.75216E-27
7.61249E-01 2.67080E-27
7.64960E-01 2.59174E-27
7.68650E-01 2.51492E-27
7.72320E-01 2.44027E-27
7.75968E-01 2.36773E-27
7.79596E-01 2.29724E-27
7.83203E-01 2.22873E-27
7.86788E-01 2.16215E-27
7.90351E-01 2.09743E-27
7.93893E-01 2.03454E-27
7.97411E-01 1.97340E-27
8.00908E-01 1.91398E-27
8.04381E-01 1.85622E-27
8.07831E-01 1.80007E-27
8.11257E-01 1.74548E-27
8.14660E-01 1.69242E-27
8.18039E-01 1.64083E-27
8.21394E-01 1.59068E-27
8.24724E-01 1.54192E-27
8.28030E-01 1.49451E-27
8.31310E-01 1.44842E-27
8.34565E-01 1.40360E-27
8.37795E-01 1.36002E-27
8.40999E-01 1.31765E-27
8.44177E-01 1.27645E-27
8.47329E-01 1.23638E-27
8.50455E-01 1.19742E-27
8.53553E-01 1.15954E-27
8.56625E-01 1.12270E-27
8.59670E-01 1.08688E-27
8.62687E-01 1.05204E-27
8.65677E-01 1.01816E-27
8.68639E-01 9.85219E-28
8.71572E-01 9.53181E-28
8.74478E-01 9.22025E-28
8.77355E-01 8.91727E-28
8.80203E-01 8.62263E-28
8.83022E-01 8.33611E-28
8.85812E-01 8.05747E-28
8.88573E-01 7.78652E-28
8.91304E-01 7.52304E-28
8.94005E-01 7.26682E-28
8.96677E-01 7.01768E-28
8.99318E-01 6.77542E-28
9.01928E-01 6.53987E-28
9.04508E-01 6.31083E-28
9.07058E-01 6.08815E-28
9.09576E-01 5.87164E-28
9.12063E-01 5.66116E-28
9.14519E-01 5.45653E-28
9.16943E-01 5.25762E-28
9.19335E-01 5.06426E-28
9.21696E-01 4.87632E-28
9.24024E-01 4.69366E-28
9.26320E-01 4.51615E-28
9.28584E-01 4.34364E-28
9.30815E-01 4.17603E-28
9.33013E-01 4.01317E-28
9.35178E-01 3.85496E-28
9.37310E-01 3.70128E-28
9.39409E-01 3.55201E-28
9.41474E-01 3.40705E-28
9.43505E-01 3.26629E-28
9.45503E-01 3.12964E-28
9.47467E-01 2.99699E-28
9.49397E-01 2.86824E-28
9.51293E-01 2.74331E-28
9.53154E-01 2.62211E-28
9.54981E-01 2.50455E-28
9.56773E-01 2.39054E-28
9.58530E-01 2.28000E-28
9.60252E-01 2.17287E-28
9.61940E-01 2.06905E-28
9.63592E-01 1.96848E-28
9.65209E-01 1.87108E-28
9.66790E-01 1.77679E-28
9.68336E-01 1.68554E-28
9.69846E-01 1.59727E-28
9.71321E-01 1.51191E-28
9.72759E-01 1.42941E-28
9.74162E-01 1.34971E-28
9.75528E-01 1.27275E-28
9.76858E-01 1.19847E-28
9.78152E-01 1.12684E-28
9.79410E-01 1.05779E-28
9.80631E-01 9.91284E-29
9.81815E-01 9.27271E-29
9.82963E-01 8.65707E-29
9.84074E-01 8.06551E-29
9.85148E-01 7.49763E-29
9.86185E-01 6.95302E-29
9.87185E-01 6.43131E-29
9.88148E-01 5.93215E-29
9.89074E-01 5.45521E-29
9.89962E-01 5.00014E-29
9.90814E-01 4.56664E-29
9.91627E-01 4.15442E-29
9.92404E-01 3.76320E-29
9.93143E-01 3.39271E-29
9.93844E-01 3.04269E-29
9.94508E-01 2.71291E-29
9.95134E-01 2.40315E-29
9.95722E-01 2.11320E-29
9.96273E-01 1.84286E-29
9.96786E-01 1.59195E-29
9.97261E-01 1.36030E-29
9.97698E-01 1.14775E-29
9.98097E-01 9.54154E-30
9.98459E-01 7.79390E-30
9.98782E-01 6.23337E-30
9.99067E-01 4.85889E-30
9.99315E-01 3.66954E-30
9.99524E-01 2.66452E-30
9.99695E-01 1.84315E-30
9.99829E-01 1.20488E-30
9.99924E-01 7.49281E-31
9.99981E-01 4.76042E-31
1.00000E+00 3.84988E-31
