 #
 # Subroutine ELSEPA. Elastic scattering of electrons and positrons
 #                    by neutral atoms and positive ions
 #
 # Projectile: electron
 # Kinetic energy = 3.00000E+08 eV = 1.10248E+07 a.u.
 #
 # WARNING: High-energy factorization with free-atom DF screening.
 #          Absorption, polarization and exchange corrections are
 #          switched off.
 #          Phase shifts are calculated for the bare nucleus.
 #          Scattering amplitudes are not evaluated.
 #
 # Element: Sn,  Z =  50,  atomic weight = 1.18710E+02 g/mol
 #
 # Nuclear model: Fermi distribution
 #                Average radius = 5.25871E-13 cm
 #                Skin thickness = 5.46000E-14 cm
 #
 # Number of electrons = 50
 #
 # Total elastic cross section = 5.08699E-18 cm**2 = 1.81660E-01 a0**2
 # 1st transport cross section = 5.45729E-26 cm**2 = 1.94884E-09 a0**2
 # 2nd transport cross section = 1.63544E-25 cm**2 = 5.84027E-09 a0**2
 #
 #
 # Differential cross section:                       MU=(1-COS(THETA))/2
 #
 #  THETA        MU          DCS          DCS        Sherman      error
 #  (deg)                 (cm**2/sr)   (a0**2/sr)    function
 #----------------------------------------------------------------------
0.00000E+00 4.02790E-09
7.61557E-13 3.93334E-09
1.18994E-12 3.88181E-09
1.71346E-12 3.82035E-09
2.33225E-12 3.74978E-09
3.04617E-12 3.67070E-09
3.85530E-12 3.58499E-09
4.75964E-12 3.49250E-09
5.75917E-12 3.39564E-09
6.85391E-12 3.29374E-09
8.04379E-12 3.18950E-09
9.32893E-12 3.08248E-09
1.07092E-11 2.97457E-09
1.21847E-11 2.86602E-09
1.37554E-11 2.75766E-09
1.54213E-11 2.65053E-09
1.71823E-11 2.54434E-09
1.90386E-11 2.44089E-09
2.09900E-11 2.33885E-09
2.30367E-11 2.24048E-09
2.51785E-11 2.14418E-09
2.74156E-11 2.05173E-09
2.97478E-11 1.96217E-09
3.21752E-11 1.87628E-09
3.46979E-11 1.79380E-09
3.73157E-11 1.71470E-09
4.00286E-11 1.63931E-09
4.28368E-11 1.56696E-09
4.57402E-11 1.49844E-09
4.87388E-11 1.43260E-09
5.18325E-11 1.37042E-09
5.50215E-11 1.31088E-09
5.83057E-11 1.25457E-09
6.16850E-11 1.20091E-09
6.51595E-11 1.15002E-09
6.87293E-11 1.10171E-09
7.23943E-11 1.05575E-09
7.61544E-11 1.01228E-09
1.18991E-10 6.79849E-10
1.71347E-10 4.75528E-10
2.33223E-10 3.43313E-10
3.04617E-10 2.50350E-10
3.85531E-10 1.89891E-10
4.75965E-10 1.43535E-10
5.75917E-10 1.11574E-10
6.85389E-10 8.62862E-11
8.04380E-10 6.81862E-11
9.32891E-10 5.41027E-11
1.07092E-09 4.35611E-11
1.21847E-09 3.53884E-11
1.37554E-09 2.90695E-11
1.54213E-09 2.41307E-11
1.71823E-09 2.02106E-11
1.90386E-09 1.71009E-11
2.09900E-09 1.45727E-11
2.30367E-09 1.25305E-11
2.51785E-09 1.08371E-11
2.74156E-09 9.44062E-12
2.97478E-09 8.26560E-12
3.21752E-09 7.27614E-12
3.46978E-09 6.43385E-12
3.73156E-09 5.71089E-12
4.00286E-09 5.09036E-12
4.28368E-09 4.54850E-12
4.57402E-09 4.08092E-12
4.87388E-09 3.66645E-12
5.18326E-09 3.30625E-12
5.50215E-09 2.98543E-12
5.83057E-09 2.70370E-12
6.16850E-09 2.45277E-12
6.51596E-09 2.22959E-12
6.87293E-09 2.03016E-12
7.23942E-09 1.85162E-12
7.61544E-09 1.69234E-12
1.18991E-08 7.49473E-13
1.71347E-08 3.78949E-13
2.33223E-08 2.12393E-13
3.04617E-08 1.28484E-13
3.85531E-08 8.23243E-14
4.75965E-08 5.51792E-14
5.75917E-08 3.83444E-14
6.85389E-08 2.74374E-14
8.04380E-08 2.01379E-14
9.32891E-08 1.51032E-14
1.07092E-07 1.15422E-14
1.21847E-07 8.96979E-15
1.37554E-07 7.07381E-15
1.54213E-07 5.65284E-15
1.71823E-07 4.57136E-15
1.90386E-07 3.73628E-15
2.09900E-07 3.08361E-15
2.30367E-07 2.56750E-15
2.51785E-07 2.15503E-15
2.74156E-07 1.82226E-15
2.97478E-07 1.55135E-15
3.21752E-07 1.32901E-15
3.46978E-07 1.14516E-15
3.73156E-07 9.92047E-16
4.00286E-07 8.63716E-16
4.28368E-07 7.55500E-16
4.57402E-07 6.63717E-16
4.87388E-07 5.85471E-16
5.18325E-07 5.18427E-16
5.50215E-07 4.60713E-16
5.83057E-07 4.10817E-16
6.16850E-07 3.67494E-16
6.51596E-07 3.29736E-16
6.87293E-07 2.96707E-16
7.23942E-07 2.67709E-16
7.61543E-07 2.42169E-16
1.18991E-06 9.99531E-17
1.71347E-06 4.84283E-17
2.33223E-06 2.62189E-17
3.04617E-06 1.54001E-17
3.85531E-06 9.62802E-18
4.75964E-06 6.32367E-18
5.75916E-06 4.32269E-18
6.85388E-06 3.05411E-18
8.04378E-06 2.21856E-18
9.32888E-06 1.65018E-18
1.07092E-05 1.25271E-18
1.21846E-05 9.68034E-19
1.37553E-05 7.59825E-19
1.54212E-05 6.04710E-19
1.71822E-05 4.87237E-19
1.90385E-05 3.96851E-19
2.09899E-05 3.26681E-19
2.30365E-05 2.71337E-19
2.51783E-05 2.27202E-19
2.74153E-05 1.91661E-19
2.97475E-05 1.62793E-19
3.21749E-05 1.39162E-19
3.46974E-05 1.19675E-19
3.73152E-05 1.03492E-19
4.00281E-05 8.99619E-20
4.28362E-05 7.85766E-20
4.57395E-05 6.89372E-20
4.87380E-05 6.07301E-20
5.18317E-05 5.37068E-20
5.50205E-05 4.76685E-20
5.83045E-05 4.24552E-20
6.16838E-05 3.79359E-20
6.51582E-05 3.40035E-20
6.87277E-05 3.05688E-20
7.23925E-05 2.75580E-20
7.61524E-05 2.49846E-20
9.21439E-05 1.70815E-20
1.09658E-04 1.20710E-20
1.28695E-04 8.77149E-21
1.49255E-04 6.52592E-21
1.71338E-04 4.95550E-21
1.94942E-04 3.83018E-21
2.20070E-04 3.00686E-21
2.46720E-04 2.39325E-21
2.74892E-04 1.92832E-21
3.04586E-04 1.57092E-21
3.35803E-04 1.29248E-21
3.68542E-04 1.07299E-21
4.02802E-04 8.98073E-22
4.38585E-04 7.57293E-22
4.75889E-04 6.42966E-22
5.14715E-04 5.49338E-22
5.55063E-04 4.72079E-22
5.96931E-04 4.07870E-22
6.40321E-04 3.54155E-22
6.85233E-04 3.08944E-22
7.31665E-04 2.70672E-22
7.79618E-04 2.38102E-22
8.29092E-04 2.10245E-22
8.80086E-04 1.86308E-22
9.32601E-04 1.65647E-22
9.86636E-04 1.47741E-22
1.04219E-03 1.32162E-22
1.09927E-03 1.18556E-22
1.15786E-03 1.06632E-22
1.21797E-03 9.61485E-23
1.27961E-03 8.69014E-23
1.34276E-03 7.87207E-23
1.40743E-03 7.14628E-23
1.47362E-03 6.50063E-23
1.54133E-03 5.92479E-23
1.61056E-03 5.40994E-23
1.68131E-03 4.94854E-23
1.75357E-03 4.53412E-23
1.82735E-03 4.16109E-23
1.90265E-03 3.82462E-23
1.97947E-03 3.52054E-23
2.05780E-03 3.24520E-23
2.13765E-03 2.99544E-23
2.21902E-03 2.76849E-23
2.30190E-03 2.56192E-23
2.38630E-03 2.37359E-23
2.47222E-03 2.20163E-23
2.55965E-03 2.04438E-23
2.64859E-03 1.90038E-23
2.73905E-03 1.76832E-23
2.83103E-03 1.64706E-23
2.92452E-03 1.53557E-23
3.01952E-03 1.43293E-23
3.11604E-03 1.33833E-23
3.21407E-03 1.25104E-23
3.31362E-03 1.17040E-23
3.41468E-03 1.09582E-23
3.51725E-03 1.02678E-23
3.62133E-03 9.62794E-24
3.72692E-03 9.03441E-24
3.83403E-03 8.48332E-24
3.94265E-03 7.97115E-24
4.05278E-03 7.49473E-24
4.16442E-03 7.05117E-24
4.27757E-03 6.63787E-24
4.39223E-03 6.25244E-24
4.50840E-03 5.89272E-24
4.62608E-03 5.55674E-24
4.74527E-03 5.24269E-24
4.86597E-03 4.94893E-24
4.98817E-03 4.67396E-24
5.11188E-03 4.41640E-24
5.23711E-03 4.17498E-24
5.36383E-03 3.94855E-24
5.49207E-03 3.73604E-24
5.62181E-03 3.53648E-24
5.75306E-03 3.34896E-24
5.88581E-03 3.17266E-24
6.02007E-03 3.00681E-24
6.15583E-03 2.85070E-24
6.29310E-03 2.70369E-24
6.43187E-03 2.56518E-24
6.57214E-03 2.43460E-24
6.71392E-03 2.31144E-24
6.85720E-03 2.19522E-24
7.00198E-03 2.08551E-24
7.14827E-03 1.98189E-24
7.29605E-03 1.88397E-24
7.44534E-03 1.79141E-24
7.59612E-03 1.70388E-24
7.97965E-03 1.50506E-24
8.37255E-03 1.33155E-24
8.77480E-03 1.17976E-24
9.18641E-03 1.04669E-24
9.60736E-03 9.29807E-25
1.00376E-02 8.26934E-25
1.04773E-02 7.36235E-25
1.09262E-02 6.56135E-25
1.13844E-02 5.85285E-25
1.18520E-02 5.22524E-25
1.23288E-02 4.66853E-25
1.28150E-02 4.17406E-25
1.33104E-02 3.73436E-25
1.38150E-02 3.34292E-25
1.43290E-02 2.99407E-25
1.48521E-02 2.68289E-25
1.53845E-02 2.40504E-25
1.59262E-02 2.15676E-25
1.64770E-02 1.93472E-25
1.70371E-02 1.73601E-25
1.76063E-02 1.55806E-25
1.81848E-02 1.39860E-25
1.87724E-02 1.25565E-25
1.93692E-02 1.12742E-25
1.99751E-02 1.01235E-25
2.05901E-02 9.09041E-26
2.12143E-02 8.16270E-26
2.18476E-02 7.32933E-26
2.24900E-02 6.58052E-26
2.31415E-02 5.90754E-26
2.38021E-02 5.30263E-26
2.44717E-02 4.75882E-26
2.51504E-02 4.26991E-26
2.58382E-02 3.83034E-26
2.65349E-02 3.43512E-26
2.72407E-02 3.07981E-26
2.79555E-02 2.76038E-26
2.86793E-02 2.47326E-26
2.94120E-02 2.21521E-26
3.01537E-02 1.98334E-26
3.09043E-02 1.77503E-26
3.16639E-02 1.58795E-26
3.24324E-02 1.41997E-26
3.32098E-02 1.26921E-26
3.39961E-02 1.13394E-26
3.47912E-02 1.01263E-26
3.55952E-02 9.03880E-27
3.64081E-02 8.06439E-27
3.72297E-02 7.19177E-27
3.80602E-02 6.41073E-27
3.88995E-02 5.71208E-27
3.97476E-02 5.08751E-27
4.06044E-02 4.52953E-27
4.14700E-02 4.03140E-27
4.23443E-02 3.58701E-27
4.32273E-02 3.19087E-27
4.41190E-02 2.83802E-27
4.50194E-02 2.52399E-27
4.59284E-02 2.24475E-27
4.68461E-02 1.99665E-27
4.87074E-02 1.58113E-27
5.06030E-02 1.25494E-27
5.25328E-02 9.99862E-28
5.44967E-02 8.01159E-28
5.64946E-02 6.46946E-28
5.85262E-02 5.27663E-28
6.05914E-02 4.35650E-28
6.26901E-02 3.64788E-28
6.48222E-02 3.10216E-28
6.69873E-02 2.68092E-28
6.91854E-02 2.35394E-28
7.14163E-02 2.09766E-28
7.36799E-02 1.89385E-28
7.59760E-02 1.72854E-28
7.83043E-02 1.59111E-28
8.06647E-02 1.47366E-28
8.30571E-02 1.37035E-28
8.54812E-02 1.27699E-28
8.79369E-02 1.19064E-28
9.04240E-02 1.10928E-28
9.29422E-02 1.03165E-28
9.54915E-02 9.56980E-29
9.80716E-02 8.84868E-29
1.00682E-01 8.15179E-29
1.03323E-01 7.47940E-29
1.05995E-01 6.83278E-29
1.08696E-01 6.21369E-29
1.11427E-01 5.62403E-29
1.14188E-01 5.06556E-29
1.16978E-01 4.53979E-29
1.19797E-01 4.04784E-29
1.22645E-01 3.59041E-29
1.25522E-01 3.16774E-29
1.28428E-01 2.77967E-29
1.31361E-01 2.42562E-29
1.34323E-01 2.10467E-29
1.37313E-01 1.81559E-29
1.40330E-01 1.55692E-29
1.43375E-01 1.32698E-29
1.46447E-01 1.12396E-29
1.49545E-01 9.45955E-30
1.52671E-01 7.90993E-30
1.55823E-01 6.57099E-30
1.59001E-01 5.42315E-30
1.62205E-01 4.44727E-30
1.65435E-01 3.62491E-30
1.68690E-01 2.93853E-30
1.71970E-01 2.37159E-30
1.75276E-01 1.90865E-30
1.78606E-01 1.53548E-30
1.81961E-01 1.23902E-30
1.85340E-01 1.00747E-30
1.88743E-01 8.30190E-31
1.92169E-01 6.97720E-31
1.95619E-01 6.01710E-31
1.99092E-01 5.34863E-31
2.02589E-01 4.90867E-31
2.06107E-01 4.64319E-31
2.09649E-01 4.50651E-31
2.13212E-01 4.46050E-31
2.16797E-01 4.47383E-31
2.20404E-01 4.52117E-31
2.24032E-01 4.58251E-31
2.27680E-01 4.64245E-31
2.31350E-01 4.68956E-31
2.35040E-01 4.71577E-31
2.38751E-01 4.71583E-31
2.42481E-01 4.68685E-31
2.46231E-01 4.62778E-31
2.50000E-01 4.53908E-31
2.53788E-01 4.42237E-31
2.57595E-01 4.28008E-31
2.61421E-01 4.11525E-31
2.65264E-01 3.93129E-31
2.69126E-01 3.73177E-31
2.73005E-01 3.52033E-31
2.76901E-01 3.30053E-31
2.80814E-01 3.07575E-31
2.84744E-01 2.84915E-31
2.88691E-01 2.62359E-31
2.92653E-01 2.40161E-31
2.96632E-01 2.18544E-31
3.00625E-01 1.97696E-31
3.04634E-01 1.77771E-31
3.08658E-01 1.58890E-31
3.12697E-01 1.41148E-31
3.16749E-01 1.24607E-31
3.20816E-01 1.09305E-31
3.24896E-01 9.52593E-32
3.28990E-01 8.24642E-32
3.33097E-01 7.08983E-32
3.37216E-01 6.05252E-32
3.41348E-01 5.12965E-32
3.45492E-01 4.31546E-32
3.49647E-01 3.60344E-32
3.53814E-01 2.98657E-32
3.57992E-01 2.45751E-32
3.62181E-01 2.00875E-32
3.66381E-01 1.63275E-32
3.70590E-01 1.32210E-32
3.74810E-01 1.06955E-32
3.79039E-01 8.68177E-33
3.83277E-01 7.11378E-33
3.87524E-01 5.92967E-33
3.91780E-01 5.07195E-33
3.96044E-01 4.48768E-33
4.00316E-01 4.12867E-33
4.04596E-01 3.95144E-33
4.08882E-01 3.91721E-33
4.13176E-01 3.99171E-33
4.17476E-01 4.14503E-33
4.21783E-01 4.35142E-33
4.26095E-01 4.58895E-33
4.30413E-01 4.83930E-33
4.34737E-01 5.08744E-33
4.39065E-01 5.32131E-33
4.43398E-01 5.53155E-33
4.47736E-01 5.71115E-33
4.52077E-01 5.85521E-33
4.56422E-01 5.96064E-33
4.60770E-01 6.02589E-33
4.65122E-01 6.05072E-33
4.69476E-01 6.03597E-33
4.73832E-01 5.98333E-33
4.78190E-01 5.89520E-33
4.82550E-01 5.77448E-33
4.86912E-01 5.62442E-33
4.91274E-01 5.44853E-33
4.95637E-01 5.25043E-33
5.00000E-01 5.03378E-33
5.04363E-01 4.80218E-33
5.08726E-01 4.55910E-33
5.13088E-01 4.30787E-33
5.17450E-01 4.05159E-33
5.21810E-01 3.79314E-33
5.26168E-01 3.53512E-33
5.30524E-01 3.27988E-33
5.34878E-01 3.02948E-33
5.39230E-01 2.78571E-33
5.43578E-01 2.55010E-33
5.47923E-01 2.32390E-33
5.52264E-01 2.10813E-33
5.56602E-01 1.90357E-33
5.60935E-01 1.71080E-33
5.65263E-01 1.53019E-33
5.69587E-01 1.36193E-33
5.73905E-01 1.20606E-33
5.78217E-01 1.06248E-33
5.82524E-01 9.30976E-34
5.86824E-01 8.11211E-34
5.91118E-01 7.02779E-34
5.95404E-01 6.05200E-34
5.99684E-01 5.17938E-34
6.03956E-01 4.40416E-34
6.08220E-01 3.72027E-34
6.12476E-01 3.12147E-34
6.16723E-01 2.60142E-34
6.20961E-01 2.15380E-34
6.25190E-01 1.77237E-34
6.29410E-01 1.45101E-34
6.33619E-01 1.18381E-34
6.37819E-01 9.65093E-35
6.42008E-01 7.89450E-35
6.46186E-01 6.51774E-35
6.50353E-01 5.47271E-35
6.54508E-01 4.71478E-35
6.58652E-01 4.20261E-35
6.62784E-01 3.89827E-35
6.66903E-01 3.76712E-35
6.71010E-01 3.77778E-35
6.75104E-01 3.90203E-35
6.79184E-01 4.11468E-35
6.83251E-01 4.39344E-35
6.87303E-01 4.71874E-35
6.91342E-01 5.07355E-35
6.95366E-01 5.44327E-35
6.99375E-01 5.81547E-35
7.03368E-01 6.17976E-35
7.07347E-01 6.52760E-35
7.11309E-01 6.85209E-35
7.15256E-01 7.14786E-35
7.19186E-01 7.41087E-35
7.23099E-01 7.63826E-35
7.26995E-01 7.82819E-35
7.30874E-01 7.97974E-35
7.34736E-01 8.09276E-35
7.38579E-01 8.16772E-35
7.42405E-01 8.20566E-35
7.46212E-01 8.20806E-35
7.50000E-01 8.17674E-35
7.53769E-01 8.11382E-35
7.57519E-01 8.02160E-35
7.61249E-01 7.90253E-35
7.64960E-01 7.75914E-35
7.68650E-01 7.59400E-35
7.72320E-01 7.40968E-35
7.75968E-01 7.20871E-35
7.79596E-01 6.99356E-35
7.83203E-01 6.76658E-35
7.86788E-01 6.53006E-35
7.90351E-01 6.28612E-35
7.93893E-01 6.03677E-35
7.97411E-01 5.78388E-35
8.00908E-01 5.52916E-35
8.04381E-01 5.27418E-35
8.07831E-01 5.02036E-35
8.11257E-01 4.76899E-35
8.14660E-01 4.52119E-35
8.18039E-01 4.27796E-35
8.21394E-01 4.04017E-35
8.24724E-01 3.80856E-35
8.28030E-01 3.58375E-35
8.31310E-01 3.36626E-35
8.34565E-01 3.15650E-35
8.37795E-01 2.95477E-35
8.40999E-01 2.76133E-35
8.44177E-01 2.57631E-35
8.47329E-01 2.39981E-35
8.50455E-01 2.23183E-35
8.53553E-01 2.07234E-35
8.56625E-01 1.92125E-35
8.59670E-01 1.77844E-35
8.62687E-01 1.64373E-35
8.65677E-01 1.51693E-35
8.68639E-01 1.39780E-35
8.71572E-01 1.28610E-35
8.74478E-01 1.18157E-35
8.77355E-01 1.08392E-35
8.80203E-01 9.92870E-36
8.83022E-01 9.08123E-36
8.85812E-01 8.29381E-36
8.88573E-01 7.56343E-36
8.91304E-01 6.88713E-36
8.94005E-01 6.26195E-36
8.96677E-01 5.68497E-36
8.99318E-01 5.15337E-36
9.01928E-01 4.66437E-36
9.04508E-01 4.21530E-36
9.07058E-01 3.80356E-36
9.09576E-01 3.42666E-36
9.12063E-01 3.08221E-36
9.14519E-01 2.76793E-36
9.16943E-01 2.48164E-36
9.19335E-01 2.22128E-36
9.21696E-01 1.98488E-36
9.24024E-01 1.77060E-36
9.26320E-01 1.57670E-36
9.28584E-01 1.40152E-36
9.30815E-01 1.24355E-36
9.33013E-01 1.10134E-36
9.35178E-01 9.73531E-37
9.37310E-01 8.58893E-37
9.39409E-01 7.56246E-37
9.41474E-01 6.64518E-37
9.43505E-01 5.82702E-37
9.45503E-01 5.09873E-37
9.47467E-01 4.45177E-37
9.49397E-01 3.87826E-37
9.51293E-01 3.37097E-37
9.53154E-01 2.92326E-37
9.54981E-01 2.52904E-37
9.56773E-01 2.18275E-37
9.58530E-01 1.87932E-37
9.60252E-01 1.61414E-37
9.61940E-01 1.38299E-37
9.63592E-01 1.18207E-37
9.65209E-01 1.00793E-37
9.66790E-01 8.57443E-38
9.68336E-01 7.27814E-38
9.69846E-01 6.16506E-38
9.71321E-01 5.21248E-38
9.72759E-01 4.40011E-38
9.74162E-01 3.70975E-38
9.75528E-01 3.12526E-38
9.76858E-01 2.63224E-38
9.78152E-01 2.21792E-38
9.79410E-01 1.87108E-38
9.80631E-01 1.58175E-38
9.81815E-01 1.34124E-38
9.82963E-01 1.14194E-38
9.84074E-01 9.77217E-39
9.85148E-01 8.41360E-39
9.86185E-01 7.29268E-39
9.87185E-01 6.36789E-39
9.88148E-01 5.60307E-39
9.89074E-01 4.96661E-39
9.89962E-01 4.43345E-39
9.90814E-01 3.98098E-39
9.91627E-01 3.59223E-39
9.92404E-01 3.25234E-39
9.93143E-01 2.94927E-39
9.93844E-01 2.67466E-39
9.94508E-01 2.42112E-39
9.95134E-01 2.18376E-39
9.95722E-01 1.95879E-39
9.96273E-01 1.74417E-39
9.96786E-01 1.53795E-39
9.97261E-01 1.34036E-39
9.97698E-01 1.15137E-39
9.98097E-01 9.71947E-40
9.98459E-01 8.02813E-40
9.98782E-01 6.46269E-40
9.99067E-01 5.02946E-40
9.99315E-01 3.75357E-40
9.99524E-01 2.64013E-40
9.99695E-01 1.71009E-40
9.99829E-01 9.71673E-41
9.99924E-01 4.37332E-41
9.99981E-01 1.12641E-41
1.00000E+00 1.14501E-42
