 #
 # Subroutine ELSEPA. Elastic scattering of electrons and positrons
 #                    by neutral atoms and positive ions
 #
 # Projectile: electron
 # Kinetic energy = 4.00000E+08 eV = 1.46997E+07 a.u.
 #
 # WARNING: High-energy factorization with free-atom DF screening.
 #          Absorption, polarization and exchange corrections are
 #          switched off.
 #          Phase shifts are calculated for the bare nucleus.
 #          Scattering amplitudes are not evaluated.
 #
 # Element: Dy,  Z =  66,  atomic weight = 1.62500E+02 g/mol
 #
 # Nuclear model: Fermi distribution
 #                Average radius = 5.83895E-13 cm
 #                Skin thickness = 5.46000E-14 cm
 #
 # Number of electrons = 66
 #
 # Total elastic cross section = 7.11125E-18 cm**2 = 2.53947E-01 a0**2
 # 1st transport cross section = 5.21810E-26 cm**2 = 1.86342E-09 a0**2
 # 2nd transport cross section = 1.56451E-25 cm**2 = 5.58697E-09 a0**2
 #
 #
 # Differential cross section:                       MU=(1-COS(THETA))/2
 #
 #  THETA        MU          DCS          DCS        Sherman      error
 #  (deg)                 (cm**2/sr)   (a0**2/sr)    function
 #----------------------------------------------------------------------
0.00000E+00 1.25728E-08
7.61557E-13 1.16825E-08
1.18994E-12 1.12276E-08
1.71346E-12 1.07129E-08
2.33225E-12 1.01527E-08
3.04617E-12 9.56813E-09
3.85530E-12 8.97499E-09
4.75964E-12 8.38459E-09
5.75917E-12 7.80776E-09
6.85391E-12 7.25841E-09
8.04379E-12 6.73777E-09
9.32893E-12 6.24888E-09
1.07092E-11 5.79494E-09
1.21847E-11 5.37918E-09
1.37554E-11 4.99673E-09
1.54213E-11 4.64649E-09
1.71823E-11 4.32834E-09
1.90386E-11 4.03951E-09
2.09900E-11 3.77622E-09
2.30367E-11 3.53643E-09
2.51785E-11 3.31901E-09
2.74156E-11 3.12059E-09
2.97478E-11 2.93913E-09
3.21752E-11 2.77305E-09
3.46979E-11 2.62079E-09
3.73157E-11 2.48055E-09
4.00286E-11 2.35119E-09
4.28368E-11 2.23152E-09
4.57402E-11 2.12031E-09
4.87388E-11 2.01692E-09
5.18325E-11 1.92065E-09
5.50215E-11 1.83040E-09
5.83057E-11 1.74577E-09
6.16850E-11 1.66644E-09
6.51595E-11 1.59198E-09
6.87293E-11 1.52133E-09
7.23943E-11 1.45476E-09
7.61544E-11 1.39199E-09
1.18991E-10 9.14021E-10
1.71347E-10 6.10101E-10
2.33223E-10 4.28042E-10
3.04617E-10 3.05293E-10
3.85531E-10 2.23217E-10
4.75965E-10 1.67457E-10
5.75917E-10 1.28227E-10
6.85389E-10 9.91566E-11
8.04380E-10 7.78525E-11
9.32891E-10 6.19382E-11
1.07092E-09 4.97770E-11
1.21847E-09 4.02869E-11
1.37554E-09 3.29454E-11
1.54213E-09 2.71901E-11
1.71823E-09 2.26085E-11
1.90386E-09 1.89440E-11
2.09900E-09 1.60029E-11
2.30367E-09 1.36196E-11
2.51785E-09 1.16652E-11
2.74156E-09 1.00575E-11
2.97478E-09 8.72550E-12
3.21752E-09 7.61321E-12
3.46978E-09 6.67707E-12
3.73156E-09 5.88259E-12
4.00286E-09 5.20489E-12
4.28368E-09 4.62421E-12
4.57402E-09 4.12364E-12
4.87388E-09 3.69091E-12
5.18326E-09 3.31491E-12
5.50215E-09 2.98562E-12
5.83057E-09 2.69636E-12
6.16850E-09 2.44164E-12
6.51596E-09 2.21644E-12
6.87293E-09 2.01572E-12
7.23942E-09 1.83721E-12
7.61544E-09 1.67801E-12
1.18991E-08 7.44109E-13
1.71347E-08 3.76981E-13
2.33223E-08 2.10770E-13
3.04617E-08 1.26994E-13
3.85531E-08 8.10651E-14
4.75965E-08 5.41692E-14
5.75917E-08 3.75651E-14
6.85389E-08 2.68601E-14
8.04380E-08 1.97079E-14
9.32891E-08 1.47832E-14
1.07092E-07 1.13031E-14
1.21847E-07 8.78783E-15
1.37554E-07 6.93378E-15
1.54213E-07 5.54296E-15
1.71823E-07 4.48357E-15
1.90386E-07 3.66535E-15
2.09900E-07 3.02540E-15
2.30367E-07 2.51913E-15
2.51785E-07 2.11442E-15
2.74156E-07 1.78777E-15
2.97478E-07 1.52184E-15
3.21752E-07 1.30357E-15
3.46978E-07 1.12308E-15
3.73156E-07 9.72778E-16
4.00286E-07 8.46809E-16
4.28368E-07 7.40592E-16
4.57402E-07 6.50526E-16
4.87388E-07 5.73752E-16
5.18325E-07 5.07982E-16
5.50215E-07 4.51376E-16
5.83057E-07 4.02441E-16
6.16850E-07 3.59965E-16
6.51596E-07 3.22949E-16
6.87293E-07 2.90573E-16
7.23942E-07 2.62155E-16
7.61543E-07 2.37129E-16
1.18991E-06 9.78434E-17
1.71347E-06 4.74109E-17
2.33223E-06 2.56741E-17
3.04617E-06 1.50840E-17
3.85531E-06 9.43264E-18
4.75964E-06 6.19662E-18
5.75916E-06 4.23659E-18
6.85388E-06 2.99373E-18
8.04378E-06 2.17497E-18
9.32888E-06 1.61793E-18
1.07092E-05 1.22835E-18
1.21846E-05 9.49284E-19
1.37553E-05 7.45161E-19
1.54212E-05 5.93075E-19
1.71822E-05 4.77891E-19
1.90385E-05 3.89179E-19
2.09899E-05 3.20445E-19
2.30365E-05 2.66202E-19
2.51783E-05 2.22917E-19
2.74153E-05 1.88042E-19
2.97475E-05 1.59710E-19
3.21749E-05 1.36517E-19
3.46974E-05 1.17397E-19
3.73152E-05 1.01524E-19
4.00281E-05 8.82550E-20
4.28362E-05 7.70903E-20
4.57395E-05 6.76369E-20
4.87380E-05 5.95867E-20
5.18317E-05 5.26963E-20
5.50205E-05 4.67714E-20
5.83045E-05 4.16557E-20
6.16838E-05 3.72214E-20
6.51582E-05 3.33630E-20
6.87277E-05 2.99934E-20
7.23925E-05 2.70397E-20
7.61524E-05 2.46527E-20
9.21439E-05 1.68692E-20
1.09658E-04 1.19306E-20
1.28695E-04 8.67599E-21
1.49255E-04 6.45926E-21
1.71338E-04 4.90759E-21
1.94942E-04 3.79480E-21
2.20070E-04 2.98005E-21
2.46720E-04 2.37241E-21
2.74892E-04 1.91171E-21
3.04586E-04 1.55732E-21
3.35803E-04 1.28107E-21
3.68542E-04 1.06318E-21
4.02802E-04 8.89447E-22
4.38585E-04 7.49563E-22
4.75889E-04 6.35919E-22
5.14715E-04 5.42825E-22
5.55063E-04 4.65986E-22
5.96931E-04 4.02117E-22
6.40321E-04 3.48682E-22
6.85233E-04 3.03706E-22
7.31665E-04 2.65636E-22
7.79618E-04 2.33243E-22
8.29092E-04 2.05544E-22
8.80086E-04 1.81750E-22
9.32601E-04 1.61223E-22
9.86636E-04 1.43442E-22
1.04219E-03 1.27980E-22
1.09927E-03 1.14487E-22
1.15786E-03 1.02671E-22
1.21797E-03 9.22915E-23
1.27961E-03 8.31456E-23
1.34276E-03 7.50633E-23
1.40743E-03 6.79015E-23
1.47362E-03 6.15388E-23
1.54133E-03 5.58719E-23
1.61056E-03 5.08130E-23
1.68131E-03 4.62867E-23
1.75357E-03 4.22282E-23
1.82735E-03 3.85817E-23
1.90265E-03 3.52991E-23
1.97947E-03 3.23385E-23
2.05780E-03 2.96636E-23
2.13765E-03 2.72428E-23
2.21902E-03 2.50482E-23
2.30190E-03 2.30557E-23
2.38630E-03 2.12439E-23
2.47222E-03 1.95941E-23
2.55965E-03 1.80897E-23
2.64859E-03 1.67161E-23
2.73905E-03 1.54603E-23
2.83103E-03 1.43109E-23
2.92452E-03 1.32576E-23
3.01952E-03 1.22912E-23
3.11604E-03 1.14036E-23
3.21407E-03 1.05876E-23
3.31362E-03 9.83668E-24
3.41468E-03 9.14490E-24
3.51725E-03 8.50704E-24
3.62133E-03 7.91838E-24
3.72692E-03 7.37465E-24
3.83403E-03 6.87200E-24
3.94265E-03 6.40697E-24
4.05278E-03 5.97640E-24
4.16442E-03 5.57744E-24
4.27757E-03 5.20751E-24
4.39223E-03 4.86427E-24
4.50840E-03 4.54557E-24
4.62608E-03 4.24946E-24
4.74527E-03 3.97419E-24
4.86597E-03 3.71812E-24
4.98817E-03 3.47979E-24
5.11188E-03 3.25783E-24
5.23711E-03 3.05103E-24
5.36383E-03 2.85823E-24
5.49207E-03 2.67841E-24
5.62181E-03 2.51062E-24
5.75306E-03 2.35397E-24
5.88581E-03 2.20766E-24
6.02007E-03 2.07094E-24
6.15583E-03 1.94315E-24
6.29310E-03 1.82365E-24
6.43187E-03 1.71185E-24
6.57214E-03 1.60723E-24
6.71392E-03 1.50929E-24
6.85720E-03 1.41757E-24
7.00198E-03 1.33165E-24
7.14827E-03 1.25113E-24
7.29605E-03 1.17566E-24
7.44534E-03 1.10490E-24
7.59612E-03 1.03853E-24
7.97965E-03 8.89999E-25
8.37255E-03 7.63203E-25
8.77480E-03 6.54817E-25
9.18641E-03 5.62056E-25
9.60736E-03 4.82587E-25
1.00376E-02 4.14445E-25
1.04773E-02 3.55970E-25
1.09262E-02 3.05759E-25
1.13844E-02 2.62624E-25
1.18520E-02 2.25552E-25
1.23288E-02 1.93683E-25
1.28150E-02 1.66282E-25
1.33104E-02 1.42721E-25
1.38150E-02 1.22462E-25
1.43290E-02 1.05046E-25
1.48521E-02 9.00773E-26
1.53845E-02 7.72154E-26
1.59262E-02 6.61684E-26
1.64770E-02 5.66848E-26
1.70371E-02 4.85480E-26
1.76063E-02 4.15709E-26
1.81848E-02 3.55924E-26
1.87724E-02 3.04735E-26
1.93692E-02 2.60941E-26
1.99751E-02 2.23505E-26
2.05901E-02 1.91531E-26
2.12143E-02 1.64248E-26
2.18476E-02 1.40988E-26
2.24900E-02 1.21175E-26
2.31415E-02 1.04314E-26
2.38021E-02 8.99750E-27
2.44717E-02 7.77903E-27
2.51504E-02 6.74422E-27
2.58382E-02 5.86575E-27
2.65349E-02 5.12018E-27
2.72407E-02 4.48736E-27
2.79555E-02 3.95005E-27
2.86793E-02 3.49348E-27
2.94120E-02 3.10505E-27
3.01537E-02 2.77399E-27
3.09043E-02 2.49117E-27
3.16639E-02 2.24881E-27
3.24324E-02 2.04033E-27
3.32098E-02 1.86017E-27
3.39961E-02 1.70364E-27
3.47912E-02 1.56681E-27
3.55952E-02 1.44639E-27
3.64081E-02 1.33963E-27
3.72297E-02 1.24425E-27
3.80602E-02 1.15836E-27
3.88995E-02 1.08039E-27
3.97476E-02 1.00909E-27
4.06044E-02 9.43408E-28
4.14700E-02 8.82501E-28
4.23443E-02 8.25694E-28
4.32273E-02 7.72441E-28
4.41190E-02 7.22311E-28
4.50194E-02 6.74962E-28
4.59284E-02 6.30125E-28
4.68461E-02 5.87591E-28
4.87074E-02 5.08813E-28
5.06030E-02 4.37710E-28
5.25328E-02 3.73709E-28
5.44967E-02 3.16414E-28
5.64946E-02 2.65506E-28
5.85262E-02 2.20676E-28
6.05914E-02 1.81590E-28
6.26901E-02 1.47880E-28
6.48222E-02 1.19141E-28
6.69873E-02 9.49381E-29
6.91854E-02 7.48177E-29
7.14163E-02 5.83194E-29
7.36799E-02 4.49881E-29
7.59760E-02 3.43848E-29
7.83043E-02 2.60949E-29
8.06647E-02 1.97351E-29
8.30571E-02 1.49578E-29
8.54812E-02 1.14538E-29
8.79369E-02 8.95277E-30
9.04240E-02 7.22321E-30
9.29422E-02 6.07039E-30
9.54915E-02 5.33391E-30
9.80716E-02 4.88458E-30
1.00682E-01 4.62096E-30
1.03323E-01 4.46573E-30
1.05995E-01 4.36211E-30
1.08696E-01 4.27041E-30
1.11427E-01 4.16480E-30
1.14188E-01 4.03037E-30
1.16978E-01 3.86058E-30
1.19797E-01 3.65496E-30
1.22645E-01 3.41728E-30
1.25522E-01 3.15395E-30
1.28428E-01 2.87280E-30
1.31361E-01 2.58211E-30
1.34323E-01 2.28992E-30
1.37313E-01 2.00351E-30
1.40330E-01 1.72911E-30
1.43375E-01 1.47172E-30
1.46447E-01 1.23508E-30
1.49545E-01 1.02166E-30
1.52671E-01 8.32791E-31
1.55823E-01 6.68803E-31
1.59001E-01 5.29165E-31
1.62205E-01 4.12671E-31
1.65435E-01 3.17601E-31
1.68690E-01 2.41882E-31
1.71970E-01 1.83229E-31
1.75276E-01 1.39270E-31
1.78606E-01 1.07648E-31
1.81961E-01 8.61055E-32
1.85340E-01 7.25438E-32
1.88743E-01 6.50679E-32
1.92169E-01 6.20128E-32
1.95619E-01 6.19556E-32
1.99092E-01 6.37159E-32
2.02589E-01 6.63467E-32
2.06107E-01 6.91180E-32
2.09649E-01 7.14958E-32
2.13212E-01 7.31179E-32
2.16797E-01 7.37677E-32
2.20404E-01 7.33488E-32
2.24032E-01 7.18598E-32
2.27680E-01 6.93713E-32
2.31350E-01 6.60045E-32
2.35040E-01 6.19134E-32
2.38751E-01 5.72690E-32
2.42481E-01 5.22467E-32
2.46231E-01 4.70162E-32
2.50000E-01 4.17340E-32
2.53788E-01 3.65384E-32
2.57595E-01 3.15462E-32
2.61421E-01 2.68511E-32
2.65264E-01 2.25236E-32
2.69126E-01 1.86121E-32
2.73005E-01 1.51445E-32
2.76901E-01 1.21304E-32
2.80814E-01 9.56409E-33
2.84744E-01 7.42717E-33
2.88691E-01 5.69124E-33
2.92653E-01 4.32077E-33
2.96632E-01 3.27545E-33
3.00625E-01 2.51252E-33
3.04634E-01 1.98855E-33
3.08658E-01 1.66112E-33
3.12697E-01 1.49000E-33
3.16749E-01 1.43816E-33
3.20816E-01 1.47237E-33
3.24896E-01 1.56362E-33
3.28990E-01 1.68731E-33
3.33097E-01 1.82319E-33
3.37216E-01 1.95525E-33
3.41348E-01 2.07138E-33
3.45492E-01 2.16304E-33
3.49647E-01 2.22483E-33
3.53814E-01 2.25403E-33
3.57992E-01 2.25013E-33
3.62181E-01 2.21441E-33
3.66381E-01 2.14951E-33
3.70590E-01 2.05902E-33
3.74810E-01 1.94716E-33
3.79039E-01 1.81847E-33
3.83277E-01 1.67755E-33
3.87524E-01 1.52889E-33
3.91780E-01 1.37664E-33
3.96044E-01 1.22460E-33
4.00316E-01 1.07605E-33
4.04596E-01 9.33738E-34
4.08882E-01 7.99881E-34
4.13176E-01 6.76151E-34
4.17476E-01 5.63711E-34
4.21783E-01 4.63252E-34
4.26095E-01 3.75045E-34
4.30413E-01 2.98999E-34
4.34737E-01 2.34718E-34
4.39065E-01 1.81560E-34
4.43398E-01 1.38698E-34
4.47736E-01 1.05173E-34
4.52077E-01 7.99417E-35
4.56422E-01 6.19220E-35
4.60770E-01 5.00304E-35
4.65122E-01 4.32127E-35
4.69476E-01 4.04693E-35
4.73832E-01 4.08744E-35
4.78190E-01 4.35896E-35
4.82550E-01 4.78723E-35
4.86912E-01 5.30803E-35
4.91274E-01 5.86721E-35
4.95637E-01 6.42046E-35
5.00000E-01 6.93279E-35
5.04363E-01 7.37784E-35
5.08726E-01 7.73708E-35
5.13088E-01 7.99890E-35
5.17450E-01 8.15765E-35
5.21810E-01 8.21269E-35
5.26168E-01 8.16750E-35
5.30524E-01 8.02876E-35
5.34878E-01 7.80553E-35
5.39230E-01 7.50856E-35
5.43578E-01 7.14959E-35
5.47923E-01 6.74082E-35
5.52264E-01 6.29441E-35
5.56602E-01 5.82210E-35
5.60935E-01 5.33495E-35
5.65263E-01 4.84304E-35
5.69587E-01 4.35536E-35
5.73905E-01 3.87972E-35
5.78217E-01 3.42267E-35
5.82524E-01 2.98953E-35
5.86824E-01 2.58443E-35
5.91118E-01 2.21035E-35
5.95404E-01 1.86924E-35
5.99684E-01 1.56210E-35
6.03956E-01 1.28911E-35
6.08220E-01 1.04971E-35
6.12476E-01 8.42782E-36
6.16723E-01 6.66702E-36
6.20961E-01 5.19485E-36
6.25190E-01 3.98869E-36
6.29410E-01 3.02415E-36
6.33619E-01 2.27584E-36
6.37819E-01 1.71810E-36
6.42008E-01 1.32560E-36
6.46186E-01 1.07383E-36
6.50353E-01 9.39505E-37
6.54508E-01 9.00855E-37
6.58652E-01 9.37877E-37
6.62784E-01 1.03248E-36
6.66903E-01 1.16849E-36
6.71010E-01 1.33178E-36
6.75104E-01 1.51016E-36
6.79184E-01 1.69334E-36
6.83251E-01 1.87283E-36
6.87303E-01 2.04182E-36
6.91342E-01 2.19503E-36
6.95366E-01 2.32855E-36
6.99375E-01 2.43974E-36
7.03368E-01 2.52698E-36
7.07347E-01 2.58961E-36
7.11309E-01 2.62774E-36
7.15256E-01 2.64210E-36
7.19186E-01 2.63393E-36
7.23099E-01 2.60486E-36
7.26995E-01 2.55682E-36
7.30874E-01 2.49189E-36
7.34736E-01 2.41229E-36
7.38579E-01 2.32028E-36
7.42405E-01 2.21807E-36
7.46212E-01 2.10784E-36
7.50000E-01 1.99165E-36
7.53769E-01 1.87141E-36
7.57519E-01 1.74890E-36
7.61249E-01 1.62573E-36
7.64960E-01 1.50332E-36
7.68650E-01 1.38293E-36
7.72320E-01 1.26561E-36
7.75968E-01 1.15228E-36
7.79596E-01 1.04365E-36
7.83203E-01 9.40325E-37
7.86788E-01 8.42733E-37
7.90351E-01 7.51175E-37
7.93893E-01 6.65846E-37
7.97411E-01 5.86826E-37
8.00908E-01 5.14108E-37
8.04381E-01 4.47607E-37
8.07831E-01 3.87171E-37
8.11257E-01 3.32594E-37
8.14660E-01 2.83624E-37
8.18039E-01 2.39980E-37
8.21394E-01 2.01353E-37
8.24724E-01 1.67415E-37
8.28030E-01 1.37831E-37
8.31310E-01 1.12263E-37
8.34565E-01 9.03715E-38
8.37795E-01 7.18238E-38
8.40999E-01 5.62988E-38
8.44177E-01 4.34815E-38
8.47329E-01 3.30798E-38
8.50455E-01 2.48123E-38
8.53553E-01 1.84153E-38
8.56625E-01 1.36459E-38
8.59670E-01 1.00000E-45
8.62687E-01 1.00000E-45
8.65677E-01 1.00000E-45
8.68639E-01 1.00000E-45
8.71572E-01 1.00000E-45
8.74478E-01 1.00000E-45
8.77355E-01 1.00000E-45
8.80203E-01 1.00000E-45
8.83022E-01 1.00000E-45
8.85812E-01 1.00000E-45
8.88573E-01 1.00000E-45
8.91304E-01 1.00000E-45
8.94005E-01 1.00000E-45
8.96677E-01 1.00000E-45
8.99318E-01 1.00000E-45
9.01928E-01 1.00000E-45
9.04508E-01 1.00000E-45
9.07058E-01 1.00000E-45
9.09576E-01 1.00000E-45
9.12063E-01 1.00000E-45
9.14519E-01 1.00000E-45
9.16943E-01 1.00000E-45
9.19335E-01 1.00000E-45
9.21696E-01 1.00000E-45
9.24024E-01 1.00000E-45
9.26320E-01 1.00000E-45
9.28584E-01 1.00000E-45
9.30815E-01 1.00000E-45
9.33013E-01 1.00000E-45
9.35178E-01 1.00000E-45
9.37310E-01 1.00000E-45
9.39409E-01 1.00000E-45
9.41474E-01 1.00000E-45
9.43505E-01 1.00000E-45
9.45503E-01 1.00000E-45
9.47467E-01 1.00000E-45
9.49397E-01 1.00000E-45
9.51293E-01 1.00000E-45
9.53154E-01 1.00000E-45
9.54981E-01 1.00000E-45
9.56773E-01 1.00000E-45
9.58530E-01 1.00000E-45
9.60252E-01 1.00000E-45
9.61940E-01 1.00000E-45
9.63592E-01 1.00000E-45
9.65209E-01 1.00000E-45
9.66790E-01 1.00000E-45
9.68336E-01 1.00000E-45
9.69846E-01 1.00000E-45
9.71321E-01 1.00000E-45
9.72759E-01 1.00000E-45
9.74162E-01 1.00000E-45
9.75528E-01 1.00000E-45
9.76858E-01 1.00000E-45
9.78152E-01 1.00000E-45
9.79410E-01 1.00000E-45
9.80631E-01 1.00000E-45
9.81815E-01 1.00000E-45
9.82963E-01 1.00000E-45
9.84074E-01 1.00000E-45
9.85148E-01 1.00000E-45
9.86185E-01 1.00000E-45
9.87185E-01 1.00000E-45
9.88148E-01 1.00000E-45
9.89074E-01 1.00000E-45
9.89962E-01 1.00000E-45
9.90814E-01 1.00000E-45
9.91627E-01 1.00000E-45
9.92404E-01 1.00000E-45
9.93143E-01 1.00000E-45
9.93844E-01 1.00000E-45
9.94508E-01 1.00000E-45
9.95134E-01 1.00000E-45
9.95722E-01 1.00000E-45
9.96273E-01 1.00000E-45
9.96786E-01 1.00000E-45
9.97261E-01 1.00000E-45
9.97698E-01 1.00000E-45
9.98097E-01 1.00000E-45
9.98459E-01 1.00000E-45
9.98782E-01 1.00000E-45
9.99067E-01 1.00000E-45
9.99315E-01 1.00000E-45
9.99524E-01 1.00000E-45
9.99695E-01 1.00000E-45
9.99829E-01 1.00000E-45
9.99924E-01 1.00000E-45
9.99981E-01 1.00000E-45
1.00000E+00 1.00000E-45
