 #
 # Subroutine ELSEPA. Elastic scattering of electrons and positrons
 #                    by neutral atoms and positive ions
 #
 # Projectile: electron
 # Kinetic energy = 1.75000E+06 eV = 6.43113E+04 a.u.
 #
 # WARNING: High-energy factorization with free-atom DF screening.
 #          Absorption, polarization and exchange corrections are
 #          switched off.
 #          Phase shifts are calculated for the bare nucleus.
 #          Scattering amplitudes are not evaluated.
 #
 # Element: Dy,  Z =  66,  atomic weight = 1.62500E+02 g/mol
 #
 # Nuclear model: Fermi distribution
 #                Average radius = 5.83895E-13 cm
 #                Skin thickness = 5.46000E-14 cm
 #
 # Number of electrons = 66
 #
 # Total elastic cross section = 7.52340E-18 cm**2 = 2.68666E-01 a0**2
 # 1st transport cross section = 1.32137E-21 cm**2 = 4.71869E-05 a0**2
 # 2nd transport cross section = 3.54362E-21 cm**2 = 1.26545E-04 a0**2
 #
 #
 # Differential cross section:                       MU=(1-COS(THETA))/2
 #
 #  THETA        MU          DCS          DCS        Sherman      error
 #  (deg)                 (cm**2/sr)   (a0**2/sr)    function
 #----------------------------------------------------------------------
0.00000E+00 4.00687E-13
7.61557E-13 4.00686E-13
1.18994E-12 4.00685E-13
1.71346E-12 4.00685E-13
2.33225E-12 4.00684E-13
3.04617E-12 4.00683E-13
3.85530E-12 4.00682E-13
4.75964E-12 4.00681E-13
5.75917E-12 4.00680E-13
6.85391E-12 4.00679E-13
8.04379E-12 4.00677E-13
9.32893E-12 4.00676E-13
1.07092E-11 4.00674E-13
1.21847E-11 4.00673E-13
1.37554E-11 4.00671E-13
1.54213E-11 4.00669E-13
1.71823E-11 4.00667E-13
1.90386E-11 4.00665E-13
2.09900E-11 4.00662E-13
2.30367E-11 4.00660E-13
2.51785E-11 4.00657E-13
2.74156E-11 4.00655E-13
2.97478E-11 4.00652E-13
3.21752E-11 4.00649E-13
3.46979E-11 4.00646E-13
3.73157E-11 4.00643E-13
4.00286E-11 4.00640E-13
4.28368E-11 4.00636E-13
4.57402E-11 4.00633E-13
4.87388E-11 4.00630E-13
5.18325E-11 4.00626E-13
5.50215E-11 4.00622E-13
5.83057E-11 4.00618E-13
6.16850E-11 4.00614E-13
6.51595E-11 4.00610E-13
6.87293E-11 4.00606E-13
7.23943E-11 4.00601E-13
7.61544E-11 4.00597E-13
1.18991E-10 4.00546E-13
1.71347E-10 4.00484E-13
2.33223E-10 4.00410E-13
3.04617E-10 4.00325E-13
3.85531E-10 4.00229E-13
4.75965E-10 4.00121E-13
5.75917E-10 4.00002E-13
6.85389E-10 3.99872E-13
8.04380E-10 3.99731E-13
9.32891E-10 3.99578E-13
1.07092E-09 3.99414E-13
1.21847E-09 3.99239E-13
1.37554E-09 3.99052E-13
1.54213E-09 3.98854E-13
1.71823E-09 3.98646E-13
1.90386E-09 3.98426E-13
2.09900E-09 3.98195E-13
2.30367E-09 3.97953E-13
2.51785E-09 3.97700E-13
2.74156E-09 3.97436E-13
2.97478E-09 3.97161E-13
3.21752E-09 3.96875E-13
3.46978E-09 3.96579E-13
3.73156E-09 3.96271E-13
4.00286E-09 3.95953E-13
4.28368E-09 3.95624E-13
4.57402E-09 3.95284E-13
4.87388E-09 3.94934E-13
5.18326E-09 3.94573E-13
5.50215E-09 3.94202E-13
5.83057E-09 3.93820E-13
6.16850E-09 3.93427E-13
6.51596E-09 3.93025E-13
6.87293E-09 3.92612E-13
7.23942E-09 3.92188E-13
7.61544E-09 3.91755E-13
1.18991E-08 3.86872E-13
1.71347E-08 3.81040E-13
2.33223E-08 3.74336E-13
3.04617E-08 3.66844E-13
3.85531E-08 3.58657E-13
4.75965E-08 3.49871E-13
5.75917E-08 3.40627E-13
6.85389E-08 3.30910E-13
8.04380E-08 3.20911E-13
9.32891E-08 3.10697E-13
1.07092E-07 3.00270E-13
1.21847E-07 2.89919E-13
1.37554E-07 2.79481E-13
1.54213E-07 2.69171E-13
1.71823E-07 2.59007E-13
1.90386E-07 2.48940E-13
2.09900E-07 2.39252E-13
2.30367E-07 2.29714E-13
2.51785E-07 2.20518E-13
2.74156E-07 2.11639E-13
2.97478E-07 2.03003E-13
3.21752E-07 1.94839E-13
3.46978E-07 1.86914E-13
3.73156E-07 1.79379E-13
4.00286E-07 1.72186E-13
4.28368E-07 1.65265E-13
4.57402E-07 1.58774E-13
4.87388E-07 1.52525E-13
5.18325E-07 1.46620E-13
5.50215E-07 1.41012E-13
5.83057E-07 1.35646E-13
6.16850E-07 1.30618E-13
6.51596E-07 1.25798E-13
6.87293E-07 1.21247E-13
7.23942E-07 1.16927E-13
7.61543E-07 1.12803E-13
1.18991E-06 8.13290E-14
1.71347E-06 6.12863E-14
2.33223E-06 4.74812E-14
3.04617E-06 3.73998E-14
3.85531E-06 2.97831E-14
4.75964E-06 2.39079E-14
5.75916E-06 1.91161E-14
6.85388E-06 1.56998E-14
8.04378E-06 1.29458E-14
9.32888E-06 1.07252E-14
1.07092E-05 9.04231E-15
1.21846E-05 7.58009E-15
1.37553E-05 6.45085E-15
1.54212E-05 5.51116E-15
1.71822E-05 4.73054E-15
1.90385E-05 4.10023E-15
2.09899E-05 3.54851E-15
2.30365E-05 3.09920E-15
2.51783E-05 2.71179E-15
2.74153E-05 2.37973E-15
2.97475E-05 2.10170E-15
3.21749E-05 1.85348E-15
3.46974E-05 1.64495E-15
3.73152E-05 1.46252E-15
4.00281E-05 1.30381E-15
4.28362E-05 1.16762E-15
4.57395E-05 1.04567E-15
4.87380E-05 9.40533E-16
5.18317E-05 8.47439E-16
5.50205E-05 7.65354E-16
5.83045E-05 6.93519E-16
6.16838E-05 6.29099E-16
6.51582E-05 5.72554E-16
6.87277E-05 5.22088E-16
7.23925E-05 4.77138E-16
7.61524E-05 4.37196E-16
9.21439E-05 3.13876E-16
1.09658E-04 2.32028E-16
1.28695E-04 1.75737E-16
1.49255E-04 1.35752E-16
1.71338E-04 1.06766E-16
1.94942E-04 8.51792E-17
2.20070E-04 6.87940E-17
2.46720E-04 5.61453E-17
2.74892E-04 4.62426E-17
3.04586E-04 3.84252E-17
3.35803E-04 3.21804E-17
3.68542E-04 2.71493E-17
4.02802E-04 2.30588E-17
4.38585E-04 1.97030E-17
4.75889E-04 1.69337E-17
5.14715E-04 1.46247E-17
5.55063E-04 1.27094E-17
5.96931E-04 1.10941E-17
6.40321E-04 9.72725E-18
6.85233E-04 8.56998E-18
7.31665E-04 7.57400E-18
7.79618E-04 6.72298E-18
8.29092E-04 5.98745E-18
8.80086E-04 5.35024E-18
9.32601E-04 4.79757E-18
9.86636E-04 4.31256E-18
1.04219E-03 3.88909E-18
1.09927E-03 3.51600E-18
1.15786E-03 3.18685E-18
1.21797E-03 2.89616E-18
1.27961E-03 2.63711E-18
1.34276E-03 2.40719E-18
1.40743E-03 2.20159E-18
1.47362E-03 2.01761E-18
1.54133E-03 1.85283E-18
1.61056E-03 1.70418E-18
1.68131E-03 1.57054E-18
1.75357E-03 1.44963E-18
1.82735E-03 1.34020E-18
1.90265E-03 1.24110E-18
1.97947E-03 1.15081E-18
2.05780E-03 1.06878E-18
2.13765E-03 9.93873E-19
2.21902E-03 9.25454E-19
2.30190E-03 8.62919E-19
2.38630E-03 8.05481E-19
2.47222E-03 7.52857E-19
2.55965E-03 7.04422E-19
2.64859E-03 6.59847E-19
2.73905E-03 6.18796E-19
2.83103E-03 5.80834E-19
2.92452E-03 5.45806E-19
3.01952E-03 5.13356E-19
3.11604E-03 4.83300E-19
3.21407E-03 4.55442E-19
3.31362E-03 4.29534E-19
3.41468E-03 4.05483E-19
3.51725E-03 3.83078E-19
3.62133E-03 3.62212E-19
3.72692E-03 3.42767E-19
3.83403E-03 3.24593E-19
3.94265E-03 3.07634E-19
4.05278E-03 2.91761E-19
4.16442E-03 2.76907E-19
4.27757E-03 2.62999E-19
4.39223E-03 2.49946E-19
4.50840E-03 2.37709E-19
4.62608E-03 2.26208E-19
4.74527E-03 2.15401E-19
4.86597E-03 2.05240E-19
4.98817E-03 1.95667E-19
5.11188E-03 1.86658E-19
5.23711E-03 1.78159E-19
5.36383E-03 1.70144E-19
5.49207E-03 1.62581E-19
5.62181E-03 1.55431E-19
5.75306E-03 1.48678E-19
5.88581E-03 1.42288E-19
6.02007E-03 1.36241E-19
6.15583E-03 1.30516E-19
6.29310E-03 1.25089E-19
6.43187E-03 1.19946E-19
6.57214E-03 1.15065E-19
6.71392E-03 1.10434E-19
6.85720E-03 1.06036E-19
7.00198E-03 1.01855E-19
7.14827E-03 9.78822E-20
7.29605E-03 9.41018E-20
7.44534E-03 9.05046E-20
7.59612E-03 8.70804E-20
7.97965E-03 7.92082E-20
8.37255E-03 7.22154E-20
8.77480E-03 6.59864E-20
9.18641E-03 6.04227E-20
9.60736E-03 5.54406E-20
1.00376E-02 5.09681E-20
1.04773E-02 4.69438E-20
1.09262E-02 4.33145E-20
1.13844E-02 4.00343E-20
1.18520E-02 3.70635E-20
1.23288E-02 3.43675E-20
1.28150E-02 3.19160E-20
1.33104E-02 2.96829E-20
1.38150E-02 2.76451E-20
1.43290E-02 2.57821E-20
1.48521E-02 2.40762E-20
1.53845E-02 2.25117E-20
1.59262E-02 2.10746E-20
1.64770E-02 1.97525E-20
1.70371E-02 1.85345E-20
1.76063E-02 1.74108E-20
1.81848E-02 1.63727E-20
1.87724E-02 1.54124E-20
1.93692E-02 1.45230E-20
1.99751E-02 1.36982E-20
2.05901E-02 1.29325E-20
2.12143E-02 1.22206E-20
2.18476E-02 1.15582E-20
2.24900E-02 1.09411E-20
2.31415E-02 1.03656E-20
2.38021E-02 9.82835E-21
2.44717E-02 9.32627E-21
2.51504E-02 8.85665E-21
2.58382E-02 8.41696E-21
2.65349E-02 8.00488E-21
2.72407E-02 7.61838E-21
2.79555E-02 7.25553E-21
2.86793E-02 6.91458E-21
2.94120E-02 6.59397E-21
3.01537E-02 6.29222E-21
3.09043E-02 6.00800E-21
3.16639E-02 5.74010E-21
3.24324E-02 5.48738E-21
3.32098E-02 5.24881E-21
3.39961E-02 5.02344E-21
3.47912E-02 4.81038E-21
3.55952E-02 4.60883E-21
3.64081E-02 4.41803E-21
3.72297E-02 4.23730E-21
3.80602E-02 4.06600E-21
3.88995E-02 3.90353E-21
3.97476E-02 3.74934E-21
4.06044E-02 3.60293E-21
4.14700E-02 3.46382E-21
4.23443E-02 3.33157E-21
4.32273E-02 3.20577E-21
4.41190E-02 3.08605E-21
4.50194E-02 2.97204E-21
4.59284E-02 2.86342E-21
4.68461E-02 2.75988E-21
4.87074E-02 2.56690E-21
5.06030E-02 2.39104E-21
5.25328E-02 2.23048E-21
5.44967E-02 2.08361E-21
5.64946E-02 1.94903E-21
5.85262E-02 1.82550E-21
6.05914E-02 1.71194E-21
6.26901E-02 1.60738E-21
6.48222E-02 1.51096E-21
6.69873E-02 1.42191E-21
6.91854E-02 1.33955E-21
7.14163E-02 1.26329E-21
7.36799E-02 1.19257E-21
7.59760E-02 1.12690E-21
7.83043E-02 1.06586E-21
8.06647E-02 1.00904E-21
8.30571E-02 9.56100E-22
8.54812E-02 9.06711E-22
8.79369E-02 8.60586E-22
9.04240E-02 8.17465E-22
9.29422E-02 7.77110E-22
9.54915E-02 7.39307E-22
9.80716E-02 7.03857E-22
1.00682E-01 6.70584E-22
1.03323E-01 6.39327E-22
1.05995E-01 6.09936E-22
1.08696E-01 5.82276E-22
1.11427E-01 5.56222E-22
1.14188E-01 5.31662E-22
1.16978E-01 5.08491E-22
1.19797E-01 4.86613E-22
1.22645E-01 4.65940E-22
1.25522E-01 4.46392E-22
1.28428E-01 4.27895E-22
1.31361E-01 4.10378E-22
1.34323E-01 3.93778E-22
1.37313E-01 3.78038E-22
1.40330E-01 3.63102E-22
1.43375E-01 3.48921E-22
1.46447E-01 3.35448E-22
1.49545E-01 3.22639E-22
1.52671E-01 3.10455E-22
1.55823E-01 2.98858E-22
1.59001E-01 2.87814E-22
1.62205E-01 2.77290E-22
1.65435E-01 2.67257E-22
1.68690E-01 2.57686E-22
1.71970E-01 2.48552E-22
1.75276E-01 2.39830E-22
1.78606E-01 2.31497E-22
1.81961E-01 2.23532E-22
1.85340E-01 2.15915E-22
1.88743E-01 2.08627E-22
1.92169E-01 2.01652E-22
1.95619E-01 1.94971E-22
1.99092E-01 1.88572E-22
2.02589E-01 1.82438E-22
2.06107E-01 1.76556E-22
2.09649E-01 1.70914E-22
2.13212E-01 1.65499E-22
2.16797E-01 1.60301E-22
2.20404E-01 1.55308E-22
2.24032E-01 1.50511E-22
2.27680E-01 1.45901E-22
2.31350E-01 1.41468E-22
2.35040E-01 1.37203E-22
2.38751E-01 1.33100E-22
2.42481E-01 1.29151E-22
2.46231E-01 1.25348E-22
2.50000E-01 1.21685E-22
2.53788E-01 1.18156E-22
2.57595E-01 1.14754E-22
2.61421E-01 1.11474E-22
2.65264E-01 1.08311E-22
2.69126E-01 1.05260E-22
2.73005E-01 1.02314E-22
2.76901E-01 9.94715E-23
2.80814E-01 9.67262E-23
2.84744E-01 9.40746E-23
2.88691E-01 9.15127E-23
2.92653E-01 8.90367E-23
2.96632E-01 8.66431E-23
3.00625E-01 8.43286E-23
3.04634E-01 8.20900E-23
3.08658E-01 7.99241E-23
3.12697E-01 7.78282E-23
3.16749E-01 7.57994E-23
3.20816E-01 7.38350E-23
3.24896E-01 7.19327E-23
3.28990E-01 7.00900E-23
3.33097E-01 6.83045E-23
3.37216E-01 6.65742E-23
3.41348E-01 6.48968E-23
3.45492E-01 6.32705E-23
3.49647E-01 6.16934E-23
3.53814E-01 6.01635E-23
3.57992E-01 5.86792E-23
3.62181E-01 5.72389E-23
3.66381E-01 5.58408E-23
3.70590E-01 5.44835E-23
3.74810E-01 5.31656E-23
3.79039E-01 5.18856E-23
3.83277E-01 5.06422E-23
3.87524E-01 4.94342E-23
3.91780E-01 4.82602E-23
3.96044E-01 4.71191E-23
4.00316E-01 4.60099E-23
4.04596E-01 4.49314E-23
4.08882E-01 4.38825E-23
4.13176E-01 4.28623E-23
4.17476E-01 4.18699E-23
4.21783E-01 4.09042E-23
4.26095E-01 3.99645E-23
4.30413E-01 3.90498E-23
4.34737E-01 3.81594E-23
4.39065E-01 3.72925E-23
4.43398E-01 3.64483E-23
4.47736E-01 3.56261E-23
4.52077E-01 3.48252E-23
4.56422E-01 3.40449E-23
4.60770E-01 3.32846E-23
4.65122E-01 3.25436E-23
4.69476E-01 3.18215E-23
4.73832E-01 3.11174E-23
4.78190E-01 3.04311E-23
4.82550E-01 2.97618E-23
4.86912E-01 2.91091E-23
4.91274E-01 2.84724E-23
4.95637E-01 2.78514E-23
5.00000E-01 2.72455E-23
5.04363E-01 2.66543E-23
5.08726E-01 2.60774E-23
5.13088E-01 2.55143E-23
5.17450E-01 2.49646E-23
5.21810E-01 2.44281E-23
5.26168E-01 2.39042E-23
5.30524E-01 2.33926E-23
5.34878E-01 2.28930E-23
5.39230E-01 2.24051E-23
5.43578E-01 2.19284E-23
5.47923E-01 2.14628E-23
5.52264E-01 2.10079E-23
5.56602E-01 2.05633E-23
5.60935E-01 2.01289E-23
5.65263E-01 1.97043E-23
5.69587E-01 1.92893E-23
5.73905E-01 1.88836E-23
5.78217E-01 1.84869E-23
5.82524E-01 1.80991E-23
5.86824E-01 1.77199E-23
5.91118E-01 1.73490E-23
5.95404E-01 1.69863E-23
5.99684E-01 1.66316E-23
6.03956E-01 1.62845E-23
6.08220E-01 1.59450E-23
6.12476E-01 1.56128E-23
6.16723E-01 1.52878E-23
6.20961E-01 1.49697E-23
6.25190E-01 1.46584E-23
6.29410E-01 1.43538E-23
6.33619E-01 1.40556E-23
6.37819E-01 1.37637E-23
6.42008E-01 1.34780E-23
6.46186E-01 1.31982E-23
6.50353E-01 1.29243E-23
6.54508E-01 1.26561E-23
6.58652E-01 1.23934E-23
6.62784E-01 1.21362E-23
6.66903E-01 1.18842E-23
6.71010E-01 1.16375E-23
6.75104E-01 1.13958E-23
6.79184E-01 1.11590E-23
6.83251E-01 1.09270E-23
6.87303E-01 1.06998E-23
6.91342E-01 1.04771E-23
6.95366E-01 1.02589E-23
6.99375E-01 1.00451E-23
7.03368E-01 9.83564E-24
7.07347E-01 9.63031E-24
7.11309E-01 9.42908E-24
7.15256E-01 9.23185E-24
7.19186E-01 9.03853E-24
7.23099E-01 8.84903E-24
7.26995E-01 8.66327E-24
7.30874E-01 8.48117E-24
7.34736E-01 8.30264E-24
7.38579E-01 8.12761E-24
7.42405E-01 7.95600E-24
7.46212E-01 7.78774E-24
7.50000E-01 7.62276E-24
7.53769E-01 7.46098E-24
7.57519E-01 7.30235E-24
7.61249E-01 7.14678E-24
7.64960E-01 6.99422E-24
7.68650E-01 6.84461E-24
7.72320E-01 6.69788E-24
7.75968E-01 6.55397E-24
7.79596E-01 6.41283E-24
7.83203E-01 6.27439E-24
7.86788E-01 6.13861E-24
7.90351E-01 6.00543E-24
7.93893E-01 5.87480E-24
7.97411E-01 5.74667E-24
8.00908E-01 5.62098E-24
8.04381E-01 5.49769E-24
8.07831E-01 5.37675E-24
8.11257E-01 5.25812E-24
8.14660E-01 5.14175E-24
8.18039E-01 5.02759E-24
8.21394E-01 4.91561E-24
8.24724E-01 4.80576E-24
8.28030E-01 4.69801E-24
8.31310E-01 4.59231E-24
8.34565E-01 4.48862E-24
8.37795E-01 4.38691E-24
8.40999E-01 4.28714E-24
8.44177E-01 4.18928E-24
8.47329E-01 4.09328E-24
8.50455E-01 3.99913E-24
8.53553E-01 3.90677E-24
8.56625E-01 3.81619E-24
8.59670E-01 3.72735E-24
8.62687E-01 3.64021E-24
8.65677E-01 3.55476E-24
8.68639E-01 3.47095E-24
8.71572E-01 3.38876E-24
8.74478E-01 3.30817E-24
8.77355E-01 3.22915E-24
8.80203E-01 3.15166E-24
8.83022E-01 3.07569E-24
8.85812E-01 3.00121E-24
8.88573E-01 2.92819E-24
8.91304E-01 2.85661E-24
8.94005E-01 2.78645E-24
8.96677E-01 2.71769E-24
8.99318E-01 2.65029E-24
9.01928E-01 2.58425E-24
9.04508E-01 2.51953E-24
9.07058E-01 2.45613E-24
9.09576E-01 2.39401E-24
9.12063E-01 2.33316E-24
9.14519E-01 2.27356E-24
9.16943E-01 2.21519E-24
9.19335E-01 2.15804E-24
9.21696E-01 2.10208E-24
9.24024E-01 2.04730E-24
9.26320E-01 1.99367E-24
9.28584E-01 1.94120E-24
9.30815E-01 1.88985E-24
9.33013E-01 1.83961E-24
9.35178E-01 1.79047E-24
9.37310E-01 1.74242E-24
9.39409E-01 1.69543E-24
9.41474E-01 1.64950E-24
9.43505E-01 1.60461E-24
9.45503E-01 1.56074E-24
9.47467E-01 1.51789E-24
9.49397E-01 1.47604E-24
9.51293E-01 1.43518E-24
9.53154E-01 1.39530E-24
9.54981E-01 1.35638E-24
9.56773E-01 1.31842E-24
9.58530E-01 1.28140E-24
9.60252E-01 1.24531E-24
9.61940E-01 1.21014E-24
9.63592E-01 1.17589E-24
9.65209E-01 1.14254E-24
9.66790E-01 1.11008E-24
9.68336E-01 1.07851E-24
9.69846E-01 1.04781E-24
9.71321E-01 1.01797E-24
9.72759E-01 9.88992E-25
9.74162E-01 9.60863E-25
9.75528E-01 9.33575E-25
9.76858E-01 9.07120E-25
9.78152E-01 8.81491E-25
9.79410E-01 8.56681E-25
9.80631E-01 8.32683E-25
9.81815E-01 8.09490E-25
9.82963E-01 7.87096E-25
9.84074E-01 7.65495E-25
9.85148E-01 7.44680E-25
9.86185E-01 7.24645E-25
9.87185E-01 7.05386E-25
9.88148E-01 6.86897E-25
9.89074E-01 6.69173E-25
9.89962E-01 6.52209E-25
9.90814E-01 6.36001E-25
9.91627E-01 6.20543E-25
9.92404E-01 6.05832E-25
9.93143E-01 5.91864E-25
9.93844E-01 5.78634E-25
9.94508E-01 5.66140E-25
9.95134E-01 5.54378E-25
9.95722E-01 5.43344E-25
9.96273E-01 5.33037E-25
9.96786E-01 5.23452E-25
9.97261E-01 5.14587E-25
9.97698E-01 5.06441E-25
9.98097E-01 4.99010E-25
9.98459E-01 4.92293E-25
9.98782E-01 4.86287E-25
9.99067E-01 4.80993E-25
9.99315E-01 4.76406E-25
9.99524E-01 4.72528E-25
9.99695E-01 4.69356E-25
9.99829E-01 4.66890E-25
9.99924E-01 4.65129E-25
9.99981E-01 4.64073E-25
1.00000E+00 4.63721E-25
