 #
 # Subroutine ELSEPA. Elastic scattering of electrons and positrons
 #                    by neutral atoms and positive ions
 #
 # Projectile: electron
 # Kinetic energy = 4.50000E+07 eV = 1.65372E+06 a.u.
 #
 # WARNING: High-energy factorization with free-atom DF screening.
 #          Absorption, polarization and exchange corrections are
 #          switched off.
 #          Phase shifts are calculated for the bare nucleus.
 #          Scattering amplitudes are not evaluated.
 #
 # Element: Dy,  Z =  66,  atomic weight = 1.62500E+02 g/mol
 #
 # Nuclear model: Fermi distribution
 #                Average radius = 5.83895E-13 cm
 #                Skin thickness = 5.46000E-14 cm
 #
 # Number of electrons = 66
 #
 # Total elastic cross section = 7.11900E-18 cm**2 = 2.54224E-01 a0**2
 # 1st transport cross section = 4.07383E-24 cm**2 = 1.45479E-07 a0**2
 # 2nd transport cross section = 1.18985E-23 cm**2 = 4.24903E-07 a0**2
 #
 #
 # Differential cross section:                       MU=(1-COS(THETA))/2
 #
 #  THETA        MU          DCS          DCS        Sherman      error
 #  (deg)                 (cm**2/sr)   (a0**2/sr)    function
 #----------------------------------------------------------------------
0.00000E+00 1.62344E-10
7.61557E-13 1.62186E-10
1.18994E-12 1.62097E-10
1.71346E-12 1.61989E-10
2.33225E-12 1.61861E-10
3.04617E-12 1.61714E-10
3.85530E-12 1.61547E-10
4.75964E-12 1.61361E-10
5.75917E-12 1.61156E-10
6.85391E-12 1.60933E-10
8.04379E-12 1.60690E-10
9.32893E-12 1.60428E-10
1.07092E-11 1.60148E-10
1.21847E-11 1.59850E-10
1.37554E-11 1.59533E-10
1.54213E-11 1.59198E-10
1.71823E-11 1.58846E-10
1.90386E-11 1.58476E-10
2.09900E-11 1.58088E-10
2.30367E-11 1.57683E-10
2.51785E-11 1.57262E-10
2.74156E-11 1.56823E-10
2.97478E-11 1.56368E-10
3.21752E-11 1.55897E-10
3.46979E-11 1.55410E-10
3.73157E-11 1.54907E-10
4.00286E-11 1.54389E-10
4.28368E-11 1.53856E-10
4.57402E-11 1.53308E-10
4.87388E-11 1.52746E-10
5.18325E-11 1.52169E-10
5.50215E-11 1.51578E-10
5.83057E-11 1.50974E-10
6.16850E-11 1.50356E-10
6.51595E-11 1.49726E-10
6.87293E-11 1.49083E-10
7.23943E-11 1.48427E-10
7.61544E-11 1.47760E-10
1.18991E-10 1.40515E-10
1.71347E-10 1.32436E-10
2.33223E-10 1.23904E-10
3.04617E-10 1.15197E-10
3.85531E-10 1.06570E-10
4.75965E-10 9.82240E-11
5.75917E-10 9.03047E-11
6.85389E-10 8.29206E-11
8.04380E-10 7.61392E-11
9.32891E-10 6.99405E-11
1.07092E-09 6.43150E-11
1.21847E-09 5.92363E-11
1.37554E-09 5.46674E-11
1.54213E-09 5.05734E-11
1.71823E-09 4.69054E-11
1.90386E-09 4.36068E-11
2.09900E-09 4.06369E-11
2.30367E-09 3.79577E-11
2.51785E-09 3.55350E-11
2.74156E-09 3.33380E-11
2.97478E-09 3.13365E-11
3.21752E-09 2.95066E-11
3.46978E-09 2.78285E-11
3.73156E-09 2.62848E-11
4.00286E-09 2.48602E-11
4.28368E-09 2.35381E-11
4.57402E-09 2.23087E-11
4.87388E-09 2.11640E-11
5.18326E-09 2.00957E-11
5.50215E-09 1.90966E-11
5.83057E-09 1.81605E-11
6.16850E-09 1.72777E-11
6.51596E-09 1.64470E-11
6.87293E-09 1.56652E-11
7.23942E-09 1.49284E-11
7.61544E-09 1.42333E-11
1.18991E-08 8.95152E-12
1.71347E-08 5.90982E-12
2.33223E-08 3.99904E-12
3.04617E-08 2.80710E-12
3.85531E-08 2.02965E-12
4.75965E-08 1.50316E-12
5.75917E-08 1.13507E-12
6.85389E-08 8.69925E-13
8.04380E-08 6.74643E-13
9.32891E-08 5.30249E-13
1.07092E-07 4.21841E-13
1.21847E-07 3.39388E-13
1.37554E-07 2.75958E-13
1.54213E-07 2.26575E-13
1.71823E-07 1.87788E-13
1.90386E-07 1.57098E-13
2.09900E-07 1.32559E-13
2.30367E-07 1.12744E-13
2.51785E-07 9.65974E-14
2.74156E-07 8.33319E-14
2.97478E-07 7.22641E-14
3.21752E-07 6.30167E-14
3.46978E-07 5.52407E-14
3.73156E-07 4.86570E-14
4.00286E-07 4.30459E-14
4.28368E-07 3.82248E-14
4.57402E-07 3.40621E-14
4.87388E-07 3.04519E-14
5.18325E-07 2.73062E-14
5.50215E-07 2.45539E-14
5.83057E-07 2.21368E-14
6.16850E-07 2.00035E-14
6.51596E-07 1.81192E-14
6.87293E-07 1.64507E-14
7.23942E-07 1.49691E-14
7.61543E-07 1.36500E-14
1.18991E-06 5.97397E-15
1.71347E-06 3.01002E-15
2.33223E-06 1.67819E-15
3.04617E-06 1.00898E-15
3.85531E-06 6.42830E-16
4.75964E-06 4.28773E-16
5.75916E-06 2.96833E-16
6.85388E-06 2.11921E-16
8.04378E-06 1.55279E-16
9.32888E-06 1.16331E-16
1.07092E-05 8.88464E-17
1.21846E-05 6.90098E-17
1.37553E-05 5.44073E-17
1.54212E-05 4.34677E-17
1.71822E-05 3.51430E-17
1.90385E-05 2.87050E-17
2.09899E-05 2.36990E-17
2.30365E-05 1.97357E-17
2.51783E-05 1.65637E-17
2.74153E-05 1.40013E-17
2.97475E-05 1.19145E-17
3.21749E-05 1.02025E-17
3.46974E-05 8.78821E-18
3.73152E-05 7.61180E-18
4.00281E-05 6.62670E-18
4.28362E-05 5.79637E-18
4.57395E-05 5.09220E-18
4.87380E-05 4.49164E-18
5.18317E-05 3.97685E-18
5.50205E-05 3.53360E-18
5.83045E-05 3.15037E-18
6.16838E-05 2.81778E-18
6.51582E-05 2.52805E-18
6.87277E-05 2.27473E-18
7.23925E-05 2.05244E-18
7.61524E-05 1.85695E-18
9.21439E-05 1.27294E-18
1.09658E-04 9.01534E-19
1.28695E-04 6.56346E-19
1.49255E-04 4.89122E-19
1.71338E-04 3.71969E-19
1.94942E-04 2.87895E-19
2.20070E-04 2.26304E-19
2.46720E-04 1.80352E-19
2.74892E-04 1.45502E-19
3.04586E-04 1.18687E-19
3.35803E-04 9.77811E-20
3.68542E-04 8.12879E-20
4.02802E-04 6.81349E-20
4.38585E-04 5.75418E-20
4.75889E-04 4.89332E-20
5.14715E-04 4.18788E-20
5.55063E-04 3.60535E-20
5.96931E-04 3.12088E-20
6.40321E-04 2.71531E-20
6.85233E-04 2.37368E-20
7.31665E-04 2.08426E-20
7.79618E-04 1.83776E-20
8.29092E-04 1.62675E-20
8.80086E-04 1.44526E-20
9.32601E-04 1.28846E-20
9.86636E-04 1.15243E-20
1.04219E-03 1.03395E-20
1.09927E-03 9.30366E-21
1.15786E-03 8.39479E-21
1.21797E-03 7.59465E-21
1.27961E-03 6.88800E-21
1.34276E-03 6.26199E-21
1.40743E-03 5.70579E-21
1.47362E-03 5.21026E-21
1.54133E-03 4.76762E-21
1.61056E-03 4.37122E-21
1.68131E-03 4.01535E-21
1.75357E-03 3.69515E-21
1.82735E-03 3.40640E-21
1.90265E-03 3.14546E-21
1.97947E-03 2.90915E-21
2.05780E-03 2.69475E-21
2.13765E-03 2.49984E-21
2.21902E-03 2.32234E-21
2.30190E-03 2.16041E-21
2.38630E-03 2.01242E-21
2.47222E-03 1.87697E-21
2.55965E-03 1.75280E-21
2.64859E-03 1.63878E-21
2.73905E-03 1.53395E-21
2.83103E-03 1.43741E-21
2.92452E-03 1.34841E-21
3.01952E-03 1.26623E-21
3.11604E-03 1.19025E-21
3.21407E-03 1.11994E-21
3.31362E-03 1.05477E-21
3.41468E-03 9.94302E-22
3.51725E-03 9.38139E-22
3.62133E-03 8.85914E-22
3.72692E-03 8.37299E-22
3.83403E-03 7.91996E-22
3.94265E-03 7.49740E-22
4.05278E-03 7.10285E-22
4.16442E-03 6.73410E-22
4.27757E-03 6.38915E-22
4.39223E-03 6.06618E-22
4.50840E-03 5.76352E-22
4.62608E-03 5.47963E-22
4.74527E-03 5.21316E-22
4.86597E-03 4.96281E-22
4.98817E-03 4.72742E-22
5.11188E-03 4.50594E-22
5.23711E-03 4.29738E-22
5.36383E-03 4.10084E-22
5.49207E-03 3.91550E-22
5.62181E-03 3.74060E-22
5.75306E-03 3.57543E-22
5.88581E-03 3.41936E-22
6.02007E-03 3.27177E-22
6.15583E-03 3.13213E-22
6.29310E-03 2.99992E-22
6.43187E-03 2.87467E-22
6.57214E-03 2.75595E-22
6.71392E-03 2.64334E-22
6.85720E-03 2.53647E-22
7.00198E-03 2.43499E-22
7.14827E-03 2.33857E-22
7.29605E-03 2.24693E-22
7.44534E-03 2.15976E-22
7.59612E-03 2.07681E-22
7.97965E-03 1.88636E-22
8.37255E-03 1.71740E-22
8.77480E-03 1.56709E-22
9.18641E-03 1.43299E-22
9.60736E-03 1.31303E-22
1.00376E-02 1.20547E-22
1.04773E-02 1.10877E-22
1.09262E-02 1.02165E-22
1.13844E-02 9.42982E-23
1.18520E-02 8.71795E-23
1.23288E-02 8.07231E-23
1.28150E-02 7.48571E-23
1.33104E-02 6.95177E-23
1.38150E-02 6.46487E-23
1.43290E-02 6.02010E-23
1.48521E-02 5.61313E-23
1.53845E-02 5.24015E-23
1.59262E-02 4.89779E-23
1.64770E-02 4.58306E-23
1.70371E-02 4.29331E-23
1.76063E-02 4.02619E-23
1.81848E-02 3.77959E-23
1.87724E-02 3.55164E-23
1.93692E-02 3.34067E-23
1.99751E-02 3.14516E-23
2.05901E-02 2.96377E-23
2.12143E-02 2.79529E-23
2.18476E-02 2.63862E-23
2.24900E-02 2.49278E-23
2.31415E-02 2.35687E-23
2.38021E-02 2.23010E-23
2.44717E-02 2.11172E-23
2.51504E-02 2.00108E-23
2.58382E-02 1.89758E-23
2.65349E-02 1.80067E-23
2.72407E-02 1.70984E-23
2.79555E-02 1.62465E-23
2.86793E-02 1.54467E-23
2.94120E-02 1.46952E-23
3.01537E-02 1.39887E-23
3.09043E-02 1.33238E-23
3.16639E-02 1.26977E-23
3.24324E-02 1.21077E-23
3.32098E-02 1.15512E-23
3.39961E-02 1.10261E-23
3.47912E-02 1.05302E-23
3.55952E-02 1.00615E-23
3.64081E-02 9.61838E-24
3.72297E-02 9.19907E-24
3.80602E-02 8.80208E-24
3.88995E-02 8.42600E-24
3.97476E-02 8.06950E-24
4.06044E-02 7.73138E-24
4.14700E-02 7.41052E-24
4.23443E-02 7.10586E-24
4.32273E-02 6.81643E-24
4.41190E-02 6.54132E-24
4.50194E-02 6.27970E-24
4.59284E-02 6.03077E-24
4.68461E-02 5.79381E-24
4.87074E-02 5.35310E-24
5.06030E-02 4.95261E-24
5.25328E-02 4.58803E-24
5.44967E-02 4.25557E-24
5.64946E-02 3.95191E-24
5.85262E-02 3.67410E-24
6.05914E-02 3.41957E-24
6.26901E-02 3.18602E-24
6.48222E-02 2.97142E-24
6.69873E-02 2.77398E-24
6.91854E-02 2.59207E-24
7.14163E-02 2.42427E-24
7.36799E-02 2.26930E-24
7.59760E-02 2.12601E-24
7.83043E-02 1.99337E-24
8.06647E-02 1.87045E-24
8.30571E-02 1.75643E-24
8.54812E-02 1.65054E-24
8.79369E-02 1.55212E-24
9.04240E-02 1.46055E-24
9.29422E-02 1.37528E-24
9.54915E-02 1.29580E-24
9.80716E-02 1.22165E-24
1.00682E-01 1.15242E-24
1.03323E-01 1.08773E-24
1.05995E-01 1.02724E-24
1.08696E-01 9.70632E-25
1.11427E-01 9.17613E-25
1.14188E-01 8.67924E-25
1.16978E-01 8.21323E-25
1.19797E-01 7.77588E-25
1.22645E-01 7.36517E-25
1.25522E-01 6.97922E-25
1.28428E-01 6.61633E-25
1.31361E-01 6.27491E-25
1.34323E-01 5.95351E-25
1.37313E-01 5.65077E-25
1.40330E-01 5.36547E-25
1.43375E-01 5.09644E-25
1.46447E-01 4.84264E-25
1.49545E-01 4.60308E-25
1.52671E-01 4.37685E-25
1.55823E-01 4.16311E-25
1.59001E-01 3.96107E-25
1.62205E-01 3.77000E-25
1.65435E-01 3.58924E-25
1.68690E-01 3.41814E-25
1.71970E-01 3.25614E-25
1.75276E-01 3.10267E-25
1.78606E-01 2.95724E-25
1.81961E-01 2.81937E-25
1.85340E-01 2.68862E-25
1.88743E-01 2.56457E-25
1.92169E-01 2.44684E-25
1.95619E-01 2.33507E-25
1.99092E-01 2.22892E-25
2.02589E-01 2.12807E-25
2.06107E-01 2.03224E-25
2.09649E-01 1.94113E-25
2.13212E-01 1.85450E-25
2.16797E-01 1.77209E-25
2.20404E-01 1.69368E-25
2.24032E-01 1.61905E-25
2.27680E-01 1.54801E-25
2.31350E-01 1.48035E-25
2.35040E-01 1.41591E-25
2.38751E-01 1.35451E-25
2.42481E-01 1.29599E-25
2.46231E-01 1.24021E-25
2.50000E-01 1.18702E-25
2.53788E-01 1.13630E-25
2.57595E-01 1.08791E-25
2.61421E-01 1.04174E-25
2.65264E-01 9.97682E-26
2.69126E-01 9.55624E-26
2.73005E-01 9.15469E-26
2.76901E-01 8.77123E-26
2.80814E-01 8.40498E-26
2.84744E-01 8.05509E-26
2.88691E-01 7.72077E-26
2.92653E-01 7.40127E-26
2.96632E-01 7.09588E-26
3.00625E-01 6.80391E-26
3.04634E-01 6.52473E-26
3.08658E-01 6.25775E-26
3.12697E-01 6.00237E-26
3.16749E-01 5.75806E-26
3.20816E-01 5.52430E-26
3.24896E-01 5.30060E-26
3.28990E-01 5.08649E-26
3.33097E-01 4.88154E-26
3.37216E-01 4.68533E-26
3.41348E-01 4.49744E-26
3.45492E-01 4.31751E-26
3.49647E-01 4.14518E-26
3.53814E-01 3.98010E-26
3.57992E-01 3.82195E-26
3.62181E-01 3.67042E-26
3.66381E-01 3.52521E-26
3.70590E-01 3.38603E-26
3.74810E-01 3.25264E-26
3.79039E-01 3.12476E-26
3.83277E-01 3.00217E-26
3.87524E-01 2.88461E-26
3.91780E-01 2.77189E-26
3.96044E-01 2.66378E-26
4.00316E-01 2.56009E-26
4.04596E-01 2.46063E-26
4.08882E-01 2.36521E-26
4.13176E-01 2.27366E-26
4.17476E-01 2.18581E-26
4.21783E-01 2.10152E-26
4.26095E-01 2.02061E-26
4.30413E-01 1.94297E-26
4.34737E-01 1.86844E-26
4.39065E-01 1.79689E-26
4.43398E-01 1.72820E-26
4.47736E-01 1.66225E-26
4.52077E-01 1.59892E-26
4.56422E-01 1.53811E-26
4.60770E-01 1.47971E-26
4.65122E-01 1.42362E-26
4.69476E-01 1.36974E-26
4.73832E-01 1.31799E-26
4.78190E-01 1.26827E-26
4.82550E-01 1.22051E-26
4.86912E-01 1.17462E-26
4.91274E-01 1.13052E-26
4.95637E-01 1.08815E-26
5.00000E-01 1.04742E-26
5.04363E-01 1.00829E-26
5.08726E-01 9.70675E-27
5.13088E-01 9.34520E-27
5.17450E-01 8.99766E-27
5.21810E-01 8.66356E-27
5.26168E-01 8.34236E-27
5.30524E-01 8.03354E-27
5.34878E-01 7.73661E-27
5.39230E-01 7.45110E-27
5.43578E-01 7.17654E-27
5.47923E-01 6.91250E-27
5.52264E-01 6.65856E-27
5.56602E-01 6.41432E-27
5.60935E-01 6.17940E-27
5.65263E-01 5.95343E-27
5.69587E-01 5.73605E-27
5.73905E-01 5.52692E-27
5.78217E-01 5.32572E-27
5.82524E-01 5.13214E-27
5.86824E-01 4.94588E-27
5.91118E-01 4.76665E-27
5.95404E-01 4.59418E-27
5.99684E-01 4.42820E-27
6.03956E-01 4.26845E-27
6.08220E-01 4.11470E-27
6.12476E-01 3.96671E-27
6.16723E-01 3.82426E-27
6.20961E-01 3.68714E-27
6.25190E-01 3.55512E-27
6.29410E-01 3.42803E-27
6.33619E-01 3.30566E-27
6.37819E-01 3.18784E-27
6.42008E-01 3.07438E-27
6.46186E-01 2.96513E-27
6.50353E-01 2.85992E-27
6.54508E-01 2.75859E-27
6.58652E-01 2.66099E-27
6.62784E-01 2.56698E-27
6.66903E-01 2.47643E-27
6.71010E-01 2.38920E-27
6.75104E-01 2.30516E-27
6.79184E-01 2.22420E-27
6.83251E-01 2.14619E-27
6.87303E-01 2.07102E-27
6.91342E-01 1.99859E-27
6.95366E-01 1.92879E-27
6.99375E-01 1.86151E-27
7.03368E-01 1.79667E-27
7.07347E-01 1.73418E-27
7.11309E-01 1.67393E-27
7.15256E-01 1.61586E-27
7.19186E-01 1.55986E-27
7.23099E-01 1.50588E-27
7.26995E-01 1.45383E-27
7.30874E-01 1.40364E-27
7.34736E-01 1.35523E-27
7.38579E-01 1.30855E-27
7.42405E-01 1.26352E-27
7.46212E-01 1.22009E-27
7.50000E-01 1.17820E-27
7.53769E-01 1.13778E-27
7.57519E-01 1.09878E-27
7.61249E-01 1.06116E-27
7.64960E-01 1.02485E-27
7.68650E-01 9.89812E-28
7.72320E-01 9.55996E-28
7.75968E-01 9.23357E-28
7.79596E-01 8.91851E-28
7.83203E-01 8.61436E-28
7.86788E-01 8.32072E-28
7.90351E-01 8.03720E-28
7.93893E-01 7.76342E-28
7.97411E-01 7.49904E-28
8.00908E-01 7.24370E-28
8.04381E-01 6.99707E-28
8.07831E-01 6.75884E-28
8.11257E-01 6.52869E-28
8.14660E-01 6.30634E-28
8.18039E-01 6.09149E-28
8.21394E-01 5.88387E-28
8.24724E-01 5.68323E-28
8.28030E-01 5.48930E-28
8.31310E-01 5.30185E-28
8.34565E-01 5.12064E-28
8.37795E-01 4.94545E-28
8.40999E-01 4.77607E-28
8.44177E-01 4.61227E-28
8.47329E-01 4.45387E-28
8.50455E-01 4.30067E-28
8.53553E-01 4.15249E-28
8.56625E-01 4.00914E-28
8.59670E-01 3.87046E-28
8.62687E-01 3.73629E-28
8.65677E-01 3.60646E-28
8.68639E-01 3.48082E-28
8.71572E-01 3.35922E-28
8.74478E-01 3.24153E-28
8.77355E-01 3.12761E-28
8.80203E-01 3.01733E-28
8.83022E-01 2.91056E-28
8.85812E-01 2.80719E-28
8.88573E-01 2.70709E-28
8.91304E-01 2.61015E-28
8.94005E-01 2.51628E-28
8.96677E-01 2.42535E-28
8.99318E-01 2.33729E-28
9.01928E-01 2.25198E-28
9.04508E-01 2.16934E-28
9.07058E-01 2.08928E-28
9.09576E-01 2.01171E-28
9.12063E-01 1.93656E-28
9.14519E-01 1.86374E-28
9.16943E-01 1.79318E-28
9.19335E-01 1.72481E-28
9.21696E-01 1.65856E-28
9.24024E-01 1.59435E-28
9.26320E-01 1.53213E-28
9.28584E-01 1.47183E-28
9.30815E-01 1.41340E-28
9.33013E-01 1.35677E-28
9.35178E-01 1.30189E-28
9.37310E-01 1.24871E-28
9.39409E-01 1.19717E-28
9.41474E-01 1.14724E-28
9.43505E-01 1.09885E-28
9.45503E-01 1.05197E-28
9.47467E-01 1.00655E-28
9.49397E-01 9.62552E-29
9.51293E-01 9.19934E-29
9.53154E-01 8.78657E-29
9.54981E-01 8.38685E-29
9.56773E-01 7.99982E-29
9.58530E-01 7.62514E-29
9.60252E-01 7.26248E-29
9.61940E-01 6.91152E-29
9.63592E-01 6.57198E-29
9.65209E-01 6.24354E-29
9.66790E-01 5.92595E-29
9.68336E-01 5.61892E-29
9.69846E-01 5.32221E-29
9.71321E-01 5.03557E-29
9.72759E-01 4.75877E-29
9.74162E-01 4.49157E-29
9.75528E-01 4.23377E-29
9.76858E-01 3.98516E-29
9.78152E-01 3.74554E-29
9.79410E-01 3.51472E-29
9.80631E-01 3.29252E-29
9.81815E-01 3.07878E-29
9.82963E-01 2.87331E-29
9.84074E-01 2.67597E-29
9.85148E-01 2.48661E-29
9.86185E-01 2.30508E-29
9.87185E-01 2.13125E-29
9.88148E-01 1.96498E-29
9.89074E-01 1.80616E-29
9.89962E-01 1.65467E-29
9.90814E-01 1.51039E-29
9.91627E-01 1.37322E-29
9.92404E-01 1.24307E-29
9.93143E-01 1.11983E-29
9.93844E-01 1.00343E-29
9.94508E-01 8.93766E-30
9.95134E-01 7.90774E-30
9.95722E-01 6.94378E-30
9.96273E-01 6.04511E-30
9.96786E-01 5.21108E-30
9.97261E-01 4.44113E-30
9.97698E-01 3.73471E-30
9.98097E-01 3.09133E-30
9.98459E-01 2.51055E-30
9.98782E-01 1.99198E-30
9.99067E-01 1.53524E-30
9.99315E-01 1.14003E-30
9.99524E-01 8.06077E-31
9.99695E-01 5.33154E-31
9.99829E-01 3.21073E-31
9.99924E-01 1.69689E-31
9.99981E-01 7.89010E-32
1.00000E+00 4.86437E-32
