 #
 # Subroutine ELSEPA. Elastic scattering of electrons and positrons
 #                    by neutral atoms and positive ions
 #
 # Projectile: electron
 # Kinetic energy = 3.00000E+06 eV = 1.10248E+05 a.u.
 #
 # WARNING: High-energy factorization with free-atom DF screening.
 #          Absorption, polarization and exchange corrections are
 #          switched off.
 #          Phase shifts are calculated for the bare nucleus.
 #          Scattering amplitudes are not evaluated.
 #
 # Element: Dy,  Z =  66,  atomic weight = 1.62500E+02 g/mol
 #
 # Nuclear model: Fermi distribution
 #                Average radius = 5.83895E-13 cm
 #                Skin thickness = 5.46000E-14 cm
 #
 # Number of electrons = 66
 #
 # Total elastic cross section = 7.28349E-18 cm**2 = 2.60098E-01 a0**2
 # 1st transport cross section = 5.58400E-22 cm**2 = 1.99408E-05 a0**2
 # 2nd transport cross section = 1.51457E-21 cm**2 = 5.40862E-05 a0**2
 #
 #
 # Differential cross section:                       MU=(1-COS(THETA))/2
 #
 #  THETA        MU          DCS          DCS        Sherman      error
 #  (deg)                 (cm**2/sr)   (a0**2/sr)    function
 #----------------------------------------------------------------------
0.00000E+00 9.66196E-13
7.61557E-13 9.66191E-13
1.18994E-12 9.66188E-13
1.71346E-12 9.66185E-13
2.33225E-12 9.66180E-13
3.04617E-12 9.66175E-13
3.85530E-12 9.66169E-13
4.75964E-12 9.66163E-13
5.75917E-12 9.66156E-13
6.85391E-12 9.66148E-13
8.04379E-12 9.66140E-13
9.32893E-12 9.66130E-13
1.07092E-11 9.66120E-13
1.21847E-11 9.66110E-13
1.37554E-11 9.66099E-13
1.54213E-11 9.66087E-13
1.71823E-11 9.66074E-13
1.90386E-11 9.66061E-13
2.09900E-11 9.66047E-13
2.30367E-11 9.66032E-13
2.51785E-11 9.66017E-13
2.74156E-11 9.66001E-13
2.97478E-11 9.65984E-13
3.21752E-11 9.65967E-13
3.46979E-11 9.65949E-13
3.73157E-11 9.65930E-13
4.00286E-11 9.65911E-13
4.28368E-11 9.65891E-13
4.57402E-11 9.65870E-13
4.87388E-11 9.65849E-13
5.18325E-11 9.65826E-13
5.50215E-11 9.65804E-13
5.83057E-11 9.65780E-13
6.16850E-11 9.65756E-13
6.51595E-11 9.65731E-13
6.87293E-11 9.65705E-13
7.23943E-11 9.65679E-13
7.61544E-11 9.65652E-13
1.18991E-10 9.65346E-13
1.71347E-10 9.64971E-13
2.33223E-10 9.64529E-13
3.04617E-10 9.64018E-13
3.85531E-10 9.63440E-13
4.75965E-10 9.62795E-13
5.75917E-10 9.62082E-13
6.85389E-10 9.61303E-13
8.04380E-10 9.60457E-13
9.32891E-10 9.59545E-13
1.07092E-09 9.58566E-13
1.21847E-09 9.57522E-13
1.37554E-09 9.56413E-13
1.54213E-09 9.55239E-13
1.71823E-09 9.54000E-13
1.90386E-09 9.52697E-13
2.09900E-09 9.51330E-13
2.30367E-09 9.49901E-13
2.51785E-09 9.48408E-13
2.74156E-09 9.46854E-13
2.97478E-09 9.45238E-13
3.21752E-09 9.43560E-13
3.46978E-09 9.41823E-13
3.73156E-09 9.40025E-13
4.00286E-09 9.38168E-13
4.28368E-09 9.36252E-13
4.57402E-09 9.34279E-13
4.87388E-09 9.32247E-13
5.18326E-09 9.30159E-13
5.50215E-09 9.28016E-13
5.83057E-09 9.25816E-13
6.16850E-09 9.23562E-13
6.51596E-09 9.21254E-13
6.87293E-09 9.18893E-13
7.23942E-09 9.16480E-13
7.61544E-09 9.14015E-13
1.18991E-08 8.86705E-13
1.71347E-08 8.55159E-13
2.33223E-08 8.20405E-13
3.04617E-08 7.83018E-13
3.85531E-08 7.44288E-13
4.75965E-08 7.04764E-13
5.75917E-08 6.65070E-13
6.85389E-08 6.26308E-13
8.04380E-08 5.88429E-13
9.32891E-08 5.52033E-13
1.07092E-07 5.17553E-13
1.21847E-07 4.84783E-13
1.37554E-07 4.54208E-13
1.54213E-07 4.25669E-13
1.71823E-07 3.98993E-13
1.90386E-07 3.74543E-13
2.09900E-07 3.51837E-13
2.30367E-07 3.30862E-13
2.51785E-07 3.11665E-13
2.74156E-07 2.93894E-13
2.97478E-07 2.77564E-13
3.21752E-07 2.62536E-13
3.46978E-07 2.48629E-13
3.73156E-07 2.35832E-13
4.00286E-07 2.23977E-13
4.28368E-07 2.12984E-13
4.57402E-07 2.02797E-13
4.87388E-07 1.93309E-13
5.18325E-07 1.84472E-13
5.50215E-07 1.76208E-13
5.83057E-07 1.68482E-13
6.16850E-07 1.61230E-13
6.51596E-07 1.54408E-13
6.87293E-07 1.48005E-13
7.23942E-07 1.41937E-13
7.61543E-07 1.36214E-13
1.18991E-06 9.25685E-14
1.71347E-06 6.47976E-14
2.33223E-06 4.56827E-14
3.04617E-06 3.37078E-14
3.85531E-06 2.49694E-14
4.75964E-06 1.89865E-14
5.75916E-06 1.47379E-14
6.85388E-06 1.15199E-14
8.04378E-06 9.17389E-15
9.32888E-06 7.38258E-15
1.07092E-05 5.98524E-15
1.21846E-05 4.91055E-15
1.37553E-05 4.04979E-15
1.54212E-05 3.36606E-15
1.71822E-05 2.82183E-15
1.90385E-05 2.37361E-15
2.09899E-05 2.01433E-15
2.30365E-05 1.72006E-15
2.51783E-05 1.47569E-15
2.74153E-05 1.27409E-15
2.97475E-05 1.10566E-15
3.21749E-05 9.64451E-16
3.46974E-05 8.45930E-16
3.73152E-05 7.45287E-16
4.00281E-05 6.59721E-16
4.28362E-05 5.86605E-16
4.57395E-05 5.23529E-16
4.87380E-05 4.68927E-16
5.18317E-05 4.21269E-16
5.50205E-05 3.79573E-16
5.83045E-05 3.43114E-16
6.16838E-05 3.11003E-16
6.51582E-05 2.82643E-16
6.87277E-05 2.57573E-16
7.23925E-05 2.35193E-16
7.61524E-05 2.15243E-16
9.21439E-05 1.53764E-16
1.09658E-04 1.12594E-16
1.28695E-04 8.42714E-17
1.49255E-04 6.42665E-17
1.71338E-04 4.98346E-17
1.94942E-04 3.91970E-17
2.20070E-04 3.12546E-17
2.46720E-04 2.52320E-17
2.74892E-04 2.06055E-17
3.04586E-04 1.69802E-17
3.35803E-04 1.41269E-17
3.68542E-04 1.18523E-17
4.02802E-04 1.00151E-17
4.38585E-04 8.52447E-18
4.75889E-04 7.30141E-18
5.14715E-04 6.29022E-18
5.55063E-04 5.44994E-18
5.96931E-04 4.74472E-18
6.40321E-04 4.15064E-18
6.85233E-04 3.64750E-18
7.31665E-04 3.21764E-18
7.79618E-04 2.84988E-18
8.29092E-04 2.53334E-18
8.80086E-04 2.25939E-18
9.32601E-04 2.02179E-18
9.86636E-04 1.81454E-18
1.04219E-03 1.63320E-18
1.09927E-03 1.47413E-18
1.15786E-03 1.33382E-18
1.21797E-03 1.20990E-18
1.27961E-03 1.10011E-18
1.34276E-03 1.00242E-18
1.40743E-03 9.15413E-19
1.47362E-03 8.37646E-19
1.54133E-03 7.67953E-19
1.61056E-03 7.05409E-19
1.68131E-03 6.49085E-19
1.75357E-03 5.98290E-19
1.82735E-03 5.52400E-19
1.90265E-03 5.10803E-19
1.97947E-03 4.73075E-19
2.05780E-03 4.38781E-19
2.13765E-03 4.07534E-19
2.21902E-03 3.79041E-19
2.30190E-03 3.52998E-19
2.38630E-03 3.29159E-19
2.47222E-03 3.07315E-19
2.55965E-03 2.87252E-19
2.64859E-03 2.68811E-19
2.73905E-03 2.51836E-19
2.83103E-03 2.36180E-19
2.92452E-03 2.21732E-19
3.01952E-03 2.08378E-19
3.11604E-03 1.96017E-19
3.21407E-03 1.84568E-19
3.31362E-03 1.73946E-19
3.41468E-03 1.64082E-19
3.51725E-03 1.54913E-19
3.62133E-03 1.46378E-19
3.72692E-03 1.38428E-19
3.83403E-03 1.31015E-19
3.94265E-03 1.24093E-19
4.05278E-03 1.17627E-19
4.16442E-03 1.11580E-19
4.27757E-03 1.05920E-19
4.39223E-03 1.00617E-19
4.50840E-03 9.56441E-20
4.62608E-03 9.09775E-20
4.74527E-03 8.65951E-20
4.86597E-03 8.24748E-20
4.98817E-03 7.85995E-20
5.11188E-03 7.49512E-20
5.23711E-03 7.15138E-20
5.36383E-03 6.82736E-20
5.49207E-03 6.52163E-20
5.62181E-03 6.23300E-20
5.75306E-03 5.96035E-20
5.88581E-03 5.70256E-20
6.02007E-03 5.45872E-20
6.15583E-03 5.22792E-20
6.29310E-03 5.00930E-20
6.43187E-03 4.80213E-20
6.57214E-03 4.60568E-20
6.71392E-03 4.41928E-20
6.85720E-03 4.24233E-20
7.00198E-03 4.07424E-20
7.14827E-03 3.91450E-20
7.29605E-03 3.76262E-20
7.44534E-03 3.61809E-20
7.59612E-03 3.48054E-20
7.97965E-03 3.16452E-20
8.37255E-03 2.88399E-20
8.77480E-03 2.63425E-20
9.18641E-03 2.41129E-20
9.60736E-03 2.21174E-20
1.00376E-02 2.03268E-20
1.04773E-02 1.87162E-20
1.09262E-02 1.72643E-20
1.13844E-02 1.59525E-20
1.18520E-02 1.47648E-20
1.23288E-02 1.36873E-20
1.28150E-02 1.27078E-20
1.33104E-02 1.18158E-20
1.38150E-02 1.10020E-20
1.43290E-02 1.02582E-20
1.48521E-02 9.57726E-21
1.53845E-02 8.95291E-21
1.59262E-02 8.37950E-21
1.64770E-02 7.85213E-21
1.70371E-02 7.36636E-21
1.76063E-02 6.91830E-21
1.81848E-02 6.50446E-21
1.87724E-02 6.12170E-21
1.93692E-02 5.76724E-21
1.99751E-02 5.43864E-21
2.05901E-02 5.13356E-21
2.12143E-02 4.85005E-21
2.18476E-02 4.58628E-21
2.24900E-02 4.34057E-21
2.31415E-02 4.11148E-21
2.38021E-02 3.89766E-21
2.44717E-02 3.69786E-21
2.51504E-02 3.51103E-21
2.58382E-02 3.33611E-21
2.65349E-02 3.17222E-21
2.72407E-02 3.01853E-21
2.79555E-02 2.87425E-21
2.86793E-02 2.73872E-21
2.94120E-02 2.61129E-21
3.01537E-02 2.49137E-21
3.09043E-02 2.37845E-21
3.16639E-02 2.27202E-21
3.24324E-02 2.17164E-21
3.32098E-02 2.07690E-21
3.39961E-02 1.98740E-21
3.47912E-02 1.90281E-21
3.55952E-02 1.82281E-21
3.64081E-02 1.74708E-21
3.72297E-02 1.67536E-21
3.80602E-02 1.60739E-21
3.88995E-02 1.54294E-21
3.97476E-02 1.48178E-21
4.06044E-02 1.42371E-21
4.14700E-02 1.36855E-21
4.23443E-02 1.31611E-21
4.32273E-02 1.26624E-21
4.41190E-02 1.21878E-21
4.50194E-02 1.17360E-21
4.59284E-02 1.13055E-21
4.68461E-02 1.08953E-21
4.87074E-02 1.01308E-21
5.06030E-02 9.43433E-22
5.25328E-02 8.79857E-22
5.44967E-02 8.21717E-22
5.64946E-02 7.68455E-22
5.85262E-02 7.19581E-22
6.05914E-02 6.74659E-22
6.26901E-02 6.33305E-22
6.48222E-02 5.95178E-22
6.69873E-02 5.59974E-22
6.91854E-02 5.27424E-22
7.14163E-02 4.97287E-22
7.36799E-02 4.69346E-22
7.59760E-02 4.43408E-22
7.83043E-02 4.19300E-22
8.06647E-02 3.96865E-22
8.30571E-02 3.75964E-22
8.54812E-02 3.56469E-22
8.79369E-02 3.38266E-22
9.04240E-02 3.21251E-22
9.29422E-02 3.05330E-22
9.54915E-02 2.90418E-22
9.80716E-02 2.76437E-22
1.00682E-01 2.63316E-22
1.03323E-01 2.50993E-22
1.05995E-01 2.39406E-22
1.08696E-01 2.28504E-22
1.11427E-01 2.18237E-22
1.14188E-01 2.08559E-22
1.16978E-01 1.99431E-22
1.19797E-01 1.90812E-22
1.22645E-01 1.82670E-22
1.25522E-01 1.74972E-22
1.28428E-01 1.67688E-22
1.31361E-01 1.60792E-22
1.34323E-01 1.54258E-22
1.37313E-01 1.48063E-22
1.40330E-01 1.42185E-22
1.43375E-01 1.36605E-22
1.46447E-01 1.31304E-22
1.49545E-01 1.26265E-22
1.52671E-01 1.21473E-22
1.55823E-01 1.16912E-22
1.59001E-01 1.12569E-22
1.62205E-01 1.08432E-22
1.65435E-01 1.04487E-22
1.68690E-01 1.00726E-22
1.71970E-01 9.71356E-23
1.75276E-01 9.37080E-23
1.78606E-01 9.04338E-23
1.81961E-01 8.73046E-23
1.85340E-01 8.43125E-23
1.88743E-01 8.14502E-23
1.92169E-01 7.87106E-23
1.95619E-01 7.60876E-23
1.99092E-01 7.35748E-23
2.02589E-01 7.11667E-23
2.06107E-01 6.88580E-23
2.09649E-01 6.66436E-23
2.13212E-01 6.45187E-23
2.16797E-01 6.24790E-23
2.20404E-01 6.05203E-23
2.24032E-01 5.86386E-23
2.27680E-01 5.68302E-23
2.31350E-01 5.50916E-23
2.35040E-01 5.34195E-23
2.38751E-01 5.18108E-23
2.42481E-01 5.02624E-23
2.46231E-01 4.87718E-23
2.50000E-01 4.73362E-23
2.53788E-01 4.59531E-23
2.57595E-01 4.46202E-23
2.61421E-01 4.33352E-23
2.65264E-01 4.20961E-23
2.69126E-01 4.09008E-23
2.73005E-01 3.97474E-23
2.76901E-01 3.86341E-23
2.80814E-01 3.75593E-23
2.84744E-01 3.65212E-23
2.88691E-01 3.55183E-23
2.92653E-01 3.45493E-23
2.96632E-01 3.36126E-23
3.00625E-01 3.27069E-23
3.04634E-01 3.18311E-23
3.08658E-01 3.09839E-23
3.12697E-01 3.01641E-23
3.16749E-01 2.93707E-23
3.20816E-01 2.86026E-23
3.24896E-01 2.78588E-23
3.28990E-01 2.71384E-23
3.33097E-01 2.64405E-23
3.37216E-01 2.57643E-23
3.41348E-01 2.51088E-23
3.45492E-01 2.44733E-23
3.49647E-01 2.38572E-23
3.53814E-01 2.32596E-23
3.57992E-01 2.26799E-23
3.62181E-01 2.21174E-23
3.66381E-01 2.15715E-23
3.70590E-01 2.10416E-23
3.74810E-01 2.05271E-23
3.79039E-01 2.00275E-23
3.83277E-01 1.95423E-23
3.87524E-01 1.90709E-23
3.91780E-01 1.86129E-23
3.96044E-01 1.81678E-23
4.00316E-01 1.77351E-23
4.04596E-01 1.73145E-23
4.08882E-01 1.69055E-23
4.13176E-01 1.65077E-23
4.17476E-01 1.61208E-23
4.21783E-01 1.57444E-23
4.26095E-01 1.53782E-23
4.30413E-01 1.50218E-23
4.34737E-01 1.46749E-23
4.39065E-01 1.43371E-23
4.43398E-01 1.40083E-23
4.47736E-01 1.36881E-23
4.52077E-01 1.33762E-23
4.56422E-01 1.30724E-23
4.60770E-01 1.27764E-23
4.65122E-01 1.24879E-23
4.69476E-01 1.22069E-23
4.73832E-01 1.19329E-23
4.78190E-01 1.16658E-23
4.82550E-01 1.14055E-23
4.86912E-01 1.11516E-23
4.91274E-01 1.09040E-23
4.95637E-01 1.06625E-23
5.00000E-01 1.04269E-23
5.04363E-01 1.01971E-23
5.08726E-01 9.97280E-24
5.13088E-01 9.75395E-24
5.17450E-01 9.54036E-24
5.21810E-01 9.33187E-24
5.26168E-01 9.12834E-24
5.30524E-01 8.92962E-24
5.34878E-01 8.73559E-24
5.39230E-01 8.54610E-24
5.43578E-01 8.36103E-24
5.47923E-01 8.18026E-24
5.52264E-01 8.00366E-24
5.56602E-01 7.83112E-24
5.60935E-01 7.66253E-24
5.65263E-01 7.49779E-24
5.69587E-01 7.33678E-24
5.73905E-01 7.17940E-24
5.78217E-01 7.02556E-24
5.82524E-01 6.87517E-24
5.86824E-01 6.72813E-24
5.91118E-01 6.58436E-24
5.95404E-01 6.44376E-24
5.99684E-01 6.30626E-24
6.03956E-01 6.17177E-24
6.08220E-01 6.04022E-24
6.12476E-01 5.91153E-24
6.16723E-01 5.78562E-24
6.20961E-01 5.66244E-24
6.25190E-01 5.54190E-24
6.29410E-01 5.42394E-24
6.33619E-01 5.30849E-24
6.37819E-01 5.19550E-24
6.42008E-01 5.08490E-24
6.46186E-01 4.97663E-24
6.50353E-01 4.87064E-24
6.54508E-01 4.76687E-24
6.58652E-01 4.66526E-24
6.62784E-01 4.56577E-24
6.66903E-01 4.46835E-24
6.71010E-01 4.37293E-24
6.75104E-01 4.27948E-24
6.79184E-01 4.18795E-24
6.83251E-01 4.09830E-24
6.87303E-01 4.01047E-24
6.91342E-01 3.92443E-24
6.95366E-01 3.84014E-24
6.99375E-01 3.75755E-24
7.03368E-01 3.67662E-24
7.07347E-01 3.59733E-24
7.11309E-01 3.51962E-24
7.15256E-01 3.44347E-24
7.19186E-01 3.36884E-24
7.23099E-01 3.29570E-24
7.26995E-01 3.22400E-24
7.30874E-01 3.15373E-24
7.34736E-01 3.08485E-24
7.38579E-01 3.01732E-24
7.42405E-01 2.95113E-24
7.46212E-01 2.88623E-24
7.50000E-01 2.82261E-24
7.53769E-01 2.76023E-24
7.57519E-01 2.69907E-24
7.61249E-01 2.63910E-24
7.64960E-01 2.58030E-24
7.68650E-01 2.52263E-24
7.72320E-01 2.46609E-24
7.75968E-01 2.41064E-24
7.79596E-01 2.35627E-24
7.83203E-01 2.30294E-24
7.86788E-01 2.25065E-24
7.90351E-01 2.19936E-24
7.93893E-01 2.14906E-24
7.97411E-01 2.09973E-24
8.00908E-01 2.05134E-24
8.04381E-01 2.00388E-24
8.07831E-01 1.95734E-24
8.11257E-01 1.91169E-24
8.14660E-01 1.86691E-24
8.18039E-01 1.82299E-24
8.21394E-01 1.77992E-24
8.24724E-01 1.73767E-24
8.28030E-01 1.69622E-24
8.31310E-01 1.65558E-24
8.34565E-01 1.61571E-24
8.37795E-01 1.57661E-24
8.40999E-01 1.53825E-24
8.44177E-01 1.50064E-24
8.47329E-01 1.46375E-24
8.50455E-01 1.42756E-24
8.53553E-01 1.39208E-24
8.56625E-01 1.35727E-24
8.59670E-01 1.32315E-24
8.62687E-01 1.28968E-24
8.65677E-01 1.25685E-24
8.68639E-01 1.22467E-24
8.71572E-01 1.19311E-24
8.74478E-01 1.16217E-24
8.77355E-01 1.13183E-24
8.80203E-01 1.10209E-24
8.83022E-01 1.07293E-24
8.85812E-01 1.04434E-24
8.88573E-01 1.01632E-24
8.91304E-01 9.88856E-25
8.94005E-01 9.61938E-25
8.96677E-01 9.35556E-25
8.99318E-01 9.09704E-25
9.01928E-01 8.84372E-25
9.04508E-01 8.59553E-25
9.07058E-01 8.35237E-25
9.09576E-01 8.11418E-25
9.12063E-01 7.88087E-25
9.14519E-01 7.65238E-25
9.16943E-01 7.42862E-25
9.19335E-01 7.20954E-25
9.21696E-01 6.99506E-25
9.24024E-01 6.78510E-25
9.26320E-01 6.57962E-25
9.28584E-01 6.37854E-25
9.30815E-01 6.18179E-25
9.33013E-01 5.98933E-25
9.35178E-01 5.80109E-25
9.37310E-01 5.61702E-25
9.39409E-01 5.43704E-25
9.41474E-01 5.26113E-25
9.43505E-01 5.08920E-25
9.45503E-01 4.92123E-25
9.47467E-01 4.75715E-25
9.49397E-01 4.59692E-25
9.51293E-01 4.44049E-25
9.53154E-01 4.28781E-25
9.54981E-01 4.13884E-25
9.56773E-01 3.99353E-25
9.58530E-01 3.85184E-25
9.60252E-01 3.71373E-25
9.61940E-01 3.57915E-25
9.63592E-01 3.44807E-25
9.65209E-01 3.32046E-25
9.66790E-01 3.19627E-25
9.68336E-01 3.07546E-25
9.69846E-01 2.95801E-25
9.71321E-01 2.84387E-25
9.72759E-01 2.73302E-25
9.74162E-01 2.62542E-25
9.75528E-01 2.52105E-25
9.76858E-01 2.41987E-25
9.78152E-01 2.32185E-25
9.79410E-01 2.22697E-25
9.80631E-01 2.13520E-25
9.81815E-01 2.04651E-25
9.82963E-01 1.96088E-25
9.84074E-01 1.87828E-25
9.85148E-01 1.79870E-25
9.86185E-01 1.72210E-25
9.87185E-01 1.64847E-25
9.88148E-01 1.57779E-25
9.89074E-01 1.51003E-25
9.89962E-01 1.44518E-25
9.90814E-01 1.38322E-25
9.91627E-01 1.32413E-25
9.92404E-01 1.26790E-25
9.93143E-01 1.21451E-25
9.93844E-01 1.16395E-25
9.94508E-01 1.11619E-25
9.95134E-01 1.07124E-25
9.95722E-01 1.02907E-25
9.96273E-01 9.89676E-26
9.96786E-01 9.53045E-26
9.97261E-01 9.19168E-26
9.97698E-01 8.88036E-26
9.98097E-01 8.59639E-26
9.98459E-01 8.33970E-26
9.98782E-01 8.11021E-26
9.99067E-01 7.90788E-26
9.99315E-01 7.73263E-26
9.99524E-01 7.58443E-26
9.99695E-01 7.46322E-26
9.99829E-01 7.36899E-26
9.99924E-01 7.30170E-26
9.99981E-01 7.26133E-26
1.00000E+00 7.24787E-26
