 #
 # Subroutine ELSEPA. Elastic scattering of electrons and positrons
 #                    by neutral atoms and positive ions
 #
 # Projectile: electron
 # Kinetic energy = 2.00000E+07 eV = 7.34987E+05 a.u.
 #
 # WARNING: High-energy factorization with free-atom DF screening.
 #          Absorption, polarization and exchange corrections are
 #          switched off.
 #          Phase shifts are calculated for the bare nucleus.
 #          Scattering amplitudes are not evaluated.
 #
 # Element: Dy,  Z =  66,  atomic weight = 1.62500E+02 g/mol
 #
 # Nuclear model: Fermi distribution
 #                Average radius = 5.83895E-13 cm
 #                Skin thickness = 5.46000E-14 cm
 #
 # Number of electrons = 66
 #
 # Total elastic cross section = 7.12588E-18 cm**2 = 2.54470E-01 a0**2
 # 1st transport cross section = 1.95285E-23 cm**2 = 6.97377E-07 a0**2
 # 2nd transport cross section = 5.53556E-23 cm**2 = 1.97678E-06 a0**2
 #
 #
 # Differential cross section:                       MU=(1-COS(THETA))/2
 #
 #  THETA        MU          DCS          DCS        Sherman      error
 #  (deg)                 (cm**2/sr)   (a0**2/sr)    function
 #----------------------------------------------------------------------
0.00000E+00 3.29745E-11
7.61557E-13 3.29679E-11
1.18994E-12 3.29642E-11
1.71346E-12 3.29597E-11
2.33225E-12 3.29544E-11
3.04617E-12 3.29483E-11
3.85530E-12 3.29414E-11
4.75964E-12 3.29337E-11
5.75917E-12 3.29252E-11
6.85391E-12 3.29158E-11
8.04379E-12 3.29057E-11
9.32893E-12 3.28947E-11
1.07092E-11 3.28830E-11
1.21847E-11 3.28704E-11
1.37554E-11 3.28571E-11
1.54213E-11 3.28429E-11
1.71823E-11 3.28280E-11
1.90386E-11 3.28122E-11
2.09900E-11 3.27957E-11
2.30367E-11 3.27784E-11
2.51785E-11 3.27602E-11
2.74156E-11 3.27413E-11
2.97478E-11 3.27217E-11
3.21752E-11 3.27012E-11
3.46979E-11 3.26799E-11
3.73157E-11 3.26579E-11
4.00286E-11 3.26351E-11
4.28368E-11 3.26115E-11
4.57402E-11 3.25872E-11
4.87388E-11 3.25621E-11
5.18325E-11 3.25362E-11
5.50215E-11 3.25096E-11
5.83057E-11 3.24822E-11
6.16850E-11 3.24541E-11
6.51595E-11 3.24252E-11
6.87293E-11 3.23955E-11
7.23943E-11 3.23652E-11
7.61544E-11 3.23341E-11
1.18991E-10 3.19831E-11
1.71347E-10 3.15628E-11
2.33223E-10 3.10780E-11
3.04617E-10 3.05340E-11
3.85531E-10 2.99367E-11
4.75965E-10 2.92924E-11
5.75917E-10 2.86090E-11
6.85389E-10 2.78925E-11
8.04380E-10 2.71432E-11
9.32891E-10 2.63762E-11
1.07092E-09 2.55935E-11
1.21847E-09 2.47945E-11
1.37554E-09 2.40015E-11
1.54213E-09 2.32026E-11
1.71823E-09 2.24066E-11
1.90386E-09 2.16266E-11
2.09900E-09 2.08509E-11
2.30367E-09 2.00951E-11
2.51785E-09 1.93576E-11
2.74156E-09 1.86318E-11
2.97478E-09 1.79390E-11
3.21752E-09 1.72627E-11
3.46978E-09 1.66071E-11
3.73156E-09 1.59834E-11
4.00286E-09 1.53769E-11
4.28368E-09 1.47984E-11
4.57402E-09 1.42453E-11
4.87388E-09 1.37101E-11
5.18326E-09 1.32066E-11
5.50215E-09 1.27221E-11
5.83057E-09 1.22576E-11
6.16850E-09 1.18201E-11
6.51596E-09 1.13988E-11
6.87293E-09 1.09990E-11
7.23942E-09 1.06194E-11
7.61544E-09 1.02545E-11
1.18991E-08 7.44422E-12
1.71347E-08 5.64153E-12
2.33223E-08 4.40427E-12
3.04617E-08 3.50179E-12
3.85531E-08 2.81642E-12
4.75965E-08 2.28479E-12
5.75917E-08 1.85654E-12
6.85389E-08 1.51555E-12
8.04380E-08 1.26558E-12
9.32891E-08 1.05621E-12
1.07092E-07 8.86351E-13
1.21847E-07 7.56019E-13
1.37554E-07 6.40913E-13
1.54213E-07 5.49927E-13
1.71823E-07 4.75528E-13
1.90386E-07 4.10862E-13
2.09900E-07 3.58574E-13
2.30367E-07 3.13458E-13
2.51785E-07 2.74908E-13
2.74156E-07 2.42987E-13
2.97478E-07 2.14281E-13
3.21752E-07 1.90063E-13
3.46978E-07 1.69294E-13
3.73156E-07 1.50708E-13
4.00286E-07 1.34885E-13
4.28368E-07 1.20892E-13
4.57402E-07 1.08551E-13
4.87388E-07 9.79000E-14
5.18325E-07 8.82793E-14
5.50215E-07 7.98695E-14
5.83057E-07 7.24725E-14
6.16850E-07 6.58038E-14
6.51596E-07 5.99443E-14
6.87293E-07 5.47017E-14
7.23942E-07 5.00050E-14
7.61543E-07 4.58394E-14
1.18991E-06 2.10931E-14
1.71347E-06 1.11772E-14
2.33223E-06 6.51501E-15
3.04617E-06 4.04779E-15
3.85531E-06 2.63948E-15
4.75964E-06 1.79114E-15
5.75916E-06 1.25541E-15
6.85388E-06 9.06289E-16
8.04378E-06 6.70539E-16
9.32888E-06 5.06758E-16
1.07092E-05 3.90188E-16
1.21846E-05 3.05309E-16
1.37553E-05 2.42357E-16
1.54212E-05 1.94857E-16
1.71822E-05 1.58462E-16
1.90385E-05 1.30132E-16
2.09899E-05 1.07968E-16
2.30365E-05 9.03186E-17
2.51783E-05 7.61145E-17
2.74153E-05 6.45806E-17
2.97475E-05 5.51424E-17
3.21749E-05 4.73649E-17
3.46974E-05 4.09132E-17
3.73152E-05 3.55265E-17
4.00281E-05 3.09999E-17
4.28362E-05 2.71723E-17
4.57395E-05 2.39162E-17
4.87380E-05 2.11316E-17
5.18317E-05 1.87389E-17
5.50205E-05 1.66741E-17
5.83045E-05 1.48853E-17
6.16838E-05 1.33300E-17
6.51582E-05 1.19728E-17
6.87277E-05 1.07843E-17
7.23925E-05 9.73996E-18
7.61524E-05 8.81922E-18
9.21439E-05 6.06445E-18
1.09658E-04 4.30601E-18
1.28695E-04 3.14181E-18
1.49255E-04 2.34591E-18
1.71338E-04 1.78718E-18
1.94942E-04 1.38546E-18
2.20070E-04 1.09068E-18
2.46720E-04 8.70392E-19
2.74892E-04 7.03080E-19
3.04586E-04 5.74162E-19
3.35803E-04 4.73519E-19
3.68542E-04 3.94024E-19
4.02802E-04 3.30555E-19
4.38585E-04 2.79382E-19
4.75889E-04 2.37755E-19
5.14715E-04 2.03611E-19
5.55063E-04 1.75391E-19
5.96931E-04 1.51903E-19
6.40321E-04 1.32225E-19
6.85233E-04 1.15639E-19
7.31665E-04 1.01578E-19
7.79618E-04 8.95959E-20
8.29092E-04 7.93326E-20
8.80086E-04 7.05012E-20
9.32601E-04 6.28678E-20
9.86636E-04 5.62429E-20
1.04219E-03 5.04700E-20
1.09927E-03 4.54214E-20
1.15786E-03 4.09901E-20
1.21797E-03 3.70880E-20
1.27961E-03 3.36407E-20
1.34276E-03 3.05861E-20
1.40743E-03 2.78716E-20
1.47362E-03 2.54527E-20
1.54133E-03 2.32915E-20
1.61056E-03 2.13559E-20
1.68131E-03 1.96179E-20
1.75357E-03 1.80539E-20
1.82735E-03 1.66433E-20
1.90265E-03 1.53685E-20
1.97947E-03 1.42139E-20
2.05780E-03 1.31663E-20
2.13765E-03 1.22139E-20
2.21902E-03 1.13465E-20
2.30190E-03 1.05551E-20
2.38630E-03 9.83187E-21
2.47222E-03 9.16988E-21
2.55965E-03 8.56298E-21
2.64859E-03 8.00575E-21
2.73905E-03 7.49337E-21
2.83103E-03 7.02158E-21
2.92452E-03 6.58656E-21
3.01952E-03 6.18493E-21
3.11604E-03 5.81364E-21
3.21407E-03 5.46999E-21
3.31362E-03 5.15151E-21
3.41468E-03 4.85604E-21
3.51725E-03 4.58160E-21
3.62133E-03 4.32641E-21
3.72692E-03 4.08886E-21
3.83403E-03 3.86752E-21
3.94265E-03 3.66107E-21
4.05278E-03 3.46832E-21
4.16442E-03 3.28819E-21
4.27757E-03 3.11969E-21
4.39223E-03 2.96194E-21
4.50840E-03 2.81411E-21
4.62608E-03 2.67547E-21
4.74527E-03 2.54533E-21
4.86597E-03 2.42308E-21
4.98817E-03 2.30814E-21
5.11188E-03 2.20000E-21
5.23711E-03 2.09818E-21
5.36383E-03 2.00224E-21
5.49207E-03 1.91176E-21
5.62181E-03 1.82639E-21
5.75306E-03 1.74577E-21
5.88581E-03 1.66960E-21
6.02007E-03 1.59758E-21
6.15583E-03 1.52944E-21
6.29310E-03 1.46493E-21
6.43187E-03 1.40382E-21
6.57214E-03 1.34590E-21
6.71392E-03 1.29096E-21
6.85720E-03 1.23883E-21
7.00198E-03 1.18934E-21
7.14827E-03 1.14231E-21
7.29605E-03 1.09762E-21
7.44534E-03 1.05511E-21
7.59612E-03 1.01466E-21
7.97965E-03 9.21802E-22
8.37255E-03 8.39438E-22
8.77480E-03 7.66172E-22
9.18641E-03 7.00820E-22
9.60736E-03 6.42369E-22
1.00376E-02 5.89959E-22
1.04773E-02 5.42852E-22
1.09262E-02 5.00414E-22
1.13844E-02 4.62094E-22
1.18520E-02 4.27421E-22
1.23288E-02 3.95983E-22
1.28150E-02 3.67422E-22
1.33104E-02 3.41425E-22
1.38150E-02 3.17719E-22
1.43290E-02 2.96065E-22
1.48521E-02 2.76251E-22
1.53845E-02 2.58091E-22
1.59262E-02 2.41421E-22
1.64770E-02 2.26096E-22
1.70371E-02 2.11986E-22
1.76063E-02 1.98976E-22
1.81848E-02 1.86965E-22
1.87724E-02 1.75861E-22
1.93692E-02 1.65582E-22
1.99751E-02 1.56055E-22
2.05901E-02 1.47215E-22
2.12143E-02 1.39002E-22
2.18476E-02 1.31363E-22
2.24900E-02 1.24250E-22
2.31415E-02 1.17620E-22
2.38021E-02 1.11434E-22
2.44717E-02 1.05656E-22
2.51504E-02 1.00254E-22
2.58382E-02 9.51991E-23
2.65349E-02 9.04637E-23
2.72407E-02 8.60243E-23
2.79555E-02 8.18584E-23
2.86793E-02 7.79460E-23
2.94120E-02 7.42685E-23
3.01537E-02 7.08091E-23
3.09043E-02 6.75521E-23
3.16639E-02 6.44835E-23
3.24324E-02 6.15902E-23
3.32098E-02 5.88601E-23
3.39961E-02 5.62821E-23
3.47912E-02 5.38462E-23
3.55952E-02 5.15428E-23
3.64081E-02 4.93634E-23
3.72297E-02 4.72999E-23
3.80602E-02 4.53449E-23
3.88995E-02 4.34916E-23
3.97476E-02 4.17336E-23
4.06044E-02 4.00649E-23
4.14700E-02 3.84802E-23
4.23443E-02 3.69744E-23
4.32273E-02 3.55427E-23
4.41190E-02 3.41807E-23
4.50194E-02 3.28844E-23
4.59284E-02 3.16500E-23
4.68461E-02 3.04738E-23
4.87074E-02 2.82833E-23
5.06030E-02 2.62890E-23
5.25328E-02 2.44699E-23
5.44967E-02 2.28077E-23
5.64946E-02 2.12861E-23
5.85262E-02 1.98910E-23
6.05914E-02 1.86095E-23
6.26901E-02 1.74308E-23
6.48222E-02 1.63450E-23
6.69873E-02 1.53434E-23
6.91854E-02 1.44182E-23
7.14163E-02 1.35623E-23
7.36799E-02 1.27697E-23
7.59760E-02 1.20346E-23
7.83043E-02 1.13520E-23
8.06647E-02 1.07176E-23
8.30571E-02 1.01271E-23
8.54812E-02 9.57705E-24
8.79369E-02 9.06401E-24
9.04240E-02 8.58504E-24
9.29422E-02 8.13742E-24
9.54915E-02 7.71869E-24
9.80716E-02 7.32662E-24
1.00682E-01 6.95917E-24
1.03323E-01 6.61449E-24
1.05995E-01 6.29090E-24
1.08696E-01 5.98683E-24
1.11427E-01 5.70089E-24
1.14188E-01 5.43178E-24
1.16978E-01 5.17831E-24
1.19797E-01 4.93939E-24
1.22645E-01 4.71402E-24
1.25522E-01 4.50129E-24
1.28428E-01 4.30033E-24
1.31361E-01 4.11038E-24
1.34323E-01 3.93071E-24
1.37313E-01 3.76066E-24
1.40330E-01 3.59960E-24
1.43375E-01 3.44698E-24
1.46447E-01 3.30225E-24
1.49545E-01 3.16494E-24
1.52671E-01 3.03459E-24
1.55823E-01 2.91077E-24
1.59001E-01 2.79310E-24
1.62205E-01 2.68121E-24
1.65435E-01 2.57477E-24
1.68690E-01 2.47345E-24
1.71970E-01 2.37696E-24
1.75276E-01 2.28503E-24
1.78606E-01 2.19739E-24
1.81961E-01 2.11382E-24
1.85340E-01 2.03409E-24
1.88743E-01 1.95798E-24
1.92169E-01 1.88529E-24
1.95619E-01 1.81586E-24
1.99092E-01 1.74950E-24
2.02589E-01 1.68605E-24
2.06107E-01 1.62536E-24
2.09649E-01 1.56729E-24
2.13212E-01 1.51170E-24
2.16797E-01 1.45846E-24
2.20404E-01 1.40747E-24
2.24032E-01 1.35860E-24
2.27680E-01 1.31175E-24
2.31350E-01 1.26683E-24
2.35040E-01 1.22373E-24
2.38751E-01 1.18238E-24
2.42481E-01 1.14268E-24
2.46231E-01 1.10456E-24
2.50000E-01 1.06794E-24
2.53788E-01 1.03276E-24
2.57595E-01 9.98949E-25
2.61421E-01 9.66442E-25
2.65264E-01 9.35180E-25
2.69126E-01 9.05108E-25
2.73005E-01 8.76172E-25
2.76901E-01 8.48321E-25
2.80814E-01 8.21507E-25
2.84744E-01 7.95686E-25
2.88691E-01 7.70813E-25
2.92653E-01 7.46848E-25
2.96632E-01 7.23753E-25
3.00625E-01 7.01488E-25
3.04634E-01 6.80021E-25
3.08658E-01 6.59317E-25
3.12697E-01 6.39344E-25
3.16749E-01 6.20073E-25
3.20816E-01 6.01473E-25
3.24896E-01 5.83519E-25
3.28990E-01 5.66183E-25
3.33097E-01 5.49441E-25
3.37216E-01 5.33269E-25
3.41348E-01 5.17644E-25
3.45492E-01 5.02545E-25
3.49647E-01 4.87951E-25
3.53814E-01 4.73842E-25
3.57992E-01 4.60200E-25
3.62181E-01 4.47007E-25
3.66381E-01 4.34245E-25
3.70590E-01 4.21898E-25
3.74810E-01 4.09950E-25
3.79039E-01 3.98386E-25
3.83277E-01 3.87193E-25
3.87524E-01 3.76355E-25
3.91780E-01 3.65861E-25
3.96044E-01 3.55697E-25
4.00316E-01 3.45852E-25
4.04596E-01 3.36313E-25
4.08882E-01 3.27070E-25
4.13176E-01 3.18113E-25
4.17476E-01 3.09430E-25
4.21783E-01 3.01013E-25
4.26095E-01 2.92852E-25
4.30413E-01 2.84937E-25
4.34737E-01 2.77261E-25
4.39065E-01 2.69815E-25
4.43398E-01 2.62591E-25
4.47736E-01 2.55582E-25
4.52077E-01 2.48780E-25
4.56422E-01 2.42178E-25
4.60770E-01 2.35769E-25
4.65122E-01 2.29547E-25
4.69476E-01 2.23506E-25
4.73832E-01 2.17639E-25
4.78190E-01 2.11941E-25
4.82550E-01 2.06407E-25
4.86912E-01 2.01030E-25
4.91274E-01 1.95806E-25
4.95637E-01 1.90730E-25
5.00000E-01 1.85797E-25
5.04363E-01 1.81002E-25
5.08726E-01 1.76341E-25
5.13088E-01 1.71810E-25
5.17450E-01 1.67405E-25
5.21810E-01 1.63121E-25
5.26168E-01 1.58955E-25
5.30524E-01 1.54903E-25
5.34878E-01 1.50962E-25
5.39230E-01 1.47128E-25
5.43578E-01 1.43397E-25
5.47923E-01 1.39768E-25
5.52264E-01 1.36236E-25
5.56602E-01 1.32798E-25
5.60935E-01 1.29452E-25
5.65263E-01 1.26196E-25
5.69587E-01 1.23025E-25
5.73905E-01 1.19938E-25
5.78217E-01 1.16933E-25
5.82524E-01 1.14006E-25
5.86824E-01 1.11156E-25
5.91118E-01 1.08380E-25
5.95404E-01 1.05675E-25
5.99684E-01 1.03041E-25
6.03956E-01 1.00475E-25
6.08220E-01 9.79749E-26
6.12476E-01 9.55386E-26
6.16723E-01 9.31646E-26
6.20961E-01 9.08510E-26
6.25190E-01 8.85960E-26
6.29410E-01 8.63981E-26
6.33619E-01 8.42556E-26
6.37819E-01 8.21670E-26
6.42008E-01 8.01307E-26
6.46186E-01 7.81453E-26
6.50353E-01 7.62093E-26
6.54508E-01 7.43214E-26
6.58652E-01 7.24803E-26
6.62784E-01 7.06847E-26
6.66903E-01 6.89333E-26
6.71010E-01 6.72249E-26
6.75104E-01 6.55583E-26
6.79184E-01 6.39325E-26
6.83251E-01 6.23462E-26
6.87303E-01 6.07985E-26
6.91342E-01 5.92883E-26
6.95366E-01 5.78146E-26
6.99375E-01 5.63765E-26
7.03368E-01 5.49729E-26
7.07347E-01 5.36030E-26
7.11309E-01 5.22659E-26
7.15256E-01 5.09607E-26
7.19186E-01 4.96866E-26
7.23099E-01 4.84428E-26
7.26995E-01 4.72285E-26
7.30874E-01 4.60429E-26
7.34736E-01 4.48854E-26
7.38579E-01 4.37550E-26
7.42405E-01 4.26513E-26
7.46212E-01 4.15734E-26
7.50000E-01 4.05208E-26
7.53769E-01 3.94928E-26
7.57519E-01 3.84888E-26
7.61249E-01 3.75081E-26
7.64960E-01 3.65502E-26
7.68650E-01 3.56146E-26
7.72320E-01 3.47006E-26
7.75968E-01 3.38077E-26
7.79596E-01 3.29354E-26
7.83203E-01 3.20833E-26
7.86788E-01 3.12507E-26
7.90351E-01 3.04373E-26
7.93893E-01 2.96426E-26
7.97411E-01 2.88660E-26
8.00908E-01 2.81073E-26
8.04381E-01 2.73658E-26
8.07831E-01 2.66414E-26
8.11257E-01 2.59334E-26
8.14660E-01 2.52415E-26
8.18039E-01 2.45655E-26
8.21394E-01 2.39047E-26
8.24724E-01 2.32591E-26
8.28030E-01 2.26280E-26
8.31310E-01 2.20113E-26
8.34565E-01 2.14086E-26
8.37795E-01 2.08196E-26
8.40999E-01 2.02439E-26
8.44177E-01 1.96812E-26
8.47329E-01 1.91313E-26
8.50455E-01 1.85939E-26
8.53553E-01 1.80687E-26
8.56625E-01 1.75553E-26
8.59670E-01 1.70536E-26
8.62687E-01 1.65632E-26
8.65677E-01 1.60840E-26
8.68639E-01 1.56157E-26
8.71572E-01 1.51580E-26
8.74478E-01 1.47107E-26
8.77355E-01 1.42736E-26
8.80203E-01 1.38464E-26
8.83022E-01 1.34290E-26
8.85812E-01 1.30212E-26
8.88573E-01 1.26226E-26
8.91304E-01 1.22332E-26
8.94005E-01 1.18528E-26
8.96677E-01 1.14811E-26
8.99318E-01 1.11179E-26
9.01928E-01 1.07632E-26
9.04508E-01 1.04167E-26
9.07058E-01 1.00782E-26
9.09576E-01 9.74763E-27
9.12063E-01 9.42479E-27
9.14519E-01 9.10953E-27
9.16943E-01 8.80169E-27
9.19335E-01 8.50114E-27
9.21696E-01 8.20772E-27
9.24024E-01 7.92130E-27
9.26320E-01 7.64174E-27
9.28584E-01 7.36892E-27
9.30815E-01 7.10270E-27
9.33013E-01 6.84296E-27
9.35178E-01 6.58958E-27
9.37310E-01 6.34244E-27
9.39409E-01 6.10143E-27
9.41474E-01 5.86643E-27
9.43505E-01 5.63735E-27
9.45503E-01 5.41407E-27
9.47467E-01 5.19649E-27
9.49397E-01 4.98451E-27
9.51293E-01 4.77804E-27
9.53154E-01 4.57698E-27
9.54981E-01 4.38125E-27
9.56773E-01 4.19075E-27
9.58530E-01 4.00540E-27
9.60252E-01 3.82512E-27
9.61940E-01 3.64982E-27
9.63592E-01 3.47943E-27
9.65209E-01 3.31387E-27
9.66790E-01 3.15307E-27
9.68336E-01 2.99696E-27
9.69846E-01 2.84547E-27
9.71321E-01 2.69853E-27
9.72759E-01 2.55608E-27
9.74162E-01 2.41805E-27
9.75528E-01 2.28438E-27
9.76858E-01 2.15503E-27
9.78152E-01 2.02992E-27
9.79410E-01 1.90901E-27
9.80631E-01 1.79224E-27
9.81815E-01 1.67957E-27
9.82963E-01 1.57094E-27
9.84074E-01 1.46631E-27
9.85148E-01 1.36563E-27
9.86185E-01 1.26886E-27
9.87185E-01 1.17595E-27
9.88148E-01 1.08688E-27
9.89074E-01 1.00159E-27
9.89962E-01 9.20063E-28
9.90814E-01 8.42250E-28
9.91627E-01 7.68123E-28
9.92404E-01 6.97650E-28
9.93143E-01 6.30802E-28
9.93844E-01 5.67549E-28
9.94508E-01 5.07865E-28
9.95134E-01 4.51724E-28
9.95722E-01 3.99104E-28
9.96273E-01 3.49981E-28
9.96786E-01 3.04336E-28
9.97261E-01 2.62148E-28
9.97698E-01 2.23400E-28
9.98097E-01 1.88076E-28
9.98459E-01 1.56161E-28
9.98782E-01 1.27641E-28
9.99067E-01 1.02504E-28
9.99315E-01 8.07408E-29
9.99524E-01 6.23408E-29
9.99695E-01 4.72967E-29
9.99829E-01 3.56024E-29
9.99924E-01 2.72528E-29
9.99981E-01 2.22444E-29
1.00000E+00 2.05751E-29
