 #
 # Subroutine ELSEPA. Elastic scattering of electrons and positrons
 #                    by neutral atoms and positive ions
 #
 # Projectile: electron
 # Kinetic energy = 1.50000E+07 eV = 5.51240E+05 a.u.
 #
 # WARNING: High-energy factorization with free-atom DF screening.
 #          Absorption, polarization and exchange corrections are
 #          switched off.
 #          Phase shifts are calculated for the bare nucleus.
 #          Scattering amplitudes are not evaluated.
 #
 # Element: Dy,  Z =  66,  atomic weight = 1.62500E+02 g/mol
 #
 # Nuclear model: Fermi distribution
 #                Average radius = 5.83895E-13 cm
 #                Skin thickness = 5.46000E-14 cm
 #
 # Number of electrons = 66
 #
 # Total elastic cross section = 7.12964E-18 cm**2 = 2.54604E-01 a0**2
 # 1st transport cross section = 3.34545E-23 cm**2 = 1.19468E-06 a0**2
 # 2nd transport cross section = 9.39779E-23 cm**2 = 3.35601E-06 a0**2
 #
 #
 # Differential cross section:                       MU=(1-COS(THETA))/2
 #
 #  THETA        MU          DCS          DCS        Sherman      error
 #  (deg)                 (cm**2/sr)   (a0**2/sr)    function
 #----------------------------------------------------------------------
0.00000E+00 1.88575E-11
7.61557E-13 1.88553E-11
1.18994E-12 1.88541E-11
1.71346E-12 1.88527E-11
2.33225E-12 1.88509E-11
3.04617E-12 1.88489E-11
3.85530E-12 1.88467E-11
4.75964E-12 1.88441E-11
5.75917E-12 1.88413E-11
6.85391E-12 1.88383E-11
8.04379E-12 1.88350E-11
9.32893E-12 1.88314E-11
1.07092E-11 1.88275E-11
1.21847E-11 1.88234E-11
1.37554E-11 1.88190E-11
1.54213E-11 1.88144E-11
1.71823E-11 1.88095E-11
1.90386E-11 1.88043E-11
2.09900E-11 1.87989E-11
2.30367E-11 1.87932E-11
2.51785E-11 1.87873E-11
2.74156E-11 1.87811E-11
2.97478E-11 1.87746E-11
3.21752E-11 1.87679E-11
3.46979E-11 1.87609E-11
3.73157E-11 1.87536E-11
4.00286E-11 1.87461E-11
4.28368E-11 1.87383E-11
4.57402E-11 1.87303E-11
4.87388E-11 1.87220E-11
5.18325E-11 1.87135E-11
5.50215E-11 1.87047E-11
5.83057E-11 1.86957E-11
6.16850E-11 1.86864E-11
6.51595E-11 1.86768E-11
6.87293E-11 1.86670E-11
7.23943E-11 1.86569E-11
7.61544E-11 1.86466E-11
1.18991E-10 1.85298E-11
1.71347E-10 1.83887E-11
2.33223E-10 1.82243E-11
3.04617E-10 1.80376E-11
3.85531E-10 1.78300E-11
4.75965E-10 1.76026E-11
5.75917E-10 1.73569E-11
6.85389E-10 1.70944E-11
8.04380E-10 1.68168E-11
9.32891E-10 1.65254E-11
1.07092E-09 1.62237E-11
1.21847E-09 1.59106E-11
1.37554E-09 1.55869E-11
1.54213E-09 1.52560E-11
1.71823E-09 1.49221E-11
1.90386E-09 1.45817E-11
2.09900E-09 1.42362E-11
2.30367E-09 1.38929E-11
2.51785E-09 1.35487E-11
2.74156E-09 1.32027E-11
2.97478E-09 1.28581E-11
3.21752E-09 1.25207E-11
3.46978E-09 1.21842E-11
3.73156E-09 1.18495E-11
4.00286E-09 1.15238E-11
4.28368E-09 1.12040E-11
4.57402E-09 1.08879E-11
4.87388E-09 1.05772E-11
5.18326E-09 1.02788E-11
5.50215E-09 9.98523E-12
5.83057E-09 9.69676E-12
6.16850E-09 9.41892E-12
6.51596E-09 9.14995E-12
6.87293E-09 8.88659E-12
7.23942E-09 8.62953E-12
7.61544E-09 8.38557E-12
1.18991E-08 6.33416E-12
1.71347E-08 4.90901E-12
2.33223E-08 3.91058E-12
3.04617E-08 3.18613E-12
3.85531E-08 2.63902E-12
4.75965E-08 2.21107E-12
5.75917E-08 1.86740E-12
6.85389E-08 1.58623E-12
8.04380E-08 1.35369E-12
9.32891E-08 1.16020E-12
1.07092E-07 9.88139E-13
1.21847E-07 8.50973E-13
1.37554E-07 7.42288E-13
1.54213E-07 6.50085E-13
1.71823E-07 5.65494E-13
1.90386E-07 4.96853E-13
2.09900E-07 4.40568E-13
2.30367E-07 3.89007E-13
2.51785E-07 3.44837E-13
2.74156E-07 3.07925E-13
2.97478E-07 2.76087E-13
3.21752E-07 2.46769E-13
3.46978E-07 2.21874E-13
3.73156E-07 2.00597E-13
4.00286E-07 1.81104E-13
4.28368E-07 1.63801E-13
4.57402E-07 1.48830E-13
4.87388E-07 1.35659E-13
5.18325E-07 1.23323E-13
5.50215E-07 1.12539E-13
5.83057E-07 1.03071E-13
6.16850E-07 9.43640E-14
6.51596E-07 8.64569E-14
6.87293E-07 7.94564E-14
7.23942E-07 7.32137E-14
7.61543E-07 6.73403E-14
1.18991E-06 3.18600E-14
1.71347E-06 1.69357E-14
2.33223E-06 9.90579E-15
3.04617E-06 6.21747E-15
3.85531E-06 4.11782E-15
4.75964E-06 2.83587E-15
5.75916E-06 2.01311E-15
6.85388E-06 1.46661E-15
8.04378E-06 1.09259E-15
9.32888E-06 8.29829E-16
1.07092E-05 6.40849E-16
1.21846E-05 5.03167E-16
1.37553E-05 4.00681E-16
1.54212E-05 3.22772E-16
1.71822E-05 2.63046E-16
1.90385E-05 2.16497E-16
2.09899E-05 1.79957E-16
2.30365E-05 1.50801E-16
2.51783E-05 1.27322E-16
2.74153E-05 1.08229E-16
2.97475E-05 9.25544E-17
3.21749E-05 7.96315E-17
3.46974E-05 6.89025E-17
3.73152E-05 5.99192E-17
4.00281E-05 5.23613E-17
4.28362E-05 4.59650E-17
4.57395E-05 4.05147E-17
4.87380E-05 3.58438E-17
5.18317E-05 3.18266E-17
5.50205E-05 2.83562E-17
5.83045E-05 2.53417E-17
6.16838E-05 2.27183E-17
6.51582E-05 2.04268E-17
6.87277E-05 1.84167E-17
7.23925E-05 1.66477E-17
7.61524E-05 1.50867E-17
9.21439E-05 1.04037E-17
1.09658E-04 7.40277E-18
1.28695E-04 5.40987E-18
1.49255E-04 4.04430E-18
1.71338E-04 3.08396E-18
1.94942E-04 2.39259E-18
2.20070E-04 1.88474E-18
2.46720E-04 1.50491E-18
2.74892E-04 1.21623E-18
3.04586E-04 9.93687E-19
3.35803E-04 8.19866E-19
3.68542E-04 6.82510E-19
4.02802E-04 5.72800E-19
4.38585E-04 4.84311E-19
4.75889E-04 4.12301E-19
5.14715E-04 3.53214E-19
5.55063E-04 3.04363E-19
5.96931E-04 2.63689E-19
6.40321E-04 2.29602E-19
6.85233E-04 2.00859E-19
7.31665E-04 1.76486E-19
7.79618E-04 1.55708E-19
8.29092E-04 1.37907E-19
8.80086E-04 1.22584E-19
9.32601E-04 1.09336E-19
9.86636E-04 9.78349E-20
1.04219E-03 8.78110E-20
1.09927E-03 7.90421E-20
1.15786E-03 7.13436E-20
1.21797E-03 6.45626E-20
1.27961E-03 5.85708E-20
1.34276E-03 5.32605E-20
1.40743E-03 4.85404E-20
1.47362E-03 4.43336E-20
1.54133E-03 4.05744E-20
1.61056E-03 3.72066E-20
1.68131E-03 3.41824E-20
1.75357E-03 3.14605E-20
1.82735E-03 2.90052E-20
1.90265E-03 2.67859E-20
1.97947E-03 2.47757E-20
2.05780E-03 2.29514E-20
2.13765E-03 2.12927E-20
2.21902E-03 1.97818E-20
2.30190E-03 1.84033E-20
2.38630E-03 1.71433E-20
2.47222E-03 1.59899E-20
2.55965E-03 1.49324E-20
2.64859E-03 1.39614E-20
2.73905E-03 1.30685E-20
2.83103E-03 1.22462E-20
2.92452E-03 1.14879E-20
3.01952E-03 1.07878E-20
3.11604E-03 1.01405E-20
3.21407E-03 9.54140E-21
3.31362E-03 8.98614E-21
3.41468E-03 8.47096E-21
3.51725E-03 7.99242E-21
3.62133E-03 7.54742E-21
3.72692E-03 7.13319E-21
3.83403E-03 6.74719E-21
3.94265E-03 6.38714E-21
4.05278E-03 6.05097E-21
4.16442E-03 5.73679E-21
4.27757E-03 5.44290E-21
4.39223E-03 5.16774E-21
4.50840E-03 4.90988E-21
4.62608E-03 4.66804E-21
4.74527E-03 4.44103E-21
4.86597E-03 4.22777E-21
4.98817E-03 4.02727E-21
5.11188E-03 3.83862E-21
5.23711E-03 3.66099E-21
5.36383E-03 3.49361E-21
5.49207E-03 3.33577E-21
5.62181E-03 3.18683E-21
5.75306E-03 3.04619E-21
5.88581E-03 2.91330E-21
6.02007E-03 2.78764E-21
6.15583E-03 2.66876E-21
6.29310E-03 2.55621E-21
6.43187E-03 2.44959E-21
6.57214E-03 2.34853E-21
6.71392E-03 2.25268E-21
6.85720E-03 2.16173E-21
7.00198E-03 2.07537E-21
7.14827E-03 1.99333E-21
7.29605E-03 1.91535E-21
7.44534E-03 1.84118E-21
7.59612E-03 1.77062E-21
7.97965E-03 1.60860E-21
8.37255E-03 1.46489E-21
8.77480E-03 1.33707E-21
9.18641E-03 1.22304E-21
9.60736E-03 1.12107E-21
1.00376E-02 1.02963E-21
1.04773E-02 9.47447E-22
1.09262E-02 8.73409E-22
1.13844E-02 8.06560E-22
1.18520E-02 7.46072E-22
1.23288E-02 6.91228E-22
1.28150E-02 6.41405E-22
1.33104E-02 5.96056E-22
1.38150E-02 5.54705E-22
1.43290E-02 5.16932E-22
1.48521E-02 4.82370E-22
1.53845E-02 4.50694E-22
1.59262E-02 4.21618E-22
1.64770E-02 3.94888E-22
1.70371E-02 3.70277E-22
1.76063E-02 3.47586E-22
1.81848E-02 3.26637E-22
1.87724E-02 3.07270E-22
1.93692E-02 2.89343E-22
1.99751E-02 2.72727E-22
2.05901E-02 2.57309E-22
2.12143E-02 2.42985E-22
2.18476E-02 2.29662E-22
2.24900E-02 2.17257E-22
2.31415E-02 2.05694E-22
2.38021E-02 1.94905E-22
2.44717E-02 1.84828E-22
2.51504E-02 1.75406E-22
2.58382E-02 1.66589E-22
2.65349E-02 1.58330E-22
2.72407E-02 1.50587E-22
2.79555E-02 1.43321E-22
2.86793E-02 1.36497E-22
2.94120E-02 1.30082E-22
3.01537E-02 1.24048E-22
3.09043E-02 1.18366E-22
3.16639E-02 1.13014E-22
3.24324E-02 1.07966E-22
3.32098E-02 1.03203E-22
3.39961E-02 9.87056E-23
3.47912E-02 9.44557E-23
3.55952E-02 9.04368E-23
3.64081E-02 8.66339E-23
3.72297E-02 8.30332E-23
3.80602E-02 7.96217E-23
3.88995E-02 7.63873E-23
3.97476E-02 7.33190E-23
4.06044E-02 7.04066E-23
4.14700E-02 6.76405E-23
4.23443E-02 6.50119E-23
4.32273E-02 6.25125E-23
4.41190E-02 6.01346E-23
4.50194E-02 5.78712E-23
4.59284E-02 5.57156E-23
4.68461E-02 5.36616E-23
4.87074E-02 4.98358E-23
5.06030E-02 4.63518E-23
5.25328E-02 4.31733E-23
5.44967E-02 4.02681E-23
5.64946E-02 3.76082E-23
5.85262E-02 3.51687E-23
6.05914E-02 3.29278E-23
6.26901E-02 3.08660E-23
6.48222E-02 2.89663E-23
6.69873E-02 2.72133E-23
6.91854E-02 2.55935E-23
7.14163E-02 2.40946E-23
7.36799E-02 2.27059E-23
7.59760E-02 2.14177E-23
7.83043E-02 2.02211E-23
8.06647E-02 1.91084E-23
8.30571E-02 1.80725E-23
8.54812E-02 1.71069E-23
8.79369E-02 1.62061E-23
9.04240E-02 1.53647E-23
9.29422E-02 1.45780E-23
9.54915E-02 1.38418E-23
9.80716E-02 1.31522E-23
1.00682E-01 1.25055E-23
1.03323E-01 1.18986E-23
1.05995E-01 1.13284E-23
1.08696E-01 1.07924E-23
1.11427E-01 1.02880E-23
1.14188E-01 9.81312E-24
1.16978E-01 9.36554E-24
1.19797E-01 8.94342E-24
1.22645E-01 8.54501E-24
1.25522E-01 8.16871E-24
1.28428E-01 7.81304E-24
1.31361E-01 7.47663E-24
1.34323E-01 7.15823E-24
1.37313E-01 6.85668E-24
1.40330E-01 6.57089E-24
1.43375E-01 6.29989E-24
1.46447E-01 6.04274E-24
1.49545E-01 5.79859E-24
1.52671E-01 5.56666E-24
1.55823E-01 5.34620E-24
1.59001E-01 5.13653E-24
1.62205E-01 4.93701E-24
1.65435E-01 4.74706E-24
1.68690E-01 4.56611E-24
1.71970E-01 4.39367E-24
1.75276E-01 4.22923E-24
1.78606E-01 4.07237E-24
1.81961E-01 3.92265E-24
1.85340E-01 3.77969E-24
1.88743E-01 3.64311E-24
1.92169E-01 3.51258E-24
1.95619E-01 3.38778E-24
1.99092E-01 3.26839E-24
2.02589E-01 3.15415E-24
2.06107E-01 3.04478E-24
2.09649E-01 2.94003E-24
2.13212E-01 2.83967E-24
2.16797E-01 2.74347E-24
2.20404E-01 2.65124E-24
2.24032E-01 2.56277E-24
2.27680E-01 2.47787E-24
2.31350E-01 2.39639E-24
2.35040E-01 2.31815E-24
2.38751E-01 2.24299E-24
2.42481E-01 2.17077E-24
2.46231E-01 2.10136E-24
2.50000E-01 2.03462E-24
2.53788E-01 1.97043E-24
2.57595E-01 1.90868E-24
2.61421E-01 1.84924E-24
2.65264E-01 1.79202E-24
2.69126E-01 1.73693E-24
2.73005E-01 1.68386E-24
2.76901E-01 1.63272E-24
2.80814E-01 1.58344E-24
2.84744E-01 1.53592E-24
2.88691E-01 1.49011E-24
2.92653E-01 1.44591E-24
2.96632E-01 1.40328E-24
3.00625E-01 1.36213E-24
3.04634E-01 1.32241E-24
3.08658E-01 1.28405E-24
3.12697E-01 1.24701E-24
3.16749E-01 1.21123E-24
3.20816E-01 1.17666E-24
3.24896E-01 1.14324E-24
3.28990E-01 1.11094E-24
3.33097E-01 1.07971E-24
3.37216E-01 1.04951E-24
3.41348E-01 1.02029E-24
3.45492E-01 9.92022E-25
3.49647E-01 9.64665E-25
3.53814E-01 9.38186E-25
3.57992E-01 9.12551E-25
3.62181E-01 8.87727E-25
3.66381E-01 8.63686E-25
3.70590E-01 8.40396E-25
3.74810E-01 8.17831E-25
3.79039E-01 7.95965E-25
3.83277E-01 7.74770E-25
3.87524E-01 7.54224E-25
3.91780E-01 7.34302E-25
3.96044E-01 7.14982E-25
4.00316E-01 6.96243E-25
4.04596E-01 6.78064E-25
4.08882E-01 6.60426E-25
4.13176E-01 6.43309E-25
4.17476E-01 6.26695E-25
4.21783E-01 6.10567E-25
4.26095E-01 5.94909E-25
4.30413E-01 5.79703E-25
4.34737E-01 5.64936E-25
4.39065E-01 5.50591E-25
4.43398E-01 5.36655E-25
4.47736E-01 5.23114E-25
4.52077E-01 5.09955E-25
4.56422E-01 4.97165E-25
4.60770E-01 4.84733E-25
4.65122E-01 4.72645E-25
4.69476E-01 4.60893E-25
4.73832E-01 4.49463E-25
4.78190E-01 4.38347E-25
4.82550E-01 4.27534E-25
4.86912E-01 4.17014E-25
4.91274E-01 4.06779E-25
4.95637E-01 3.96818E-25
5.00000E-01 3.87125E-25
5.04363E-01 3.77689E-25
5.08726E-01 3.68504E-25
5.13088E-01 3.59561E-25
5.17450E-01 3.50853E-25
5.21810E-01 3.42374E-25
5.26168E-01 3.34115E-25
5.30524E-01 3.26071E-25
5.34878E-01 3.18234E-25
5.39230E-01 3.10599E-25
5.43578E-01 3.03160E-25
5.47923E-01 2.95911E-25
5.52264E-01 2.88846E-25
5.56602E-01 2.81960E-25
5.60935E-01 2.75247E-25
5.65263E-01 2.68704E-25
5.69587E-01 2.62323E-25
5.73905E-01 2.56102E-25
5.78217E-01 2.50035E-25
5.82524E-01 2.44119E-25
5.86824E-01 2.38348E-25
5.91118E-01 2.32718E-25
5.95404E-01 2.27227E-25
5.99684E-01 2.21869E-25
6.03956E-01 2.16641E-25
6.08220E-01 2.11540E-25
6.12476E-01 2.06561E-25
6.16723E-01 2.01703E-25
6.20961E-01 1.96960E-25
6.25190E-01 1.92331E-25
6.29410E-01 1.87812E-25
6.33619E-01 1.83399E-25
6.37819E-01 1.79091E-25
6.42008E-01 1.74885E-25
6.46186E-01 1.70777E-25
6.50353E-01 1.66765E-25
6.54508E-01 1.62847E-25
6.58652E-01 1.59020E-25
6.62784E-01 1.55281E-25
6.66903E-01 1.51629E-25
6.71010E-01 1.48061E-25
6.75104E-01 1.44575E-25
6.79184E-01 1.41169E-25
6.83251E-01 1.37841E-25
6.87303E-01 1.34588E-25
6.91342E-01 1.31409E-25
6.95366E-01 1.28303E-25
6.99375E-01 1.25266E-25
7.03368E-01 1.22298E-25
7.07347E-01 1.19396E-25
7.11309E-01 1.16560E-25
7.15256E-01 1.13787E-25
7.19186E-01 1.11075E-25
7.23099E-01 1.08424E-25
7.26995E-01 1.05832E-25
7.30874E-01 1.03298E-25
7.34736E-01 1.00819E-25
7.38579E-01 9.83947E-26
7.42405E-01 9.60240E-26
7.46212E-01 9.37052E-26
7.50000E-01 9.14373E-26
7.53769E-01 8.92190E-26
7.57519E-01 8.70490E-26
7.61249E-01 8.49263E-26
7.64960E-01 8.28498E-26
7.68650E-01 8.08184E-26
7.72320E-01 7.88309E-26
7.75968E-01 7.68864E-26
7.79596E-01 7.49840E-26
7.83203E-01 7.31225E-26
7.86788E-01 7.13012E-26
7.90351E-01 6.95190E-26
7.93893E-01 6.77751E-26
7.97411E-01 6.60686E-26
8.00908E-01 6.43987E-26
8.04381E-01 6.27645E-26
8.07831E-01 6.11653E-26
8.11257E-01 5.96002E-26
8.14660E-01 5.80686E-26
8.18039E-01 5.65696E-26
8.21394E-01 5.51026E-26
8.24724E-01 5.36668E-26
8.28030E-01 5.22616E-26
8.31310E-01 5.08864E-26
8.34565E-01 4.95404E-26
8.37795E-01 4.82230E-26
8.40999E-01 4.69337E-26
8.44177E-01 4.56719E-26
8.47329E-01 4.44369E-26
8.50455E-01 4.32281E-26
8.53553E-01 4.20452E-26
8.56625E-01 4.08874E-26
8.59670E-01 3.97543E-26
8.62687E-01 3.86454E-26
8.65677E-01 3.75602E-26
8.68639E-01 3.64982E-26
8.71572E-01 3.54590E-26
8.74478E-01 3.44420E-26
8.77355E-01 3.34468E-26
8.80203E-01 3.24730E-26
8.83022E-01 3.15203E-26
8.85812E-01 3.05880E-26
8.88573E-01 2.96760E-26
8.91304E-01 2.87837E-26
8.94005E-01 2.79108E-26
8.96677E-01 2.70569E-26
8.99318E-01 2.62217E-26
9.01928E-01 2.54047E-26
9.04508E-01 2.46058E-26
9.07058E-01 2.38244E-26
9.09576E-01 2.30604E-26
9.12063E-01 2.23134E-26
9.14519E-01 2.15830E-26
9.16943E-01 2.08690E-26
9.19335E-01 2.01711E-26
9.21696E-01 1.94890E-26
9.24024E-01 1.88224E-26
9.26320E-01 1.81710E-26
9.28584E-01 1.75347E-26
9.30815E-01 1.69131E-26
9.33013E-01 1.63059E-26
9.35178E-01 1.57130E-26
9.37310E-01 1.51341E-26
9.39409E-01 1.45690E-26
9.41474E-01 1.40174E-26
9.43505E-01 1.34791E-26
9.45503E-01 1.29540E-26
9.47467E-01 1.24418E-26
9.49397E-01 1.19423E-26
9.51293E-01 1.14553E-26
9.53154E-01 1.09806E-26
9.54981E-01 1.05181E-26
9.56773E-01 1.00675E-26
9.58530E-01 9.62878E-27
9.60252E-01 9.20163E-27
9.61940E-01 8.78595E-27
9.63592E-01 8.38157E-27
9.65209E-01 7.98833E-27
9.66790E-01 7.60609E-27
9.68336E-01 7.23469E-27
9.69846E-01 6.87401E-27
9.71321E-01 6.52391E-27
9.72759E-01 6.18424E-27
9.74162E-01 5.85489E-27
9.75528E-01 5.53574E-27
9.76858E-01 5.22665E-27
9.78152E-01 4.92752E-27
9.79410E-01 4.63823E-27
9.80631E-01 4.35868E-27
9.81815E-01 4.08877E-27
9.82963E-01 3.82839E-27
9.84074E-01 3.57744E-27
9.85148E-01 3.33584E-27
9.86185E-01 3.10350E-27
9.87185E-01 2.88032E-27
9.88148E-01 2.66623E-27
9.89074E-01 2.46115E-27
9.89962E-01 2.26501E-27
9.90814E-01 2.07772E-27
9.91627E-01 1.89924E-27
9.92404E-01 1.72948E-27
9.93143E-01 1.56838E-27
9.93844E-01 1.41590E-27
9.94508E-01 1.27197E-27
9.95134E-01 1.13654E-27
9.95722E-01 1.00956E-27
9.96273E-01 8.90982E-28
9.96786E-01 7.80771E-28
9.97261E-01 6.78882E-28
9.97698E-01 5.85279E-28
9.98097E-01 4.99927E-28
9.98459E-01 4.22797E-28
9.98782E-01 3.53861E-28
9.99067E-01 2.93093E-28
9.99315E-01 2.40471E-28
9.99524E-01 1.95977E-28
9.99695E-01 1.59595E-28
9.99829E-01 1.31311E-28
9.99924E-01 1.11116E-28
9.99981E-01 9.90016E-29
1.00000E+00 9.49640E-29
