 #
 # Subroutine ELSEPA. Elastic scattering of electrons and positrons
 #                    by neutral atoms and positive ions
 #
 # Projectile: electron
 # Kinetic energy = 1.25000E+07 eV = 4.59367E+05 a.u.
 #
 # WARNING: High-energy factorization with free-atom DF screening.
 #          Absorption, polarization and exchange corrections are
 #          switched off.
 #          Phase shifts are calculated for the bare nucleus.
 #          Scattering amplitudes are not evaluated.
 #
 # Element: Dy,  Z =  66,  atomic weight = 1.62500E+02 g/mol
 #
 # Nuclear model: Fermi distribution
 #                Average radius = 5.83895E-13 cm
 #                Skin thickness = 5.46000E-14 cm
 #
 # Number of electrons = 66
 #
 # Total elastic cross section = 7.13261E-18 cm**2 = 2.54710E-01 a0**2
 # 1st transport cross section = 4.68082E-23 cm**2 = 1.67155E-06 a0**2
 # 2nd transport cross section = 1.30828E-22 cm**2 = 4.67195E-06 a0**2
 #
 #
 # Differential cross section:                       MU=(1-COS(THETA))/2
 #
 #  THETA        MU          DCS          DCS        Sherman      error
 #  (deg)                 (cm**2/sr)   (a0**2/sr)    function
 #----------------------------------------------------------------------
0.00000E+00 1.32686E-11
7.61557E-13 1.32675E-11
1.18994E-12 1.32669E-11
1.71346E-12 1.32662E-11
2.33225E-12 1.32654E-11
3.04617E-12 1.32644E-11
3.85530E-12 1.32633E-11
4.75964E-12 1.32620E-11
5.75917E-12 1.32606E-11
6.85391E-12 1.32591E-11
8.04379E-12 1.32575E-11
9.32893E-12 1.32557E-11
1.07092E-11 1.32538E-11
1.21847E-11 1.32517E-11
1.37554E-11 1.32496E-11
1.54213E-11 1.32473E-11
1.71823E-11 1.32448E-11
1.90386E-11 1.32423E-11
2.09900E-11 1.32396E-11
2.30367E-11 1.32368E-11
2.51785E-11 1.32338E-11
2.74156E-11 1.32307E-11
2.97478E-11 1.32275E-11
3.21752E-11 1.32242E-11
3.46979E-11 1.32207E-11
3.73157E-11 1.32171E-11
4.00286E-11 1.32134E-11
4.28368E-11 1.32096E-11
4.57402E-11 1.32056E-11
4.87388E-11 1.32015E-11
5.18325E-11 1.31972E-11
5.50215E-11 1.31929E-11
5.83057E-11 1.31884E-11
6.16850E-11 1.31837E-11
6.51595E-11 1.31790E-11
6.87293E-11 1.31741E-11
7.23943E-11 1.31691E-11
7.61544E-11 1.31640E-11
1.18991E-10 1.31058E-11
1.71347E-10 1.30352E-11
2.33223E-10 1.29526E-11
3.04617E-10 1.28584E-11
3.85531E-10 1.27531E-11
4.75965E-10 1.26370E-11
5.75917E-10 1.25108E-11
6.85389E-10 1.23750E-11
8.04380E-10 1.22303E-11
9.32891E-10 1.20771E-11
1.07092E-09 1.19162E-11
1.21847E-09 1.17481E-11
1.37554E-09 1.15739E-11
1.54213E-09 1.13948E-11
1.71823E-09 1.12099E-11
1.90386E-09 1.10198E-11
2.09900E-09 1.08249E-11
2.30367E-09 1.06295E-11
2.51785E-09 1.04309E-11
2.74156E-09 1.02294E-11
2.97478E-09 1.00254E-11
3.21752E-09 9.82261E-12
3.46978E-09 9.61989E-12
3.73156E-09 9.41613E-12
4.00286E-09 9.21177E-12
4.28368E-09 9.00962E-12
4.57402E-09 8.81051E-12
4.87388E-09 8.61190E-12
5.18326E-09 8.41412E-12
5.50215E-09 8.21878E-12
5.83057E-09 8.02903E-12
6.16850E-09 7.84088E-12
6.51596E-09 7.65457E-12
6.87293E-09 7.47038E-12
7.23942E-09 7.29377E-12
7.61544E-09 7.11945E-12
1.18991E-08 5.58033E-12
1.71347E-08 4.41939E-12
2.33223E-08 3.56490E-12
3.04617E-08 2.93218E-12
3.85531E-08 2.45369E-12
4.75965E-08 2.08115E-12
5.75917E-08 1.78320E-12
6.85389E-08 1.53880E-12
8.04380E-08 1.33542E-12
9.32891E-08 1.16375E-12
1.07092E-07 1.01757E-12
1.21847E-07 8.92688E-13
1.37554E-07 7.84066E-13
1.54213E-07 6.85074E-13
1.71823E-07 6.04487E-13
1.90386E-07 5.38234E-13
2.09900E-07 4.83258E-13
2.30367E-07 4.29082E-13
2.51785E-07 3.82960E-13
2.74156E-07 3.44148E-13
2.97478E-07 3.11250E-13
3.21752E-07 2.80519E-13
3.46978E-07 2.53102E-13
3.73156E-07 2.29575E-13
4.00286E-07 2.09270E-13
4.28368E-07 1.90764E-13
4.57402E-07 1.73694E-13
4.87388E-07 1.58812E-13
5.18325E-07 1.45777E-13
5.50215E-07 1.34056E-13
5.83057E-07 1.22949E-13
6.16850E-07 1.13140E-13
6.51596E-07 1.04445E-13
6.87293E-07 9.67009E-14
7.23942E-07 8.92083E-14
7.61543E-07 8.25215E-14
1.18991E-06 4.06184E-14
1.71347E-06 2.19340E-14
2.33223E-06 1.28561E-14
3.04617E-06 8.07928E-15
3.85531E-06 5.36123E-15
4.75964E-06 3.71179E-15
5.75916E-06 2.65758E-15
6.85388E-06 1.95132E-15
8.04378E-06 1.46346E-15
9.32888E-06 1.11807E-15
1.07092E-05 8.68268E-16
1.21846E-05 6.84080E-16
1.37553E-05 5.45820E-16
1.54212E-05 4.40596E-16
1.71822E-05 3.59800E-16
1.90385E-05 2.96554E-16
2.09899E-05 2.46793E-16
2.30365E-05 2.07146E-16
2.51783E-05 1.75021E-16
2.74153E-05 1.48930E-16
2.97475E-05 1.27504E-16
3.21749E-05 1.09798E-16
3.46974E-05 9.51039E-17
3.73152E-05 8.27682E-17
4.00281E-05 7.24017E-17
4.28362E-05 6.36074E-17
4.57395E-05 5.61105E-17
4.87380E-05 4.96924E-17
5.18317E-05 4.41533E-17
5.50205E-05 3.93707E-17
5.83045E-05 3.52139E-17
6.16838E-05 3.15929E-17
6.51582E-05 2.84283E-17
6.87277E-05 2.56477E-17
7.23925E-05 2.32025E-17
7.61524E-05 2.10398E-17
9.21439E-05 1.45452E-17
1.09658E-04 1.03704E-17
1.28695E-04 7.59134E-18
1.49255E-04 5.68264E-18
1.71338E-04 4.33774E-18
1.94942E-04 3.36810E-18
2.20070E-04 2.65489E-18
2.46720E-04 2.12099E-18
2.74892E-04 1.71490E-18
3.04586E-04 1.40162E-18
3.35803E-04 1.15681E-18
3.68542E-04 9.63280E-19
4.02802E-04 8.08645E-19
4.38585E-04 6.83891E-19
4.75889E-04 5.82338E-19
5.14715E-04 4.98993E-19
5.55063E-04 4.30071E-19
5.96931E-04 3.72673E-19
6.40321E-04 3.24560E-19
6.85233E-04 2.83985E-19
7.31665E-04 2.49571E-19
7.79618E-04 2.20229E-19
8.29092E-04 1.95085E-19
8.80086E-04 1.73438E-19
9.32601E-04 1.54719E-19
9.86636E-04 1.38466E-19
1.04219E-03 1.24298E-19
1.09927E-03 1.11901E-19
1.15786E-03 1.01016E-19
1.21797E-03 9.14274E-20
1.27961E-03 8.29530E-20
1.34276E-03 7.54412E-20
1.40743E-03 6.87633E-20
1.47362E-03 6.28108E-20
1.54133E-03 5.74909E-20
1.61056E-03 5.27244E-20
1.68131E-03 4.84437E-20
1.75357E-03 4.45903E-20
1.82735E-03 4.11140E-20
1.90265E-03 3.79714E-20
1.97947E-03 3.51246E-20
2.05780E-03 3.25407E-20
2.13765E-03 3.01912E-20
2.21902E-03 2.80510E-20
2.30190E-03 2.60979E-20
2.38630E-03 2.43127E-20
2.47222E-03 2.26783E-20
2.55965E-03 2.11797E-20
2.64859E-03 1.98035E-20
2.73905E-03 1.85379E-20
2.83103E-03 1.73723E-20
2.92452E-03 1.62974E-20
3.01952E-03 1.53048E-20
3.11604E-03 1.43872E-20
3.21407E-03 1.35377E-20
3.31362E-03 1.27503E-20
3.41468E-03 1.20198E-20
3.51725E-03 1.13412E-20
3.62133E-03 1.07101E-20
3.72692E-03 1.01226E-20
3.83403E-03 9.57510E-21
3.94265E-03 9.06440E-21
4.05278E-03 8.58755E-21
4.16442E-03 8.14188E-21
4.27757E-03 7.72497E-21
4.39223E-03 7.33461E-21
4.50840E-03 6.96879E-21
4.62608E-03 6.62568E-21
4.74527E-03 6.30360E-21
4.86597E-03 6.00102E-21
4.98817E-03 5.71653E-21
5.11188E-03 5.44885E-21
5.23711E-03 5.19679E-21
5.36383E-03 4.95927E-21
5.49207E-03 4.73529E-21
5.62181E-03 4.52393E-21
5.75306E-03 4.32435E-21
5.88581E-03 4.13575E-21
6.02007E-03 3.95743E-21
6.15583E-03 3.78870E-21
6.29310E-03 3.62897E-21
6.43187E-03 3.47765E-21
6.57214E-03 3.33421E-21
6.71392E-03 3.19818E-21
6.85720E-03 3.06908E-21
7.00198E-03 2.94651E-21
7.14827E-03 2.83005E-21
7.29605E-03 2.71936E-21
7.44534E-03 2.61410E-21
7.59612E-03 2.51393E-21
7.97965E-03 2.28395E-21
8.37255E-03 2.07996E-21
8.77480E-03 1.89851E-21
9.18641E-03 1.73664E-21
9.60736E-03 1.59188E-21
1.00376E-02 1.46208E-21
1.04773E-02 1.34541E-21
1.09262E-02 1.24030E-21
1.13844E-02 1.14540E-21
1.18520E-02 1.05952E-21
1.23288E-02 9.81666E-22
1.28150E-02 9.10934E-22
1.33104E-02 8.46554E-22
1.38150E-02 7.87849E-22
1.43290E-02 7.34223E-22
1.48521E-02 6.85156E-22
1.53845E-02 6.40187E-22
1.59262E-02 5.98909E-22
1.64770E-02 5.60961E-22
1.70371E-02 5.26022E-22
1.76063E-02 4.93808E-22
1.81848E-02 4.64067E-22
1.87724E-02 4.36573E-22
1.93692E-02 4.11122E-22
1.99751E-02 3.87534E-22
2.05901E-02 3.65644E-22
2.12143E-02 3.45309E-22
2.18476E-02 3.26395E-22
2.24900E-02 3.08784E-22
2.31415E-02 2.92369E-22
2.38021E-02 2.77052E-22
2.44717E-02 2.62745E-22
2.51504E-02 2.49369E-22
2.58382E-02 2.36852E-22
2.65349E-02 2.25126E-22
2.72407E-02 2.14133E-22
2.79555E-02 2.03817E-22
2.86793E-02 1.94128E-22
2.94120E-02 1.85021E-22
3.01537E-02 1.76454E-22
3.09043E-02 1.68388E-22
3.16639E-02 1.60788E-22
3.24324E-02 1.53621E-22
3.32098E-02 1.46858E-22
3.39961E-02 1.40472E-22
3.47912E-02 1.34438E-22
3.55952E-02 1.28731E-22
3.64081E-02 1.23332E-22
3.72297E-02 1.18219E-22
3.80602E-02 1.13374E-22
3.88995E-02 1.08781E-22
3.97476E-02 1.04424E-22
4.06044E-02 1.00288E-22
4.14700E-02 9.63596E-23
4.23443E-02 9.26264E-23
4.32273E-02 8.90766E-23
4.41190E-02 8.56994E-23
4.50194E-02 8.24847E-23
4.59284E-02 7.94229E-23
4.68461E-02 7.65053E-23
4.87074E-02 7.10707E-23
5.06030E-02 6.61213E-23
5.25328E-02 6.16054E-23
5.44967E-02 5.74776E-23
5.64946E-02 5.36977E-23
5.85262E-02 5.02309E-23
6.05914E-02 4.70458E-23
6.26901E-02 4.41151E-23
6.48222E-02 4.14144E-23
6.69873E-02 3.89219E-23
6.91854E-02 3.66185E-23
7.14163E-02 3.44869E-23
7.36799E-02 3.25116E-23
7.59760E-02 3.06789E-23
7.83043E-02 2.89763E-23
8.06647E-02 2.73929E-23
8.30571E-02 2.59184E-23
8.54812E-02 2.45440E-23
8.79369E-02 2.32613E-23
9.04240E-02 2.20631E-23
9.29422E-02 2.09426E-23
9.54915E-02 1.98937E-23
9.80716E-02 1.89110E-23
1.00682E-01 1.79893E-23
1.03323E-01 1.71241E-23
1.05995E-01 1.63113E-23
1.08696E-01 1.55470E-23
1.11427E-01 1.48276E-23
1.14188E-01 1.41501E-23
1.16978E-01 1.35114E-23
1.19797E-01 1.29090E-23
1.22645E-01 1.23402E-23
1.25522E-01 1.18028E-23
1.28428E-01 1.12948E-23
1.31361E-01 1.08142E-23
1.34323E-01 1.03591E-23
1.37313E-01 9.92805E-24
1.40330E-01 9.51941E-24
1.43375E-01 9.13179E-24
1.46447E-01 8.76386E-24
1.49545E-01 8.41437E-24
1.52671E-01 8.08225E-24
1.55823E-01 7.76647E-24
1.59001E-01 7.46605E-24
1.62205E-01 7.18008E-24
1.65435E-01 6.90774E-24
1.68690E-01 6.64822E-24
1.71970E-01 6.40081E-24
1.75276E-01 6.16481E-24
1.78606E-01 5.93960E-24
1.81961E-01 5.72457E-24
1.85340E-01 5.51918E-24
1.88743E-01 5.32289E-24
1.92169E-01 5.13522E-24
1.95619E-01 4.95571E-24
1.99092E-01 4.78394E-24
2.02589E-01 4.61950E-24
2.06107E-01 4.46201E-24
2.09649E-01 4.31112E-24
2.13212E-01 4.16649E-24
2.16797E-01 4.02781E-24
2.20404E-01 3.89479E-24
2.24032E-01 3.76714E-24
2.27680E-01 3.64461E-24
2.31350E-01 3.52694E-24
2.35040E-01 3.41391E-24
2.38751E-01 3.30529E-24
2.42481E-01 3.20088E-24
2.46231E-01 3.10048E-24
2.50000E-01 3.00390E-24
2.53788E-01 2.91097E-24
2.57595E-01 2.82152E-24
2.61421E-01 2.73539E-24
2.65264E-01 2.65245E-24
2.69126E-01 2.57254E-24
2.73005E-01 2.49552E-24
2.76901E-01 2.42129E-24
2.80814E-01 2.34971E-24
2.84744E-01 2.28067E-24
2.88691E-01 2.21406E-24
2.92653E-01 2.14978E-24
2.96632E-01 2.08773E-24
3.00625E-01 2.02782E-24
3.04634E-01 1.96996E-24
3.08658E-01 1.91407E-24
3.12697E-01 1.86006E-24
3.16749E-01 1.80786E-24
3.20816E-01 1.75740E-24
3.24896E-01 1.70860E-24
3.28990E-01 1.66141E-24
3.33097E-01 1.61575E-24
3.37216E-01 1.57158E-24
3.41348E-01 1.52882E-24
3.45492E-01 1.48743E-24
3.49647E-01 1.44736E-24
3.53814E-01 1.40854E-24
3.57992E-01 1.37095E-24
3.62181E-01 1.33453E-24
3.66381E-01 1.29923E-24
3.70590E-01 1.26502E-24
3.74810E-01 1.23186E-24
3.79039E-01 1.19970E-24
3.83277E-01 1.16851E-24
3.87524E-01 1.13827E-24
3.91780E-01 1.10892E-24
3.96044E-01 1.08045E-24
4.00316E-01 1.05281E-24
4.04596E-01 1.02599E-24
4.08882E-01 9.99945E-25
4.13176E-01 9.74659E-25
4.17476E-01 9.50102E-25
4.21783E-01 9.26249E-25
4.26095E-01 9.03077E-25
4.30413E-01 8.80562E-25
4.34737E-01 8.58682E-25
4.39065E-01 8.37416E-25
4.43398E-01 8.16744E-25
4.47736E-01 7.96645E-25
4.52077E-01 7.77102E-25
4.56422E-01 7.58096E-25
4.60770E-01 7.39609E-25
4.65122E-01 7.21625E-25
4.69476E-01 7.04128E-25
4.73832E-01 6.87102E-25
4.78190E-01 6.70532E-25
4.82550E-01 6.54404E-25
4.86912E-01 6.38704E-25
4.91274E-01 6.23418E-25
4.95637E-01 6.08534E-25
5.00000E-01 5.94039E-25
5.04363E-01 5.79922E-25
5.08726E-01 5.66170E-25
5.13088E-01 5.52774E-25
5.17450E-01 5.39721E-25
5.21810E-01 5.27001E-25
5.26168E-01 5.14605E-25
5.30524E-01 5.02524E-25
5.34878E-01 4.90746E-25
5.39230E-01 4.79265E-25
5.43578E-01 4.68071E-25
5.47923E-01 4.57155E-25
5.52264E-01 4.46510E-25
5.56602E-01 4.36127E-25
5.60935E-01 4.26000E-25
5.65263E-01 4.16121E-25
5.69587E-01 4.06483E-25
5.73905E-01 3.97078E-25
5.78217E-01 3.87902E-25
5.82524E-01 3.78946E-25
5.86824E-01 3.70205E-25
5.91118E-01 3.61673E-25
5.95404E-01 3.53344E-25
5.99684E-01 3.45213E-25
6.03956E-01 3.37274E-25
6.08220E-01 3.29522E-25
6.12476E-01 3.21952E-25
6.16723E-01 3.14558E-25
6.20961E-01 3.07337E-25
6.25190E-01 3.00284E-25
6.29410E-01 2.93393E-25
6.33619E-01 2.86662E-25
6.37819E-01 2.80085E-25
6.42008E-01 2.73658E-25
6.46186E-01 2.67378E-25
6.50353E-01 2.61241E-25
6.54508E-01 2.55243E-25
6.58652E-01 2.49381E-25
6.62784E-01 2.43651E-25
6.66903E-01 2.38049E-25
6.71010E-01 2.32573E-25
6.75104E-01 2.27218E-25
6.79184E-01 2.21983E-25
6.83251E-01 2.16865E-25
6.87303E-01 2.11859E-25
6.91342E-01 2.06964E-25
6.95366E-01 2.02176E-25
6.99375E-01 1.97493E-25
7.03368E-01 1.92913E-25
7.07347E-01 1.88433E-25
7.11309E-01 1.84050E-25
7.15256E-01 1.79763E-25
7.19186E-01 1.75568E-25
7.23099E-01 1.71464E-25
7.26995E-01 1.67448E-25
7.30874E-01 1.63519E-25
7.34736E-01 1.59674E-25
7.38579E-01 1.55911E-25
7.42405E-01 1.52228E-25
7.46212E-01 1.48624E-25
7.50000E-01 1.45097E-25
7.53769E-01 1.41645E-25
7.57519E-01 1.38265E-25
7.61249E-01 1.34957E-25
7.64960E-01 1.31719E-25
7.68650E-01 1.28549E-25
7.72320E-01 1.25446E-25
7.75968E-01 1.22408E-25
7.79596E-01 1.19434E-25
7.83203E-01 1.16522E-25
7.86788E-01 1.13671E-25
7.90351E-01 1.10879E-25
7.93893E-01 1.08146E-25
7.97411E-01 1.05470E-25
8.00908E-01 1.02849E-25
8.04381E-01 1.00283E-25
8.07831E-01 9.77698E-26
8.11257E-01 9.53091E-26
8.14660E-01 9.28994E-26
8.18039E-01 9.05397E-26
8.21394E-01 8.82289E-26
8.24724E-01 8.59659E-26
8.28030E-01 8.37497E-26
8.31310E-01 8.15795E-26
8.34565E-01 7.94541E-26
8.37795E-01 7.73728E-26
8.40999E-01 7.53345E-26
8.44177E-01 7.33384E-26
8.47329E-01 7.13836E-26
8.50455E-01 6.94693E-26
8.53553E-01 6.75948E-26
8.56625E-01 6.57591E-26
8.59670E-01 6.39615E-26
8.62687E-01 6.22012E-26
8.65677E-01 6.04776E-26
8.68639E-01 5.87899E-26
8.71572E-01 5.71374E-26
8.74478E-01 5.55194E-26
8.77355E-01 5.39353E-26
8.80203E-01 5.23843E-26
8.83022E-01 5.08660E-26
8.85812E-01 4.93796E-26
8.88573E-01 4.79246E-26
8.91304E-01 4.65004E-26
8.94005E-01 4.51063E-26
8.96677E-01 4.37420E-26
8.99318E-01 4.24067E-26
9.01928E-01 4.11001E-26
9.04508E-01 3.98215E-26
9.07058E-01 3.85705E-26
9.09576E-01 3.73466E-26
9.12063E-01 3.61493E-26
9.14519E-01 3.49782E-26
9.16943E-01 3.38328E-26
9.19335E-01 3.27126E-26
9.21696E-01 3.16173E-26
9.24024E-01 3.05464E-26
9.26320E-01 2.94995E-26
9.28584E-01 2.84762E-26
9.30815E-01 2.74762E-26
9.33013E-01 2.64990E-26
9.35178E-01 2.55444E-26
9.37310E-01 2.46118E-26
9.39409E-01 2.37011E-26
9.41474E-01 2.28118E-26
9.43505E-01 2.19436E-26
9.45503E-01 2.10963E-26
9.47467E-01 2.02695E-26
9.49397E-01 1.94628E-26
9.51293E-01 1.86761E-26
9.53154E-01 1.79090E-26
9.54981E-01 1.71612E-26
9.56773E-01 1.64325E-26
9.58530E-01 1.57226E-26
9.60252E-01 1.50312E-26
9.61940E-01 1.43582E-26
9.63592E-01 1.37033E-26
9.65209E-01 1.30661E-26
9.66790E-01 1.24466E-26
9.68336E-01 1.18445E-26
9.69846E-01 1.12595E-26
9.71321E-01 1.06916E-26
9.72759E-01 1.01404E-26
9.74162E-01 9.60575E-27
9.75528E-01 9.08751E-27
9.76858E-01 8.58549E-27
9.78152E-01 8.09951E-27
9.79410E-01 7.62940E-27
9.80631E-01 7.17499E-27
9.81815E-01 6.73612E-27
9.82963E-01 6.31266E-27
9.84074E-01 5.90444E-27
9.85148E-01 5.51133E-27
9.86185E-01 5.13320E-27
9.87185E-01 4.76991E-27
9.88148E-01 4.42134E-27
9.89074E-01 4.08737E-27
9.89962E-01 3.76789E-27
9.90814E-01 3.46279E-27
9.91627E-01 3.17196E-27
9.92404E-01 2.89531E-27
9.93143E-01 2.63274E-27
9.93844E-01 2.38417E-27
9.94508E-01 2.14950E-27
9.95134E-01 1.92866E-27
9.95722E-01 1.72157E-27
9.96273E-01 1.52817E-27
9.96786E-01 1.34839E-27
9.97261E-01 1.18216E-27
9.97698E-01 1.02944E-27
9.98097E-01 8.90175E-28
9.98459E-01 7.64310E-28
9.98782E-01 6.51807E-28
9.99067E-01 5.52629E-28
9.99315E-01 4.66741E-28
9.99524E-01 3.94116E-28
9.99695E-01 3.34728E-28
9.99829E-01 2.88558E-28
9.99924E-01 2.55591E-28
9.99981E-01 2.35815E-28
1.00000E+00 2.29224E-28
