 #
 # Subroutine ELSEPA. Elastic scattering of electrons and positrons
 #                    by neutral atoms and positive ions
 #
 # Projectile: electron
 # Kinetic energy = 7.00000E+06 eV = 2.57245E+05 a.u.
 #
 # WARNING: High-energy factorization with free-atom DF screening.
 #          Absorption, polarization and exchange corrections are
 #          switched off.
 #          Phase shifts are calculated for the bare nucleus.
 #          Scattering amplitudes are not evaluated.
 #
 # Element: Dy,  Z =  66,  atomic weight = 1.62500E+02 g/mol
 #
 # Nuclear model: Fermi distribution
 #                Average radius = 5.83895E-13 cm
 #                Skin thickness = 5.46000E-14 cm
 #
 # Number of electrons = 66
 #
 # Total elastic cross section = 7.15568E-18 cm**2 = 2.55534E-01 a0**2
 # 1st transport cross section = 1.32487E-22 cm**2 = 4.73121E-06 a0**2
 # 2nd transport cross section = 3.65370E-22 cm**2 = 1.30476E-05 a0**2
 #
 #
 # Differential cross section:                       MU=(1-COS(THETA))/2
 #
 #  THETA        MU          DCS          DCS        Sherman      error
 #  (deg)                 (cm**2/sr)   (a0**2/sr)    function
 #----------------------------------------------------------------------
0.00000E+00 4.42180E-12
7.61557E-13 4.42169E-12
1.18994E-12 4.42162E-12
1.71346E-12 4.42154E-12
2.33225E-12 4.42145E-12
3.04617E-12 4.42134E-12
3.85530E-12 4.42121E-12
4.75964E-12 4.42107E-12
5.75917E-12 4.42092E-12
6.85391E-12 4.42075E-12
8.04379E-12 4.42057E-12
9.32893E-12 4.42037E-12
1.07092E-11 4.42016E-12
1.21847E-11 4.41994E-12
1.37554E-11 4.41970E-12
1.54213E-11 4.41944E-12
1.71823E-11 4.41917E-12
1.90386E-11 4.41889E-12
2.09900E-11 4.41859E-12
2.30367E-11 4.41828E-12
2.51785E-11 4.41795E-12
2.74156E-11 4.41761E-12
2.97478E-11 4.41725E-12
3.21752E-11 4.41688E-12
3.46979E-11 4.41649E-12
3.73157E-11 4.41609E-12
4.00286E-11 4.41568E-12
4.28368E-11 4.41525E-12
4.57402E-11 4.41481E-12
4.87388E-11 4.41435E-12
5.18325E-11 4.41388E-12
5.50215E-11 4.41339E-12
5.83057E-11 4.41289E-12
6.16850E-11 4.41238E-12
6.51595E-11 4.41185E-12
6.87293E-11 4.41130E-12
7.23943E-11 4.41074E-12
7.61544E-11 4.41017E-12
1.18991E-10 4.40365E-12
1.71347E-10 4.39571E-12
2.33223E-10 4.38635E-12
3.04617E-10 4.37560E-12
3.85531E-10 4.36346E-12
4.75965E-10 4.34997E-12
5.75917E-10 4.33513E-12
6.85389E-10 4.31898E-12
8.04380E-10 4.30154E-12
9.32891E-10 4.28284E-12
1.07092E-09 4.26290E-12
1.21847E-09 4.24176E-12
1.37554E-09 4.21945E-12
1.54213E-09 4.19601E-12
1.71823E-09 4.17145E-12
1.90386E-09 4.14584E-12
2.09900E-09 4.11920E-12
2.30367E-09 4.09156E-12
2.51785E-09 4.06298E-12
2.74156E-09 4.03349E-12
2.97478E-09 4.00313E-12
3.21752E-09 3.97194E-12
3.46978E-09 3.93996E-12
3.73156E-09 3.90724E-12
4.00286E-09 3.87381E-12
4.28368E-09 3.83992E-12
4.57402E-09 3.80543E-12
4.87388E-09 3.77029E-12
5.18326E-09 3.73453E-12
5.50215E-09 3.69819E-12
5.83057E-09 3.66131E-12
6.16850E-09 3.62391E-12
6.51596E-09 3.58634E-12
6.87293E-09 3.54879E-12
7.23942E-09 3.51085E-12
7.61544E-09 3.47254E-12
1.18991E-08 3.08227E-12
1.71347E-08 2.70211E-12
2.33223E-08 2.35273E-12
3.04617E-08 2.04330E-12
3.85531E-08 1.77836E-12
4.75965E-08 1.55411E-12
5.75917E-08 1.36576E-12
6.85389E-08 1.20866E-12
8.04380E-08 1.07648E-12
9.32891E-08 9.64758E-13
1.07092E-07 8.69553E-13
1.21847E-07 7.87624E-13
1.37554E-07 7.16388E-13
1.54213E-07 6.53893E-13
1.71823E-07 5.98718E-13
1.90386E-07 5.49411E-13
2.09900E-07 5.05267E-13
2.30367E-07 4.65549E-13
2.51785E-07 4.29461E-13
2.74156E-07 3.96782E-13
2.97478E-07 3.67016E-13
3.21752E-07 3.39802E-13
3.46978E-07 3.14993E-13
3.73156E-07 2.92234E-13
4.00286E-07 2.71382E-13
4.28368E-07 2.50998E-13
4.57402E-07 2.32326E-13
4.87388E-07 2.15753E-13
5.18325E-07 2.00994E-13
5.50215E-07 1.87807E-13
5.83057E-07 1.75989E-13
6.16850E-07 1.65366E-13
6.51596E-07 1.55058E-13
6.87293E-07 1.44680E-13
7.23942E-07 1.35330E-13
7.61543E-07 1.26884E-13
1.18991E-06 7.09179E-14
1.71347E-06 4.24783E-14
2.33223E-06 2.67974E-14
3.04617E-06 1.76484E-14
3.85531E-06 1.19826E-14
4.75964E-06 8.39240E-15
5.75916E-06 6.04959E-15
6.85388E-06 4.47076E-15
8.04378E-06 3.38421E-15
9.32888E-06 2.61546E-15
1.07092E-05 2.05759E-15
1.21846E-05 1.64303E-15
1.37553E-05 1.32982E-15
1.54212E-05 1.08898E-15
1.71822E-05 9.00888E-16
1.90385E-05 7.51040E-16
2.09899E-05 6.31558E-16
2.30365E-05 5.34695E-16
2.51783E-05 4.55351E-16
2.74153E-05 3.90082E-16
2.97475E-05 3.35991E-16
3.21749E-05 2.90871E-16
3.46974E-05 2.53063E-16
3.73152E-05 2.21165E-16
4.00281E-05 1.94129E-16
4.28362E-05 1.71009E-16
4.57395E-05 1.51280E-16
4.87380E-05 1.34406E-16
5.18317E-05 1.19719E-16
5.50205E-05 1.06996E-16
5.83045E-05 9.59717E-17
6.16838E-05 8.62724E-17
6.51582E-05 7.77899E-17
6.87277E-05 7.03590E-17
7.23925E-05 6.37613E-17
7.61524E-05 5.79368E-17
9.21439E-05 4.03692E-17
1.09658E-04 2.89831E-17
1.28695E-04 2.13565E-17
1.49255E-04 1.60840E-17
1.71338E-04 1.23433E-17
1.94942E-04 9.63103E-18
2.20070E-04 7.62409E-18
2.46720E-04 6.11358E-18
2.74892E-04 4.95945E-18
3.04586E-04 4.06477E-18
3.35803E-04 3.36302E-18
3.68542E-04 2.80640E-18
4.02802E-04 2.36012E-18
4.38585E-04 1.99918E-18
4.75889E-04 1.70468E-18
5.14715E-04 1.46245E-18
5.55063E-04 1.26182E-18
5.96931E-04 1.09445E-18
6.40321E-04 9.53965E-19
6.85233E-04 8.35361E-19
7.31665E-04 7.34646E-19
7.79618E-04 6.48698E-19
8.29092E-04 5.74990E-19
8.80086E-04 5.11478E-19
9.32601E-04 4.56526E-19
9.86636E-04 4.08780E-19
1.04219E-03 3.67133E-19
1.09927E-03 3.30676E-19
1.15786E-03 2.98647E-19
1.21797E-03 2.70418E-19
1.27961E-03 2.45461E-19
1.34276E-03 2.23326E-19
1.40743E-03 2.03641E-19
1.47362E-03 1.86087E-19
1.54133E-03 1.70391E-19
1.61056E-03 1.56324E-19
1.68131E-03 1.43684E-19
1.75357E-03 1.32302E-19
1.82735E-03 1.22031E-19
1.90265E-03 1.12741E-19
1.97947E-03 1.04323E-19
2.05780E-03 9.66807E-20
2.13765E-03 8.97280E-20
2.21902E-03 8.33928E-20
2.30190E-03 7.76097E-20
2.38630E-03 7.23218E-20
2.47222E-03 6.74792E-20
2.55965E-03 6.30373E-20
2.64859E-03 5.89570E-20
2.73905E-03 5.52035E-20
2.83103E-03 5.17455E-20
2.92452E-03 4.85558E-20
3.01952E-03 4.56095E-20
3.11604E-03 4.28847E-20
3.21407E-03 4.03616E-20
3.31362E-03 3.80226E-20
3.41468E-03 3.58516E-20
3.51725E-03 3.38344E-20
3.62133E-03 3.19581E-20
3.72692E-03 3.02109E-20
3.83403E-03 2.85823E-20
3.94265E-03 2.70628E-20
4.05278E-03 2.56436E-20
4.16442E-03 2.43168E-20
4.27757E-03 2.30756E-20
4.39223E-03 2.19130E-20
4.50840E-03 2.08234E-20
4.62608E-03 1.98011E-20
4.74527E-03 1.88414E-20
4.86597E-03 1.79396E-20
4.98817E-03 1.70915E-20
5.11188E-03 1.62934E-20
5.23711E-03 1.55417E-20
5.36383E-03 1.48333E-20
5.49207E-03 1.41651E-20
5.62181E-03 1.35345E-20
5.75306E-03 1.29389E-20
5.88581E-03 1.23760E-20
6.02007E-03 1.18437E-20
6.15583E-03 1.13400E-20
6.29310E-03 1.08630E-20
6.43187E-03 1.04111E-20
6.57214E-03 9.98270E-21
6.71392E-03 9.57632E-21
6.85720E-03 9.19066E-21
7.00198E-03 8.82439E-21
7.14827E-03 8.47642E-21
7.29605E-03 8.14558E-21
7.44534E-03 7.83094E-21
7.59612E-03 7.53149E-21
7.97965E-03 6.84387E-21
8.37255E-03 6.23379E-21
8.77480E-03 5.69098E-21
9.18641E-03 5.20668E-21
9.60736E-03 4.77343E-21
1.00376E-02 4.38489E-21
1.04773E-02 4.03559E-21
1.09262E-02 3.72086E-21
1.13844E-02 3.43664E-21
1.18520E-02 3.17942E-21
1.23288E-02 2.94618E-21
1.28150E-02 2.73426E-21
1.33104E-02 2.54134E-21
1.38150E-02 2.36541E-21
1.43290E-02 2.20468E-21
1.48521E-02 2.05761E-21
1.53845E-02 1.92280E-21
1.59262E-02 1.79904E-21
1.64770E-02 1.68526E-21
1.70371E-02 1.58050E-21
1.76063E-02 1.48390E-21
1.81848E-02 1.39471E-21
1.87724E-02 1.31225E-21
1.93692E-02 1.23591E-21
1.99751E-02 1.16515E-21
2.05901E-02 1.09949E-21
2.12143E-02 1.03848E-21
2.18476E-02 9.81741E-22
2.24900E-02 9.28903E-22
2.31415E-02 8.79649E-22
2.38021E-02 8.33689E-22
2.44717E-02 7.90759E-22
2.51504E-02 7.50620E-22
2.58382E-02 7.13053E-22
2.65349E-02 6.77862E-22
2.72407E-02 6.44868E-22
2.79555E-02 6.13904E-22
2.86793E-02 5.84822E-22
2.94120E-02 5.57484E-22
3.01537E-02 5.31765E-22
3.09043E-02 5.07549E-22
3.16639E-02 4.84732E-22
3.24324E-02 4.63215E-22
3.32098E-02 4.42910E-22
3.39961E-02 4.23734E-22
3.47912E-02 4.05613E-22
3.55952E-02 3.88476E-22
3.64081E-02 3.72259E-22
3.72297E-02 3.56903E-22
3.80602E-02 3.42352E-22
3.88995E-02 3.28556E-22
3.97476E-02 3.15467E-22
4.06044E-02 3.03042E-22
4.14700E-02 2.91240E-22
4.23443E-02 2.80023E-22
4.32273E-02 2.69357E-22
4.41190E-02 2.59209E-22
4.50194E-02 2.49548E-22
4.59284E-02 2.40346E-22
4.68461E-02 2.31577E-22
4.87074E-02 2.15241E-22
5.06030E-02 2.00361E-22
5.25328E-02 1.86781E-22
5.44967E-02 1.74367E-22
5.64946E-02 1.62997E-22
5.85262E-02 1.52566E-22
6.05914E-02 1.42982E-22
6.26901E-02 1.34160E-22
6.48222E-02 1.26029E-22
6.69873E-02 1.18524E-22
6.91854E-02 1.11586E-22
7.14163E-02 1.05164E-22
7.36799E-02 9.92107E-23
7.59760E-02 9.36860E-23
7.83043E-02 8.85524E-23
8.06647E-02 8.37763E-23
8.30571E-02 7.93277E-23
8.54812E-02 7.51794E-23
8.79369E-02 7.13070E-23
9.04240E-02 6.76883E-23
9.29422E-02 6.43031E-23
9.54915E-02 6.11332E-23
9.80716E-02 5.81619E-23
1.00682E-01 5.53744E-23
1.03323E-01 5.27567E-23
1.05995E-01 5.02964E-23
1.08696E-01 4.79818E-23
1.11427E-01 4.58027E-23
1.14188E-01 4.37493E-23
1.16978E-01 4.18129E-23
1.19797E-01 3.99853E-23
1.22645E-01 3.82592E-23
1.25522E-01 3.66276E-23
1.28428E-01 3.50843E-23
1.31361E-01 3.36235E-23
1.34323E-01 3.22399E-23
1.37313E-01 3.09284E-23
1.40330E-01 2.96844E-23
1.43375E-01 2.85039E-23
1.46447E-01 2.73827E-23
1.49545E-01 2.63174E-23
1.52671E-01 2.53044E-23
1.55823E-01 2.43407E-23
1.59001E-01 2.34234E-23
1.62205E-01 2.25497E-23
1.65435E-01 2.17171E-23
1.68690E-01 2.09232E-23
1.71970E-01 2.01659E-23
1.75276E-01 1.94431E-23
1.78606E-01 1.87529E-23
1.81961E-01 1.80934E-23
1.85340E-01 1.74631E-23
1.88743E-01 1.68603E-23
1.92169E-01 1.62837E-23
1.95619E-01 1.57317E-23
1.99092E-01 1.52031E-23
2.02589E-01 1.46968E-23
2.06107E-01 1.42115E-23
2.09649E-01 1.37462E-23
2.13212E-01 1.32999E-23
2.16797E-01 1.28717E-23
2.20404E-01 1.24606E-23
2.24032E-01 1.20658E-23
2.27680E-01 1.16866E-23
2.31350E-01 1.13222E-23
2.35040E-01 1.09718E-23
2.38751E-01 1.06349E-23
2.42481E-01 1.03107E-23
2.46231E-01 9.99874E-24
2.50000E-01 9.69843E-24
2.53788E-01 9.40922E-24
2.57595E-01 9.13063E-24
2.61421E-01 8.86217E-24
2.65264E-01 8.60340E-24
2.69126E-01 8.35389E-24
2.73005E-01 8.11323E-24
2.76901E-01 7.88105E-24
2.80814E-01 7.65698E-24
2.84744E-01 7.44068E-24
2.88691E-01 7.23181E-24
2.92653E-01 7.03007E-24
2.96632E-01 6.83516E-24
3.00625E-01 6.64680E-24
3.04634E-01 6.46472E-24
3.08658E-01 6.28866E-24
3.12697E-01 6.11839E-24
3.16749E-01 5.95368E-24
3.20816E-01 5.79429E-24
3.24896E-01 5.64003E-24
3.28990E-01 5.49069E-24
3.33097E-01 5.34608E-24
3.37216E-01 5.20603E-24
3.41348E-01 5.07034E-24
3.45492E-01 4.93887E-24
3.49647E-01 4.81145E-24
3.53814E-01 4.68793E-24
3.57992E-01 4.56817E-24
3.62181E-01 4.45202E-24
3.66381E-01 4.33935E-24
3.70590E-01 4.23005E-24
3.74810E-01 4.12398E-24
3.79039E-01 4.02103E-24
3.83277E-01 3.92109E-24
3.87524E-01 3.82405E-24
3.91780E-01 3.72981E-24
3.96044E-01 3.63828E-24
4.00316E-01 3.54935E-24
4.04596E-01 3.46295E-24
4.08882E-01 3.37897E-24
4.13176E-01 3.29735E-24
4.17476E-01 3.21800E-24
4.21783E-01 3.14085E-24
4.26095E-01 3.06581E-24
4.30413E-01 2.99283E-24
4.34737E-01 2.92183E-24
4.39065E-01 2.85275E-24
4.43398E-01 2.78551E-24
4.47736E-01 2.72007E-24
4.52077E-01 2.65636E-24
4.56422E-01 2.59434E-24
4.60770E-01 2.53395E-24
4.65122E-01 2.47514E-24
4.69476E-01 2.41786E-24
4.73832E-01 2.36205E-24
4.78190E-01 2.30769E-24
4.82550E-01 2.25471E-24
4.86912E-01 2.20308E-24
4.91274E-01 2.15276E-24
4.95637E-01 2.10371E-24
5.00000E-01 2.05588E-24
5.04363E-01 2.00925E-24
5.08726E-01 1.96378E-24
5.13088E-01 1.91942E-24
5.17450E-01 1.87616E-24
5.21810E-01 1.83396E-24
5.26168E-01 1.79278E-24
5.30524E-01 1.75260E-24
5.34878E-01 1.71339E-24
5.39230E-01 1.67511E-24
5.43578E-01 1.63776E-24
5.47923E-01 1.60129E-24
5.52264E-01 1.56568E-24
5.56602E-01 1.53091E-24
5.60935E-01 1.49696E-24
5.65263E-01 1.46380E-24
5.69587E-01 1.43141E-24
5.73905E-01 1.39977E-24
5.78217E-01 1.36886E-24
5.82524E-01 1.33866E-24
5.86824E-01 1.30915E-24
5.91118E-01 1.28031E-24
5.95404E-01 1.25213E-24
5.99684E-01 1.22458E-24
6.03956E-01 1.19765E-24
6.08220E-01 1.17133E-24
6.12476E-01 1.14559E-24
6.16723E-01 1.12042E-24
6.20961E-01 1.09581E-24
6.25190E-01 1.07175E-24
6.29410E-01 1.04821E-24
6.33619E-01 1.02519E-24
6.37819E-01 1.00267E-24
6.42008E-01 9.80639E-25
6.46186E-01 9.59086E-25
6.50353E-01 9.37999E-25
6.54508E-01 9.17365E-25
6.58652E-01 8.97173E-25
6.62784E-01 8.77413E-25
6.66903E-01 8.58074E-25
6.71010E-01 8.39146E-25
6.75104E-01 8.20618E-25
6.79184E-01 8.02481E-25
6.83251E-01 7.84725E-25
6.87303E-01 7.67342E-25
6.91342E-01 7.50322E-25
6.95366E-01 7.33657E-25
6.99375E-01 7.17339E-25
7.03368E-01 7.01359E-25
7.07347E-01 6.85709E-25
7.11309E-01 6.70382E-25
7.15256E-01 6.55370E-25
7.19186E-01 6.40666E-25
7.23099E-01 6.26263E-25
7.26995E-01 6.12153E-25
7.30874E-01 5.98332E-25
7.34736E-01 5.84791E-25
7.38579E-01 5.71524E-25
7.42405E-01 5.58526E-25
7.46212E-01 5.45790E-25
7.50000E-01 5.33311E-25
7.53769E-01 5.21083E-25
7.57519E-01 5.09100E-25
7.61249E-01 4.97357E-25
7.64960E-01 4.85849E-25
7.68650E-01 4.74570E-25
7.72320E-01 4.63517E-25
7.75968E-01 4.52683E-25
7.79596E-01 4.42065E-25
7.83203E-01 4.31657E-25
7.86788E-01 4.21456E-25
7.90351E-01 4.11457E-25
7.93893E-01 4.01655E-25
7.97411E-01 3.92047E-25
8.00908E-01 3.82629E-25
8.04381E-01 3.73396E-25
8.07831E-01 3.64345E-25
8.11257E-01 3.55473E-25
8.14660E-01 3.46775E-25
8.18039E-01 3.38249E-25
8.21394E-01 3.29890E-25
8.24724E-01 3.21695E-25
8.28030E-01 3.13662E-25
8.31310E-01 3.05787E-25
8.34565E-01 2.98066E-25
8.37795E-01 2.90498E-25
8.40999E-01 2.83078E-25
8.44177E-01 2.75805E-25
8.47329E-01 2.68675E-25
8.50455E-01 2.61685E-25
8.53553E-01 2.54834E-25
8.56625E-01 2.48117E-25
8.59670E-01 2.41534E-25
8.62687E-01 2.35081E-25
8.65677E-01 2.28756E-25
8.68639E-01 2.22557E-25
8.71572E-01 2.16481E-25
8.74478E-01 2.10526E-25
8.77355E-01 2.04690E-25
8.80203E-01 1.98972E-25
8.83022E-01 1.93368E-25
8.85812E-01 1.87877E-25
8.88573E-01 1.82496E-25
8.91304E-01 1.77225E-25
8.94005E-01 1.72061E-25
8.96677E-01 1.67002E-25
8.99318E-01 1.62047E-25
9.01928E-01 1.57193E-25
9.04508E-01 1.52440E-25
9.07058E-01 1.47785E-25
9.09576E-01 1.43227E-25
9.12063E-01 1.38765E-25
9.14519E-01 1.34396E-25
9.16943E-01 1.30119E-25
9.19335E-01 1.25933E-25
9.21696E-01 1.21837E-25
9.24024E-01 1.17829E-25
9.26320E-01 1.13908E-25
9.28584E-01 1.10072E-25
9.30815E-01 1.06320E-25
9.33013E-01 1.02652E-25
9.35178E-01 9.90646E-26
9.37310E-01 9.55582E-26
9.39409E-01 9.21312E-26
9.41474E-01 8.87825E-26
9.43505E-01 8.55110E-26
9.45503E-01 8.23157E-26
9.47467E-01 7.91956E-26
9.49397E-01 7.61496E-26
9.51293E-01 7.31767E-26
9.53154E-01 7.02761E-26
9.54981E-01 6.74467E-26
9.56773E-01 6.46878E-26
9.58530E-01 6.19984E-26
9.60252E-01 5.93776E-26
9.61940E-01 5.68248E-26
9.63592E-01 5.43390E-26
9.65209E-01 5.19194E-26
9.66790E-01 4.95654E-26
9.68336E-01 4.72762E-26
9.69846E-01 4.50511E-26
9.71321E-01 4.28895E-26
9.72759E-01 4.07905E-26
9.74162E-01 3.87536E-26
9.75528E-01 3.67783E-26
9.76858E-01 3.48637E-26
9.78152E-01 3.30095E-26
9.79410E-01 3.12150E-26
9.80631E-01 2.94796E-26
9.81815E-01 2.78029E-26
9.82963E-01 2.61844E-26
9.84074E-01 2.46234E-26
9.85148E-01 2.31197E-26
9.86185E-01 2.16727E-26
9.87185E-01 2.02820E-26
9.88148E-01 1.89471E-26
9.89074E-01 1.76678E-26
9.89962E-01 1.64435E-26
9.90814E-01 1.52740E-26
9.91627E-01 1.41588E-26
9.92404E-01 1.30977E-26
9.93143E-01 1.20903E-26
9.93844E-01 1.11363E-26
9.94508E-01 1.02355E-26
9.95134E-01 9.38762E-27
9.95722E-01 8.59234E-27
9.96273E-01 7.84946E-27
9.96786E-01 7.15875E-27
9.97261E-01 6.52003E-27
9.97698E-01 5.93308E-27
9.98097E-01 5.39776E-27
9.98459E-01 4.91388E-27
9.98782E-01 4.48133E-27
9.99067E-01 4.09996E-27
9.99315E-01 3.76966E-27
9.99524E-01 3.49035E-27
9.99695E-01 3.26193E-27
9.99829E-01 3.08434E-27
9.99924E-01 2.95753E-27
9.99981E-01 2.88145E-27
1.00000E+00 2.85610E-27
