 #
 # Subroutine ELSEPA. Elastic scattering of electrons and positrons
 #                    by neutral atoms and positive ions
 #
 # Projectile: electron
 # Kinetic energy = 3.00000E+08 eV = 1.10248E+07 a.u.
 #
 # WARNING: High-energy factorization with free-atom DF screening.
 #          Absorption, polarization and exchange corrections are
 #          switched off.
 #          Phase shifts are calculated for the bare nucleus.
 #          Scattering amplitudes are not evaluated.
 #
 # Element: Dy,  Z =  66,  atomic weight = 1.62500E+02 g/mol
 #
 # Nuclear model: Fermi distribution
 #                Average radius = 5.83895E-13 cm
 #                Skin thickness = 5.46000E-14 cm
 #
 # Number of electrons = 66
 #
 # Total elastic cross section = 7.11655E-18 cm**2 = 2.54137E-01 a0**2
 # 1st transport cross section = 9.28233E-26 cm**2 = 3.31478E-09 a0**2
 # 2nd transport cross section = 2.78184E-25 cm**2 = 9.93413E-09 a0**2
 #
 #
 # Differential cross section:                       MU=(1-COS(THETA))/2
 #
 #  THETA        MU          DCS          DCS        Sherman      error
 #  (deg)                 (cm**2/sr)   (a0**2/sr)    function
 #----------------------------------------------------------------------
0.00000E+00 7.07823E-09
7.61557E-13 6.78841E-09
1.18994E-12 6.63410E-09
1.71346E-12 6.45342E-09
2.33225E-12 6.25043E-09
3.04617E-12 6.03033E-09
3.85530E-12 5.79509E-09
4.75964E-12 5.55201E-09
5.75917E-12 5.30145E-09
6.85391E-12 5.05144E-09
8.04379E-12 4.80081E-09
9.32893E-12 4.55575E-09
1.07092E-11 4.31603E-09
1.21847E-11 4.08479E-09
1.37554E-11 3.86312E-09
1.54213E-11 3.65108E-09
1.71823E-11 3.45121E-09
1.90386E-11 3.26085E-09
2.09900E-11 3.08386E-09
2.30367E-11 2.91598E-09
2.51785E-11 2.76070E-09
2.74156E-11 2.61446E-09
2.97478E-11 2.47890E-09
3.21752E-11 2.35218E-09
3.46979E-11 2.23431E-09
3.73157E-11 2.12468E-09
4.00286E-11 2.02231E-09
4.28368E-11 1.92733E-09
4.57402E-11 1.83832E-09
4.87388E-11 1.75574E-09
5.18325E-11 1.67822E-09
5.50215E-11 1.60595E-09
5.83057E-11 1.53809E-09
6.16850E-11 1.47451E-09
6.51595E-11 1.41473E-09
6.87293E-11 1.35850E-09
7.23943E-11 1.30546E-09
7.61544E-11 1.25548E-09
1.18991E-10 8.75351E-10
1.71347E-10 6.31857E-10
2.33223E-10 4.65066E-10
3.04617E-10 3.43138E-10
3.85531E-10 2.63067E-10
4.75965E-10 2.01660E-10
5.75917E-10 1.59077E-10
6.85389E-10 1.25525E-10
8.04380E-10 1.01237E-10
9.32891E-10 8.20631E-11
1.07092E-09 6.74109E-11
1.21847E-09 5.57547E-11
1.37554E-09 4.64644E-11
1.54213E-09 3.90265E-11
1.71823E-09 3.29085E-11
1.90386E-09 2.79864E-11
2.09900E-09 2.38458E-11
2.30367E-09 2.04840E-11
2.51785E-09 1.76360E-11
2.74156E-09 1.52853E-11
2.97478E-09 1.32946E-11
3.21752E-09 1.16231E-11
3.46978E-09 1.02041E-11
3.73156E-09 8.99608E-12
4.00286E-09 7.96580E-12
4.28368E-09 7.07827E-12
4.57402E-09 6.31678E-12
4.87388E-09 5.65386E-12
5.18326E-09 5.08049E-12
5.50215E-09 4.57803E-12
5.83057E-09 4.13943E-12
6.16850E-09 3.75359E-12
6.51596E-09 3.41228E-12
6.87293E-09 3.10904E-12
7.23942E-09 2.83936E-12
7.61544E-09 2.59954E-12
1.18991E-08 1.18774E-12
1.71347E-08 6.15829E-13
2.33223E-08 3.49082E-13
3.04617E-08 2.11905E-13
3.85531E-08 1.35932E-13
4.75965E-08 9.12173E-14
5.75917E-08 6.35080E-14
6.85389E-08 4.55664E-14
8.04380E-08 3.35511E-14
9.32891E-08 2.52499E-14
1.07092E-07 1.93633E-14
1.21847E-07 1.50980E-14
1.37554E-07 1.19429E-14
1.54213E-07 9.56985E-15
1.71823E-07 7.75770E-15
1.90386E-07 6.35346E-15
2.09900E-07 5.25282E-15
2.30367E-07 4.38012E-15
2.51785E-07 3.68091E-15
2.74156E-07 3.11572E-15
2.97478E-07 2.65474E-15
3.21752E-07 2.27584E-15
3.46978E-07 1.96216E-15
3.73156E-07 1.70061E-15
4.00286E-07 1.48121E-15
4.28368E-07 1.29607E-15
4.57402E-07 1.13895E-15
4.87388E-07 1.00494E-15
5.18325E-07 8.90065E-16
5.50215E-07 7.91145E-16
5.83057E-07 7.05601E-16
6.16850E-07 6.31310E-16
6.51596E-07 5.66549E-16
6.87293E-07 5.09889E-16
7.23942E-07 4.60137E-16
7.61543E-07 4.16313E-16
1.18991E-06 1.72148E-16
1.71347E-06 8.35649E-17
2.33223E-06 4.53181E-17
3.04617E-06 2.66559E-17
3.85531E-06 1.66840E-17
4.75964E-06 1.09681E-17
5.75916E-06 7.50301E-18
6.85388E-06 5.30426E-18
8.04378E-06 3.85498E-18
9.32888E-06 2.86851E-18
1.07092E-05 2.17832E-18
1.21846E-05 1.68377E-18
1.37553E-05 1.32193E-18
1.54212E-05 1.05227E-18
1.71822E-05 8.48004E-19
1.90385E-05 6.90658E-19
2.09899E-05 5.68728E-19
2.30365E-05 4.72495E-19
2.51783E-05 3.95692E-19
2.74153E-05 3.33806E-19
2.97475E-05 2.83526E-19
3.21749E-05 2.42365E-19
3.46974E-05 2.08428E-19
3.73152E-05 1.80253E-19
4.00281E-05 1.56700E-19
4.28362E-05 1.36880E-19
4.57395E-05 1.20098E-19
4.87380E-05 1.05806E-19
5.18317E-05 9.35734E-20
5.50205E-05 8.30541E-20
5.83045E-05 7.39713E-20
6.16838E-05 6.60978E-20
6.51582E-05 5.92471E-20
6.87277E-05 5.32640E-20
7.23925E-05 4.80192E-20
7.61524E-05 4.36643E-20
9.21439E-05 2.98767E-20
1.09658E-04 2.11306E-20
1.28695E-04 1.53681E-20
1.49255E-04 1.14439E-20
1.71338E-04 8.69790E-21
1.94942E-04 6.72894E-21
2.20070E-04 5.28746E-21
2.46720E-04 4.21245E-21
2.74892E-04 3.39741E-21
3.04586E-04 2.77028E-21
3.35803E-04 2.28136E-21
3.68542E-04 1.89566E-21
4.02802E-04 1.58806E-21
4.38585E-04 1.34030E-21
4.75889E-04 1.13894E-21
5.14715E-04 9.73913E-22
5.55063E-04 8.37630E-22
5.96931E-04 7.24279E-22
6.40321E-04 6.29382E-22
6.85233E-04 5.49446E-22
7.31665E-04 4.81727E-22
7.79618E-04 4.24053E-22
8.29092E-04 3.74687E-22
8.80086E-04 3.32236E-22
9.32601E-04 2.95569E-22
9.86636E-04 2.63767E-22
1.04219E-03 2.36077E-22
1.09927E-03 2.11879E-22
1.15786E-03 1.90657E-22
1.21797E-03 1.71986E-22
1.27961E-03 1.55505E-22
1.34276E-03 1.40917E-22
1.40743E-03 1.27965E-22
1.47362E-03 1.16437E-22
1.54133E-03 1.06149E-22
1.61056E-03 9.69455E-23
1.68131E-03 8.86929E-23
1.75357E-03 8.12764E-23
1.82735E-03 7.45973E-23
1.90265E-03 6.85699E-23
1.97947E-03 6.31200E-23
2.05780E-03 5.81831E-23
2.13765E-03 5.37030E-23
2.21902E-03 4.96302E-23
2.30190E-03 4.59217E-23
2.38630E-03 4.25396E-23
2.47222E-03 3.94504E-23
2.55965E-03 3.66246E-23
2.64859E-03 3.40361E-23
2.73905E-03 3.16617E-23
2.83103E-03 2.94808E-23
2.92452E-03 2.74753E-23
3.01952E-03 2.56286E-23
3.11604E-03 2.39263E-23
3.21407E-03 2.23552E-23
3.31362E-03 2.09037E-23
3.41468E-03 1.95613E-23
3.51725E-03 1.83184E-23
3.62133E-03 1.71665E-23
3.72692E-03 1.60980E-23
3.83403E-03 1.51059E-23
3.94265E-03 1.41839E-23
4.05278E-03 1.33263E-23
4.16442E-03 1.25280E-23
4.27757E-03 1.17842E-23
4.39223E-03 1.10907E-23
4.50840E-03 1.04435E-23
4.62608E-03 9.83921E-24
4.74527E-03 9.27449E-24
4.86597E-03 8.74638E-24
4.98817E-03 8.25220E-24
5.11188E-03 7.78944E-24
5.23711E-03 7.35585E-24
5.36383E-03 6.94932E-24
5.49207E-03 6.56794E-24
5.62181E-03 6.20995E-24
5.75306E-03 5.87372E-24
5.88581E-03 5.55775E-24
6.02007E-03 5.26067E-24
6.15583E-03 4.98120E-24
6.29310E-03 4.71816E-24
6.43187E-03 4.47046E-24
6.57214E-03 4.23711E-24
6.71392E-03 4.01716E-24
6.85720E-03 3.80975E-24
7.00198E-03 3.61409E-24
7.14827E-03 3.42942E-24
7.29605E-03 3.25506E-24
7.44534E-03 3.09037E-24
7.59612E-03 2.93475E-24
7.97965E-03 2.58182E-24
8.37255E-03 2.27451E-24
8.77480E-03 2.00637E-24
9.18641E-03 1.77192E-24
9.60736E-03 1.56657E-24
1.00376E-02 1.38639E-24
1.04773E-02 1.22804E-24
1.09262E-02 1.08868E-24
1.13844E-02 9.65856E-25
1.18520E-02 8.57466E-25
1.23288E-02 7.61702E-25
1.28150E-02 6.77001E-25
1.33104E-02 6.02008E-25
1.38150E-02 5.35549E-25
1.43290E-02 4.76603E-25
1.48521E-02 4.24279E-25
1.53845E-02 3.77801E-25
1.59262E-02 3.36489E-25
1.64770E-02 2.99747E-25
1.70371E-02 2.67053E-25
1.76063E-02 2.37948E-25
1.81848E-02 2.12028E-25
1.87724E-02 1.88935E-25
1.93692E-02 1.68357E-25
1.99751E-02 1.50013E-25
2.05901E-02 1.33660E-25
2.12143E-02 1.19078E-25
2.18476E-02 1.06075E-25
2.24900E-02 9.44795E-26
2.31415E-02 8.41385E-26
2.38021E-02 7.49170E-26
2.44717E-02 6.66944E-26
2.51504E-02 5.93634E-26
2.58382E-02 5.28283E-26
2.65349E-02 4.70040E-26
2.72407E-02 4.18142E-26
2.79555E-02 3.71911E-26
2.86793E-02 3.30742E-26
2.94120E-02 2.94091E-26
3.01537E-02 2.61474E-26
3.09043E-02 2.32460E-26
3.16639E-02 2.06660E-26
3.24324E-02 1.83729E-26
3.32098E-02 1.63357E-26
3.39961E-02 1.45268E-26
3.47912E-02 1.29212E-26
3.55952E-02 1.14970E-26
3.64081E-02 1.02342E-26
3.72297E-02 9.11518E-27
3.80602E-02 8.12400E-27
3.88995E-02 7.24653E-27
3.97476E-02 6.47008E-27
4.06044E-02 5.78333E-27
4.14700E-02 5.17618E-27
4.23443E-02 4.63959E-27
4.32273E-02 4.16552E-27
4.41190E-02 3.74678E-27
4.50194E-02 3.37696E-27
4.59284E-02 3.05035E-27
4.68461E-02 2.76190E-27
4.87074E-02 2.28186E-27
5.06030E-02 1.90646E-27
5.25328E-02 1.61178E-27
5.44967E-02 1.37910E-27
5.64946E-02 1.19385E-27
5.85262E-02 1.04471E-27
6.05914E-02 9.22992E-28
6.26901E-02 8.22058E-28
6.48222E-02 7.36872E-28
6.69873E-02 6.63659E-28
6.91854E-02 5.99616E-28
7.14163E-02 5.42684E-28
7.36799E-02 4.91375E-28
7.59760E-02 4.44624E-28
7.83043E-02 4.01683E-28
8.06647E-02 3.62032E-28
8.30571E-02 3.25317E-28
8.54812E-02 2.91295E-28
8.79369E-02 2.59796E-28
9.04240E-02 2.30701E-28
9.29422E-02 2.03915E-28
9.54915E-02 1.79357E-28
9.80716E-02 1.56948E-28
1.00682E-01 1.36607E-28
1.03323E-01 1.18249E-28
1.05995E-01 1.01777E-28
1.08696E-01 8.70921E-29
1.11427E-01 7.40841E-29
1.14188E-01 6.26401E-29
1.16978E-01 5.26428E-29
1.19797E-01 4.39734E-29
1.22645E-01 3.65130E-29
1.25522E-01 3.01446E-29
1.28428E-01 2.47543E-29
1.31361E-01 2.02327E-29
1.34323E-01 1.64761E-29
1.37313E-01 1.33870E-29
1.40330E-01 1.08749E-29
1.43375E-01 8.85657E-30
1.46447E-01 7.25644E-30
1.49545E-01 6.00634E-30
1.52671E-01 5.04553E-30
1.55823E-01 4.32044E-30
1.59001E-01 3.78431E-30
1.62205E-01 3.39680E-30
1.65435E-01 3.12353E-30
1.68690E-01 2.93555E-30
1.71970E-01 2.80887E-30
1.75276E-01 2.72393E-30
1.78606E-01 2.66507E-30
1.81961E-01 2.62008E-30
1.85340E-01 2.57968E-30
1.88743E-01 2.53712E-30
1.92169E-01 2.48776E-30
1.95619E-01 2.42868E-30
1.99092E-01 2.35839E-30
2.02589E-01 2.27649E-30
2.06107E-01 2.18343E-30
2.09649E-01 2.08029E-30
2.13212E-01 1.96858E-30
2.16797E-01 1.85006E-30
2.20404E-01 1.72664E-30
2.24032E-01 1.60027E-30
2.27680E-01 1.47283E-30
2.31350E-01 1.34608E-30
2.35040E-01 1.22163E-30
2.38751E-01 1.10089E-30
2.42481E-01 9.85056E-31
2.46231E-01 8.75112E-31
2.50000E-01 7.71824E-31
2.53788E-01 6.75751E-31
2.57595E-01 5.87257E-31
2.61421E-01 5.06528E-31
2.65264E-01 4.33590E-31
2.69126E-01 3.68335E-31
2.73005E-01 3.10535E-31
2.76901E-01 2.59866E-31
2.80814E-01 2.15931E-31
2.84744E-01 1.78272E-31
2.88691E-01 1.46395E-31
2.92653E-01 1.19778E-31
2.96632E-01 9.78938E-32
3.00625E-01 8.02121E-32
3.04634E-01 6.62169E-32
3.08658E-01 5.54114E-32
3.12697E-01 4.73255E-32
3.16749E-01 4.15205E-32
3.20816E-01 3.75925E-32
3.24896E-01 3.51750E-32
3.28990E-01 3.39396E-32
3.33097E-01 3.35964E-32
3.37216E-01 3.38930E-32
3.41348E-01 3.46134E-32
3.45492E-01 3.55758E-32
3.49647E-01 3.66306E-32
3.53814E-01 3.76578E-32
3.57992E-01 3.85639E-32
3.62181E-01 3.92794E-32
3.66381E-01 3.97558E-32
3.70590E-01 3.99628E-32
3.74810E-01 3.98854E-32
3.79039E-01 3.95215E-32
3.83277E-01 3.88797E-32
3.87524E-01 3.79766E-32
3.91780E-01 3.68352E-32
3.96044E-01 3.54830E-32
4.00316E-01 3.39503E-32
4.04596E-01 3.22689E-32
4.08882E-01 3.04714E-32
4.13176E-01 2.85894E-32
4.17476E-01 2.66534E-32
4.21783E-01 2.46923E-32
4.26095E-01 2.27321E-32
4.30413E-01 2.07965E-32
4.34737E-01 1.89065E-32
4.39065E-01 1.70797E-32
4.43398E-01 1.53311E-32
4.47736E-01 1.36727E-32
4.52077E-01 1.21138E-32
4.56422E-01 1.06610E-32
4.60770E-01 9.31874E-33
4.65122E-01 8.08901E-33
4.69476E-01 6.97202E-33
4.73832E-01 5.96629E-33
4.78190E-01 5.06887E-33
4.82550E-01 4.27562E-33
4.86912E-01 3.58142E-33
4.91274E-01 2.98041E-33
4.95637E-01 2.46614E-33
5.00000E-01 2.03182E-33
5.04363E-01 1.67041E-33
5.08726E-01 1.37484E-33
5.13088E-01 1.13806E-33
5.17450E-01 9.53205E-34
5.21810E-01 8.13652E-34
5.26168E-01 7.13100E-34
5.30524E-01 6.45627E-34
5.34878E-01 6.05725E-34
5.39230E-01 5.88333E-34
5.43578E-01 5.88851E-34
5.47923E-01 6.03143E-34
5.52264E-01 6.27539E-34
5.56602E-01 6.58818E-34
5.60935E-01 6.94198E-34
5.65263E-01 7.31309E-34
5.69587E-01 7.68171E-34
5.73905E-01 8.03164E-34
5.78217E-01 8.34998E-34
5.82524E-01 8.62685E-34
5.86824E-01 8.85503E-34
5.91118E-01 9.02970E-34
5.95404E-01 9.14809E-34
5.99684E-01 9.20923E-34
6.03956E-01 9.21365E-34
6.08220E-01 9.16314E-34
6.12476E-01 9.06048E-34
6.16723E-01 8.90925E-34
6.20961E-01 8.71364E-34
6.25190E-01 8.47825E-34
6.29410E-01 8.20793E-34
6.33619E-01 7.90767E-34
6.37819E-01 7.58247E-34
6.42008E-01 7.23724E-34
6.46186E-01 6.87674E-34
6.50353E-01 6.50547E-34
6.54508E-01 6.12766E-34
6.58652E-01 5.74723E-34
6.62784E-01 5.36774E-34
6.66903E-01 4.99240E-34
6.71010E-01 4.62404E-34
6.75104E-01 4.26513E-34
6.79184E-01 3.91778E-34
6.83251E-01 3.58373E-34
6.87303E-01 3.26443E-34
6.91342E-01 2.96097E-34
6.95366E-01 2.67418E-34
6.99375E-01 2.40461E-34
7.03368E-01 2.15257E-34
7.07347E-01 1.91815E-34
7.11309E-01 1.70126E-34
7.15256E-01 1.50163E-34
7.19186E-01 1.31884E-34
7.23099E-01 1.15236E-34
7.26995E-01 1.00156E-34
7.30874E-01 8.65719E-35
7.34736E-01 7.44067E-35
7.38579E-01 6.35781E-35
7.42405E-01 5.40013E-35
7.46212E-01 4.55893E-35
7.50000E-01 3.82553E-35
7.53769E-01 3.19128E-35
7.57519E-01 2.64769E-35
7.61249E-01 2.18649E-35
7.64960E-01 1.79971E-35
7.68650E-01 1.47972E-35
7.72320E-01 1.21926E-35
7.75968E-01 1.01148E-35
7.79596E-01 8.49966E-36
7.83203E-01 7.28739E-36
7.86788E-01 6.42274E-36
7.90351E-01 5.85475E-36
7.93893E-01 5.53699E-36
7.97411E-01 5.42724E-36
8.00908E-01 5.48746E-36
8.04381E-01 5.68349E-36
8.07831E-01 5.98506E-36
8.11257E-01 6.36536E-36
8.14660E-01 6.80097E-36
8.18039E-01 7.27156E-36
8.21394E-01 7.75970E-36
8.24724E-01 8.25057E-36
8.28030E-01 8.73179E-36
8.31310E-01 9.19315E-36
8.34565E-01 9.62643E-36
8.37795E-01 1.00252E-35
8.40999E-01 1.03845E-35
8.44177E-01 1.07008E-35
8.47329E-01 1.09719E-35
8.50455E-01 1.11965E-35
8.53553E-01 1.13742E-35
8.56625E-01 1.15054E-35
8.59670E-01 1.15913E-35
8.62687E-01 1.16332E-35
8.65677E-01 1.16332E-35
8.68639E-01 1.15936E-35
8.71572E-01 1.15169E-35
8.74478E-01 1.14058E-35
8.77355E-01 1.12632E-35
8.80203E-01 1.10920E-35
8.83022E-01 1.08950E-35
8.85812E-01 1.06751E-35
8.88573E-01 1.04351E-35
8.91304E-01 1.01778E-35
8.94005E-01 9.90568E-36
8.96677E-01 9.62131E-36
8.99318E-01 9.32703E-36
9.01928E-01 9.02507E-36
9.04508E-01 8.71741E-36
9.07058E-01 8.40601E-36
9.09576E-01 8.09260E-36
9.12063E-01 7.77875E-36
9.14519E-01 7.46590E-36
9.16943E-01 7.15534E-36
9.19335E-01 6.84825E-36
9.21696E-01 6.54559E-36
9.24024E-01 6.24830E-36
9.26320E-01 5.95712E-36
9.28584E-01 5.67270E-36
9.30815E-01 5.39559E-36
9.33013E-01 5.12624E-36
9.35178E-01 4.86503E-36
9.37310E-01 4.61223E-36
9.39409E-01 4.36802E-36
9.41474E-01 4.13255E-36
9.43505E-01 3.90591E-36
9.45503E-01 3.68809E-36
9.47467E-01 3.47913E-36
9.49397E-01 3.27890E-36
9.51293E-01 3.08732E-36
9.53154E-01 2.90425E-36
9.54981E-01 2.72953E-36
9.56773E-01 2.56298E-36
9.58530E-01 2.40436E-36
9.60252E-01 2.25350E-36
9.61940E-01 2.11014E-36
9.63592E-01 1.97403E-36
9.65209E-01 1.84494E-36
9.66790E-01 1.72261E-36
9.68336E-01 1.60679E-36
9.69846E-01 1.49721E-36
9.71321E-01 1.39361E-36
9.72759E-01 1.29577E-36
9.74162E-01 1.20340E-36
9.75528E-01 1.11629E-36
9.76858E-01 1.03419E-36
9.78152E-01 9.56849E-37
9.79410E-01 8.84051E-37
9.80631E-01 8.15588E-37
9.81815E-01 7.51236E-37
9.82963E-01 6.90797E-37
9.84074E-01 6.34074E-37
9.85148E-01 5.80872E-37
9.86185E-01 5.31021E-37
9.87185E-01 4.84346E-37
9.88148E-01 4.40678E-37
9.89074E-01 3.99871E-37
9.89962E-01 3.61763E-37
9.90814E-01 3.26235E-37
9.91627E-01 2.93139E-37
9.92404E-01 2.62351E-37
9.93143E-01 2.33760E-37
9.93844E-01 2.07258E-37
9.94508E-01 1.82734E-37
9.95134E-01 1.60099E-37
9.95722E-01 1.39259E-37
9.96273E-01 1.20133E-37
9.96786E-01 1.02654E-37
9.97261E-01 8.67378E-38
9.97698E-01 7.23246E-38
9.98097E-01 5.93536E-38
9.98459E-01 4.77812E-38
9.98782E-01 3.75473E-38
9.99067E-01 2.86140E-38
9.99315E-01 2.09476E-38
9.99524E-01 1.45118E-38
9.99695E-01 9.28250E-39
9.99829E-01 5.24086E-39
9.99924E-01 2.36510E-39
9.99981E-01 6.43500E-40
1.00000E+00 6.63779E-41
