 #
 # Subroutine ELSEPA. Elastic scattering of electrons and positrons
 #                    by neutral atoms and positive ions
 #
 # Projectile: electron
 # Kinetic energy = 5.00000E+06 eV = 1.83747E+05 a.u.
 #
 # WARNING: High-energy factorization with free-atom DF screening.
 #          Absorption, polarization and exchange corrections are
 #          switched off.
 #          Phase shifts are calculated for the bare nucleus.
 #          Scattering amplitudes are not evaluated.
 #
 # Element: Dy,  Z =  66,  atomic weight = 1.62500E+02 g/mol
 #
 # Nuclear model: Fermi distribution
 #                Average radius = 5.83895E-13 cm
 #                Skin thickness = 5.46000E-14 cm
 #
 # Number of electrons = 66
 #
 # Total elastic cross section = 7.19785E-18 cm**2 = 2.57040E-01 a0**2
 # 1st transport cross section = 2.37505E-22 cm**2 = 8.48147E-06 a0**2
 # 2nd transport cross section = 6.50623E-22 cm**2 = 2.32342E-05 a0**2
 #
 #
 # Differential cross section:                       MU=(1-COS(THETA))/2
 #
 #  THETA        MU          DCS          DCS        Sherman      error
 #  (deg)                 (cm**2/sr)   (a0**2/sr)    function
 #----------------------------------------------------------------------
0.00000E+00 2.38048E-12
7.61557E-13 2.38045E-12
1.18994E-12 2.38043E-12
1.71346E-12 2.38041E-12
2.33225E-12 2.38038E-12
3.04617E-12 2.38035E-12
3.85530E-12 2.38031E-12
4.75964E-12 2.38027E-12
5.75917E-12 2.38023E-12
6.85391E-12 2.38018E-12
8.04379E-12 2.38013E-12
9.32893E-12 2.38007E-12
1.07092E-11 2.38001E-12
1.21847E-11 2.37994E-12
1.37554E-11 2.37987E-12
1.54213E-11 2.37980E-12
1.71823E-11 2.37972E-12
1.90386E-11 2.37964E-12
2.09900E-11 2.37955E-12
2.30367E-11 2.37946E-12
2.51785E-11 2.37937E-12
2.74156E-11 2.37927E-12
2.97478E-11 2.37917E-12
3.21752E-11 2.37906E-12
3.46979E-11 2.37895E-12
3.73157E-11 2.37883E-12
4.00286E-11 2.37871E-12
4.28368E-11 2.37859E-12
4.57402E-11 2.37846E-12
4.87388E-11 2.37833E-12
5.18325E-11 2.37819E-12
5.50215E-11 2.37805E-12
5.83057E-11 2.37791E-12
6.16850E-11 2.37776E-12
6.51595E-11 2.37761E-12
6.87293E-11 2.37745E-12
7.23943E-11 2.37729E-12
7.61544E-11 2.37712E-12
1.18991E-10 2.37524E-12
1.71347E-10 2.37294E-12
2.33223E-10 2.37022E-12
3.04617E-10 2.36710E-12
3.85531E-10 2.36356E-12
4.75965E-10 2.35962E-12
5.75917E-10 2.35528E-12
6.85389E-10 2.35054E-12
8.04380E-10 2.34540E-12
9.32891E-10 2.33988E-12
1.07092E-09 2.33397E-12
1.21847E-09 2.32768E-12
1.37554E-09 2.32102E-12
1.54213E-09 2.31399E-12
1.71823E-09 2.30659E-12
1.90386E-09 2.29884E-12
2.09900E-09 2.29074E-12
2.30367E-09 2.28229E-12
2.51785E-09 2.27351E-12
2.74156E-09 2.26439E-12
2.97478E-09 2.25496E-12
3.21752E-09 2.24521E-12
3.46978E-09 2.23515E-12
3.73156E-09 2.22479E-12
4.00286E-09 2.21415E-12
4.28368E-09 2.20321E-12
4.57402E-09 2.19201E-12
4.87388E-09 2.18054E-12
5.18326E-09 2.16881E-12
5.50215E-09 2.15683E-12
5.83057E-09 2.14461E-12
6.16850E-09 2.13216E-12
6.51596E-09 2.11948E-12
6.87293E-09 2.10659E-12
7.23942E-09 2.09350E-12
7.61544E-09 2.08021E-12
1.18991E-08 1.93851E-12
1.71347E-08 1.78680E-12
2.33223E-08 1.63279E-12
3.04617E-08 1.48266E-12
3.85531E-08 1.34081E-12
4.75965E-08 1.20999E-12
5.75917E-08 1.09151E-12
6.85389E-08 9.85617E-13
8.04380E-08 8.91849E-13
9.32891E-08 8.09284E-13
1.07092E-07 7.36786E-13
1.21847E-07 6.73155E-13
1.37554E-07 6.17223E-13
1.54213E-07 5.67914E-13
1.71823E-07 5.24271E-13
1.90386E-07 4.85462E-13
2.09900E-07 4.50776E-13
2.30367E-07 4.19610E-13
2.51785E-07 3.91463E-13
2.74156E-07 3.65916E-13
2.97478E-07 3.42620E-13
3.21752E-07 3.21287E-13
3.46978E-07 3.01676E-13
3.73156E-07 2.83587E-13
4.00286E-07 2.66852E-13
4.28368E-07 2.51330E-13
4.57402E-07 2.36902E-13
4.87388E-07 2.23464E-13
5.18325E-07 2.10930E-13
5.50215E-07 1.99222E-13
5.83057E-07 1.88275E-13
6.16850E-07 1.78027E-13
6.51596E-07 1.68428E-13
6.87293E-07 1.59430E-13
7.23942E-07 1.50990E-13
7.61543E-07 1.43069E-13
1.18991E-06 8.58231E-14
1.71347E-06 5.41556E-14
2.33223E-06 3.57945E-14
3.04617E-06 2.45764E-14
3.85531E-06 1.73850E-14
4.75964E-06 1.25929E-14
5.75916E-06 9.30491E-15
6.85388E-06 6.99820E-15
8.04378E-06 5.35077E-15
9.32888E-06 4.15566E-15
1.07092E-05 3.27585E-15
1.21846E-05 2.61874E-15
1.37553E-05 2.12089E-15
1.54212E-05 1.73833E-15
1.71822E-05 1.44030E-15
1.90385E-05 1.20504E-15
2.09899E-05 1.01704E-15
2.30365E-05 8.65062E-16
2.51783E-05 7.40922E-16
2.74153E-05 6.38556E-16
2.97475E-05 5.53419E-16
3.21749E-05 4.82069E-16
3.46974E-05 4.21861E-16
3.73152E-05 3.70740E-16
4.00281E-05 3.27094E-16
4.28362E-05 2.89641E-16
4.57395E-05 2.57355E-16
4.87380E-05 2.29405E-16
5.18317E-05 2.05115E-16
5.50205E-05 1.83928E-16
5.83045E-05 1.65385E-16
6.16838E-05 1.49103E-16
6.51582E-05 1.34764E-16
6.87277E-05 1.22098E-16
7.23925E-05 1.10878E-16
7.61524E-05 1.00914E-16
9.21439E-05 7.06771E-17
1.09658E-04 5.09664E-17
1.28695E-04 3.76839E-17
1.49255E-04 2.84703E-17
1.71338E-04 2.19156E-17
1.94942E-04 1.71481E-17
2.20070E-04 1.36124E-17
2.46720E-04 1.09447E-17
2.74892E-04 8.90074E-18
3.04586E-04 7.31311E-18
3.35803E-04 6.06457E-18
3.68542E-04 5.07167E-18
4.02802E-04 4.27399E-18
4.38585E-04 3.62718E-18
4.75889E-04 3.09824E-18
5.14715E-04 2.66228E-18
5.55063E-04 2.30037E-18
5.96931E-04 1.99791E-18
6.40321E-04 1.74356E-18
6.85233E-04 1.52843E-18
7.31665E-04 1.34549E-18
7.79618E-04 1.18913E-18
8.29092E-04 1.05485E-18
8.80086E-04 9.39011E-19
9.32601E-04 8.38666E-19
9.86636E-04 7.51391E-19
1.04219E-03 6.75197E-19
1.09927E-03 6.08439E-19
1.15786E-03 5.49749E-19
1.21797E-03 4.97984E-19
1.27961E-03 4.52187E-19
1.34276E-03 4.11551E-19
1.40743E-03 3.75393E-19
1.47362E-03 3.43134E-19
1.54133E-03 3.14279E-19
1.61056E-03 2.88405E-19
1.68131E-03 2.65151E-19
1.75357E-03 2.44204E-19
1.82735E-03 2.25294E-19
1.90265E-03 2.08188E-19
1.97947E-03 1.92682E-19
2.05780E-03 1.78601E-19
2.13765E-03 1.65789E-19
2.21902E-03 1.54112E-19
2.30190E-03 1.43450E-19
2.38630E-03 1.33700E-19
2.47222E-03 1.24769E-19
2.55965E-03 1.16576E-19
2.64859E-03 1.09048E-19
2.73905E-03 1.02122E-19
2.83103E-03 9.57405E-20
2.92452E-03 8.98530E-20
3.01952E-03 8.44140E-20
3.11604E-03 7.93830E-20
3.21407E-03 7.47240E-20
3.31362E-03 7.04040E-20
3.41468E-03 6.63938E-20
3.51725E-03 6.26673E-20
3.62133E-03 5.92004E-20
3.72692E-03 5.59717E-20
3.83403E-03 5.29618E-20
3.94265E-03 5.01530E-20
4.05278E-03 4.75294E-20
4.16442E-03 4.50765E-20
4.27757E-03 4.27810E-20
4.39223E-03 4.06311E-20
4.50840E-03 3.86155E-20
4.62608E-03 3.67245E-20
4.74527E-03 3.49488E-20
4.86597E-03 3.32800E-20
4.98817E-03 3.17105E-20
5.11188E-03 3.02333E-20
5.23711E-03 2.88419E-20
5.36383E-03 2.75303E-20
5.49207E-03 2.62932E-20
5.62181E-03 2.51254E-20
5.75306E-03 2.40223E-20
5.88581E-03 2.29797E-20
6.02007E-03 2.19936E-20
6.15583E-03 2.10604E-20
6.29310E-03 2.01766E-20
6.43187E-03 1.93392E-20
6.57214E-03 1.85452E-20
6.71392E-03 1.77920E-20
6.85720E-03 1.70771E-20
7.00198E-03 1.63981E-20
7.14827E-03 1.57529E-20
7.29605E-03 1.51394E-20
7.44534E-03 1.45559E-20
7.59612E-03 1.40005E-20
7.97965E-03 1.27249E-20
8.37255E-03 1.15930E-20
8.77480E-03 1.05855E-20
9.18641E-03 9.68648E-21
9.60736E-03 8.88205E-21
1.00376E-02 8.16046E-21
1.04773E-02 7.51163E-21
1.09262E-02 6.92688E-21
1.13844E-02 6.39873E-21
1.18520E-02 5.92067E-21
1.23288E-02 5.48709E-21
1.28150E-02 5.09308E-21
1.33104E-02 4.73435E-21
1.38150E-02 4.40715E-21
1.43290E-02 4.10819E-21
1.48521E-02 3.83458E-21
1.53845E-02 3.58376E-21
1.59262E-02 3.35347E-21
1.64770E-02 3.14171E-21
1.70371E-02 2.94672E-21
1.76063E-02 2.76689E-21
1.81848E-02 2.60084E-21
1.87724E-02 2.44731E-21
1.93692E-02 2.30516E-21
1.99751E-02 2.17339E-21
2.05901E-02 2.05110E-21
2.12143E-02 1.93746E-21
2.18476E-02 1.83176E-21
2.24900E-02 1.73333E-21
2.31415E-02 1.64156E-21
2.38021E-02 1.55593E-21
2.44717E-02 1.47593E-21
2.51504E-02 1.40113E-21
2.58382E-02 1.33111E-21
2.65349E-02 1.26553E-21
2.72407E-02 1.20403E-21
2.79555E-02 1.14631E-21
2.86793E-02 1.09209E-21
2.94120E-02 1.04113E-21
3.01537E-02 9.93176E-22
3.09043E-02 9.48025E-22
3.16639E-02 9.05479E-22
3.24324E-02 8.65355E-22
3.32098E-02 8.27490E-22
3.39961E-02 7.91729E-22
3.47912E-02 7.57932E-22
3.55952E-02 7.25969E-22
3.64081E-02 6.95721E-22
3.72297E-02 6.67076E-22
3.80602E-02 6.39932E-22
3.88995E-02 6.14195E-22
3.97476E-02 5.89777E-22
4.06044E-02 5.66595E-22
4.14700E-02 5.44575E-22
4.23443E-02 5.23647E-22
4.32273E-02 5.03745E-22
4.41190E-02 4.84807E-22
4.50194E-02 4.66779E-22
4.59284E-02 4.49607E-22
4.68461E-02 4.33241E-22
4.87074E-02 4.02750E-22
5.06030E-02 3.74976E-22
5.25328E-02 3.49627E-22
5.44967E-02 3.26450E-22
5.64946E-02 3.05221E-22
5.85262E-02 2.85745E-22
6.05914E-02 2.67847E-22
6.26901E-02 2.51372E-22
6.48222E-02 2.36186E-22
6.69873E-02 2.22166E-22
6.91854E-02 2.09205E-22
7.14163E-02 1.97206E-22
7.36799E-02 1.86084E-22
7.59760E-02 1.75761E-22
7.83043E-02 1.66167E-22
8.06647E-02 1.57240E-22
8.30571E-02 1.48925E-22
8.54812E-02 1.41170E-22
8.79369E-02 1.33930E-22
9.04240E-02 1.27164E-22
9.29422E-02 1.20833E-22
9.54915E-02 1.14905E-22
9.80716E-02 1.09347E-22
1.00682E-01 1.04133E-22
1.03323E-01 9.92352E-23
1.05995E-01 9.46317E-23
1.08696E-01 9.03004E-23
1.11427E-01 8.62220E-23
1.14188E-01 8.23783E-23
1.16978E-01 7.87531E-23
1.19797E-01 7.53312E-23
1.22645E-01 7.20988E-23
1.25522E-01 6.90432E-23
1.28428E-01 6.61525E-23
1.31361E-01 6.34158E-23
1.34323E-01 6.08232E-23
1.37313E-01 5.83655E-23
1.40330E-01 5.60341E-23
1.43375E-01 5.38210E-23
1.46447E-01 5.17191E-23
1.49545E-01 4.97215E-23
1.52671E-01 4.78217E-23
1.55823E-01 4.60141E-23
1.59001E-01 4.42931E-23
1.62205E-01 4.26536E-23
1.65435E-01 4.10911E-23
1.68690E-01 3.96010E-23
1.71970E-01 3.81793E-23
1.75276E-01 3.68220E-23
1.78606E-01 3.55258E-23
1.81961E-01 3.42871E-23
1.85340E-01 3.31029E-23
1.88743E-01 3.19702E-23
1.92169E-01 3.08864E-23
1.95619E-01 2.98488E-23
1.99092E-01 2.88550E-23
2.02589E-01 2.79028E-23
2.06107E-01 2.69900E-23
2.09649E-01 2.61147E-23
2.13212E-01 2.52749E-23
2.16797E-01 2.44689E-23
2.20404E-01 2.36951E-23
2.24032E-01 2.29518E-23
2.27680E-01 2.22376E-23
2.31350E-01 2.15511E-23
2.35040E-01 2.08909E-23
2.38751E-01 2.02559E-23
2.42481E-01 1.96449E-23
2.46231E-01 1.90568E-23
2.50000E-01 1.84905E-23
2.53788E-01 1.79450E-23
2.57595E-01 1.74194E-23
2.61421E-01 1.69128E-23
2.65264E-01 1.64243E-23
2.69126E-01 1.59533E-23
2.73005E-01 1.54988E-23
2.76901E-01 1.50603E-23
2.80814E-01 1.46369E-23
2.84744E-01 1.42281E-23
2.88691E-01 1.38333E-23
2.92653E-01 1.34519E-23
2.96632E-01 1.30833E-23
3.00625E-01 1.27270E-23
3.04634E-01 1.23824E-23
3.08658E-01 1.20492E-23
3.12697E-01 1.17269E-23
3.16749E-01 1.14150E-23
3.20816E-01 1.11131E-23
3.24896E-01 1.08208E-23
3.28990E-01 1.05378E-23
3.33097E-01 1.02637E-23
3.37216E-01 9.99816E-24
3.41348E-01 9.74082E-24
3.45492E-01 9.49141E-24
3.49647E-01 9.24961E-24
3.53814E-01 9.01516E-24
3.57992E-01 8.78777E-24
3.62181E-01 8.56718E-24
3.66381E-01 8.35315E-24
3.70590E-01 8.14544E-24
3.74810E-01 7.94382E-24
3.79039E-01 7.74809E-24
3.83277E-01 7.55802E-24
3.87524E-01 7.37341E-24
3.91780E-01 7.19409E-24
3.96044E-01 7.01985E-24
4.00316E-01 6.85054E-24
4.04596E-01 6.68597E-24
4.08882E-01 6.52599E-24
4.13176E-01 6.37044E-24
4.17476E-01 6.21918E-24
4.21783E-01 6.07206E-24
4.26095E-01 5.92894E-24
4.30413E-01 5.78968E-24
4.34737E-01 5.65418E-24
4.39065E-01 5.52230E-24
4.43398E-01 5.39392E-24
4.47736E-01 5.26893E-24
4.52077E-01 5.14723E-24
4.56422E-01 5.02871E-24
4.60770E-01 4.91326E-24
4.65122E-01 4.80080E-24
4.69476E-01 4.69123E-24
4.73832E-01 4.58446E-24
4.78190E-01 4.48040E-24
4.82550E-01 4.37898E-24
4.86912E-01 4.28010E-24
4.91274E-01 4.18370E-24
4.95637E-01 4.08970E-24
5.00000E-01 3.99802E-24
5.04363E-01 3.90860E-24
5.08726E-01 3.82138E-24
5.13088E-01 3.73628E-24
5.17450E-01 3.65324E-24
5.21810E-01 3.57221E-24
5.26168E-01 3.49313E-24
5.30524E-01 3.41594E-24
5.34878E-01 3.34058E-24
5.39230E-01 3.26701E-24
5.43578E-01 3.19518E-24
5.47923E-01 3.12502E-24
5.52264E-01 3.05651E-24
5.56602E-01 2.98959E-24
5.60935E-01 2.92422E-24
5.65263E-01 2.86035E-24
5.69587E-01 2.79795E-24
5.73905E-01 2.73698E-24
5.78217E-01 2.67739E-24
5.82524E-01 2.61915E-24
5.86824E-01 2.56222E-24
5.91118E-01 2.50657E-24
5.95404E-01 2.45216E-24
5.99684E-01 2.39897E-24
6.03956E-01 2.34695E-24
6.08220E-01 2.29609E-24
6.12476E-01 2.24634E-24
6.16723E-01 2.19768E-24
6.20961E-01 2.15009E-24
6.25190E-01 2.10353E-24
6.29410E-01 2.05797E-24
6.33619E-01 2.01340E-24
6.37819E-01 1.96979E-24
6.42008E-01 1.92712E-24
6.46186E-01 1.88535E-24
6.50353E-01 1.84448E-24
6.54508E-01 1.80447E-24
6.58652E-01 1.76530E-24
6.62784E-01 1.72696E-24
6.66903E-01 1.68942E-24
6.71010E-01 1.65267E-24
6.75104E-01 1.61669E-24
6.79184E-01 1.58145E-24
6.83251E-01 1.54695E-24
6.87303E-01 1.51315E-24
6.91342E-01 1.48006E-24
6.95366E-01 1.44764E-24
6.99375E-01 1.41588E-24
7.03368E-01 1.38478E-24
7.07347E-01 1.35431E-24
7.11309E-01 1.32445E-24
7.15256E-01 1.29520E-24
7.19186E-01 1.26655E-24
7.23099E-01 1.23847E-24
7.26995E-01 1.21095E-24
7.30874E-01 1.18399E-24
7.34736E-01 1.15756E-24
7.38579E-01 1.13167E-24
7.42405E-01 1.10629E-24
7.46212E-01 1.08141E-24
7.50000E-01 1.05703E-24
7.53769E-01 1.03313E-24
7.57519E-01 1.00970E-24
7.61249E-01 9.86735E-25
7.64960E-01 9.64222E-25
7.68650E-01 9.42152E-25
7.72320E-01 9.20515E-25
7.75968E-01 8.99302E-25
7.79596E-01 8.78505E-25
7.83203E-01 8.58114E-25
7.86788E-01 8.38121E-25
7.90351E-01 8.18519E-25
7.93893E-01 7.99298E-25
7.97411E-01 7.80451E-25
8.00908E-01 7.61971E-25
8.04381E-01 7.43850E-25
8.07831E-01 7.26081E-25
8.11257E-01 7.08657E-25
8.14660E-01 6.91571E-25
8.18039E-01 6.74815E-25
8.21394E-01 6.58384E-25
8.24724E-01 6.42271E-25
8.28030E-01 6.26471E-25
8.31310E-01 6.10977E-25
8.34565E-01 5.95783E-25
8.37795E-01 5.80885E-25
8.40999E-01 5.66275E-25
8.44177E-01 5.51949E-25
8.47329E-01 5.37902E-25
8.50455E-01 5.24128E-25
8.53553E-01 5.10622E-25
8.56625E-01 4.97379E-25
8.59670E-01 4.84395E-25
8.62687E-01 4.71665E-25
8.65677E-01 4.59184E-25
8.68639E-01 4.46947E-25
8.71572E-01 4.34952E-25
8.74478E-01 4.23192E-25
8.77355E-01 4.11665E-25
8.80203E-01 4.00365E-25
8.83022E-01 3.89290E-25
8.85812E-01 3.78435E-25
8.88573E-01 3.67797E-25
8.91304E-01 3.57371E-25
8.94005E-01 3.47155E-25
8.96677E-01 3.37145E-25
8.99318E-01 3.27337E-25
9.01928E-01 3.17729E-25
9.04508E-01 3.08317E-25
9.07058E-01 2.99097E-25
9.09576E-01 2.90068E-25
9.12063E-01 2.81225E-25
9.14519E-01 2.72566E-25
9.16943E-01 2.64088E-25
9.19335E-01 2.55789E-25
9.21696E-01 2.47665E-25
9.24024E-01 2.39715E-25
9.26320E-01 2.31934E-25
9.28584E-01 2.24322E-25
9.30815E-01 2.16875E-25
9.33013E-01 2.09592E-25
9.35178E-01 2.02469E-25
9.37310E-01 1.95505E-25
9.39409E-01 1.88697E-25
9.41474E-01 1.82044E-25
9.43505E-01 1.75543E-25
9.45503E-01 1.69192E-25
9.47467E-01 1.62989E-25
9.49397E-01 1.56932E-25
9.51293E-01 1.51020E-25
9.53154E-01 1.45251E-25
9.54981E-01 1.39622E-25
9.56773E-01 1.34133E-25
9.58530E-01 1.28781E-25
9.60252E-01 1.23564E-25
9.61940E-01 1.18482E-25
9.63592E-01 1.13533E-25
9.65209E-01 1.08715E-25
9.66790E-01 1.04027E-25
9.68336E-01 9.94671E-26
9.69846E-01 9.50343E-26
9.71321E-01 9.07272E-26
9.72759E-01 8.65446E-26
9.74162E-01 8.24851E-26
9.75528E-01 7.85477E-26
9.76858E-01 7.47310E-26
9.78152E-01 7.10341E-26
9.79410E-01 6.74558E-26
9.80631E-01 6.39951E-26
9.81815E-01 6.06510E-26
9.82963E-01 5.74225E-26
9.84074E-01 5.43086E-26
9.85148E-01 5.13085E-26
9.86185E-01 4.84212E-26
9.87185E-01 4.56461E-26
9.88148E-01 4.29821E-26
9.89074E-01 4.04287E-26
9.89962E-01 3.79850E-26
9.90814E-01 3.56503E-26
9.91627E-01 3.34240E-26
9.92404E-01 3.13055E-26
9.93143E-01 2.92941E-26
9.93844E-01 2.73892E-26
9.94508E-01 2.55904E-26
9.95134E-01 2.38971E-26
9.95722E-01 2.23088E-26
9.96273E-01 2.08250E-26
9.96786E-01 1.94454E-26
9.97261E-01 1.81696E-26
9.97698E-01 1.69971E-26
9.98097E-01 1.59277E-26
9.98459E-01 1.49611E-26
9.98782E-01 1.40969E-26
9.99067E-01 1.33350E-26
9.99315E-01 1.26751E-26
9.99524E-01 1.21170E-26
9.99695E-01 1.16607E-26
9.99829E-01 1.13058E-26
9.99924E-01 1.10525E-26
9.99981E-01 1.09005E-26
1.00000E+00 1.08498E-26
