 #
 # Subroutine ELSEPA. Elastic scattering of electrons and positrons
 #                    by neutral atoms and positive ions
 #
 # Projectile: electron
 # Kinetic energy = 1.00000E+09 eV = 3.67493E+07 a.u.
 #
 # WARNING: High-energy factorization with free-atom DF screening.
 #          Absorption, polarization and exchange corrections are
 #          switched off.
 #          Phase shifts are calculated for the bare nucleus.
 #          Scattering amplitudes are not evaluated.
 #
 # Element: Dy,  Z =  66,  atomic weight = 1.62500E+02 g/mol
 #
 # Nuclear model: Fermi distribution
 #                Average radius = 5.83895E-13 cm
 #                Skin thickness = 5.46000E-14 cm
 #
 # Number of electrons = 66
 #
 # Total elastic cross section = 7.01150E-18 cm**2 = 2.50385E-01 a0**2
 # 1st transport cross section = 8.33143E-27 cm**2 = 2.97521E-10 a0**2
 # 2nd transport cross section = 2.49919E-26 cm**2 = 8.92476E-10 a0**2
 #
 #
 # Differential cross section:                       MU=(1-COS(THETA))/2
 #
 #  THETA        MU          DCS          DCS        Sherman      error
 #  (deg)                 (cm**2/sr)   (a0**2/sr)    function
 #----------------------------------------------------------------------
0.00000E+00 7.84599E-08
7.61557E-13 5.23508E-08
1.18994E-12 4.36692E-08
1.71346E-12 3.61946E-08
2.33225E-12 3.00929E-08
3.04617E-12 2.52347E-08
3.85530E-12 2.14001E-08
4.75964E-12 1.83621E-08
5.75917E-12 1.59267E-08
6.85391E-12 1.39421E-08
8.04379E-12 1.22956E-08
9.32893E-12 1.09080E-08
1.07092E-11 9.72259E-09
1.21847E-11 8.69837E-09
1.37554E-11 7.80539E-09
1.54213E-11 7.01947E-09
1.71823E-11 6.32633E-09
1.90386E-11 5.71269E-09
2.09900E-11 5.16795E-09
2.30367E-11 4.68045E-09
2.51785E-11 4.21252E-09
2.74156E-11 3.81403E-09
2.97478E-11 3.47262E-09
3.21752E-11 3.17845E-09
3.46979E-11 2.92359E-09
3.73157E-11 2.67646E-09
4.00286E-11 2.44443E-09
4.28368E-11 2.24205E-09
4.57402E-11 2.06474E-09
4.87388E-11 1.90873E-09
5.18325E-11 1.76911E-09
5.50215E-11 1.62943E-09
5.83057E-11 1.50574E-09
6.16850E-11 1.39581E-09
6.51595E-11 1.29779E-09
6.87293E-11 1.21010E-09
7.23943E-11 1.12601E-09
7.61544E-11 1.04727E-09
1.18991E-10 5.49604E-10
1.71347E-10 3.11370E-10
2.33223E-10 1.87047E-10
3.04617E-10 1.18529E-10
3.85531E-10 7.87833E-11
4.75965E-10 5.45952E-11
5.75917E-10 3.92042E-11
6.85389E-10 2.89330E-11
8.04380E-10 2.18762E-11
9.32891E-10 1.68712E-11
1.07092E-09 1.32208E-11
1.21847E-09 1.04999E-11
1.37554E-09 8.43876E-12
1.54213E-09 6.85534E-12
1.71823E-09 5.62473E-12
1.90386E-09 4.65646E-12
2.09900E-09 3.88628E-12
2.30367E-09 3.26781E-12
2.51785E-09 2.76550E-12
2.74156E-09 2.35909E-12
2.97478E-09 2.02267E-12
3.21752E-09 1.74532E-12
3.46978E-09 1.51339E-12
3.73156E-09 1.31900E-12
4.00286E-09 1.15493E-12
4.28368E-09 1.01555E-12
4.57402E-09 8.96831E-13
4.87388E-09 7.94738E-13
5.18326E-09 7.07075E-13
5.50215E-09 6.30928E-13
5.83057E-09 5.65013E-13
6.16850E-09 5.07314E-13
6.51596E-09 4.56931E-13
6.87293E-09 4.12587E-13
7.23942E-09 3.73538E-13
7.61544E-09 3.38998E-13
1.18991E-08 1.43556E-13
1.71347E-08 7.07355E-14
2.33223E-08 3.87361E-14
3.04617E-08 2.29373E-14
3.85531E-08 1.44286E-14
4.75965E-08 9.52306E-15
5.75917E-08 6.53626E-15
6.85389E-08 4.63411E-15
8.04380E-08 3.37646E-15
9.32891E-08 2.51807E-15
1.07092E-07 1.91601E-15
1.21847E-07 1.48364E-15
1.37554E-07 1.16664E-15
1.54213E-07 9.29969E-16
1.71823E-07 7.50376E-16
1.90386E-07 6.12112E-16
2.09900E-07 5.04270E-16
2.30367E-07 4.19159E-16
2.51785E-07 3.51266E-16
2.74156E-07 2.96574E-16
2.97478E-07 2.52120E-16
3.21752E-07 2.15688E-16
3.46978E-07 1.85604E-16
3.73156E-07 1.60585E-16
4.00286E-07 1.39641E-16
4.28368E-07 1.22001E-16
4.57402E-07 1.07060E-16
4.87388E-07 9.43366E-17
5.18325E-07 8.34478E-17
5.50215E-07 7.40851E-17
5.83057E-07 6.59990E-17
6.16850E-07 5.89862E-17
6.51596E-07 5.28802E-17
6.87293E-07 4.75440E-17
7.23942E-07 4.28641E-17
7.61543E-07 3.87458E-17
1.18991E-06 1.59002E-17
1.71347E-06 7.67642E-18
2.33223E-06 4.14660E-18
3.04617E-06 2.43196E-18
3.85531E-06 1.51890E-18
4.75964E-06 9.96903E-19
5.75916E-06 6.81105E-19
6.85388E-06 4.81038E-19
8.04378E-06 3.49334E-19
9.32888E-06 2.59779E-19
1.07092E-05 1.97174E-19
1.21846E-05 1.52346E-19
1.37553E-05 1.19566E-19
1.54212E-05 9.51486E-20
1.71822E-05 7.66598E-20
1.90385E-05 6.24230E-20
2.09899E-05 5.13939E-20
2.30365E-05 4.26918E-20
2.51783E-05 3.57481E-20
2.74153E-05 3.01533E-20
2.97475E-05 2.56085E-20
3.21749E-05 2.18885E-20
3.46974E-05 1.88220E-20
3.73152E-05 1.62763E-20
4.00281E-05 1.41486E-20
4.28362E-05 1.23583E-20
4.57395E-05 1.08425E-20
4.87380E-05 9.55173E-21
5.18317E-05 8.44698E-21
5.50205E-05 7.49709E-21
5.83045E-05 6.67694E-21
6.16838E-05 5.96604E-21
6.51582E-05 5.34752E-21
6.87277E-05 4.80734E-21
7.23925E-05 4.33386E-21
7.61524E-05 3.93242E-21
9.21439E-05 2.67305E-21
1.09658E-04 1.87522E-21
1.28695E-04 1.35067E-21
1.49255E-04 9.94497E-22
1.71338E-04 7.46211E-22
1.94942E-04 5.69023E-22
2.20070E-04 4.40035E-22
2.46720E-04 3.44477E-22
2.74892E-04 2.72574E-22
3.04586E-04 2.17736E-22
3.35803E-04 1.75394E-22
3.68542E-04 1.42345E-22
4.02802E-04 1.16296E-22
4.38585E-04 9.55828E-23
4.75889E-04 7.89805E-23
5.14715E-04 6.55765E-23
5.55063E-04 5.46839E-23
5.96931E-04 4.57789E-23
6.40321E-04 3.84593E-23
6.85233E-04 3.24127E-23
7.31665E-04 2.73952E-23
7.79618E-04 2.32142E-23
8.29092E-04 1.97170E-23
8.80086E-04 1.67817E-23
9.32601E-04 1.43101E-23
9.86636E-04 1.22229E-23
1.04219E-03 1.04557E-23
1.09927E-03 8.95575E-24
1.15786E-03 7.67991E-24
1.21797E-03 6.59250E-24
1.27961E-03 5.66402E-24
1.34276E-03 4.86995E-24
1.40743E-03 4.18985E-24
1.47362E-03 3.60659E-24
1.54133E-03 3.10582E-24
1.61056E-03 2.67542E-24
1.68131E-03 2.30519E-24
1.75357E-03 1.98648E-24
1.82735E-03 1.71194E-24
1.90265E-03 1.47533E-24
1.97947E-03 1.27133E-24
2.05780E-03 1.09539E-24
2.13765E-03 9.43619E-25
2.21902E-03 8.12691E-25
2.30190E-03 6.99741E-25
2.38630E-03 6.02309E-25
2.47222E-03 5.18278E-25
2.55965E-03 4.45823E-25
2.64859E-03 3.83371E-25
2.73905E-03 3.29564E-25
2.83103E-03 2.83228E-25
2.92452E-03 2.43348E-25
3.01952E-03 2.09045E-25
3.11604E-03 1.79560E-25
3.21407E-03 1.54234E-25
3.31362E-03 1.32498E-25
3.41468E-03 1.13858E-25
3.51725E-03 9.78867E-26
3.62133E-03 8.42134E-26
3.72692E-03 7.25176E-26
3.83403E-03 6.25217E-26
3.94265E-03 5.39856E-26
4.05278E-03 4.67014E-26
4.16442E-03 4.04898E-26
4.27757E-03 3.51955E-26
4.39223E-03 3.06851E-26
4.50840E-03 2.68430E-26
4.62608E-03 2.35702E-26
4.74527E-03 2.07813E-26
4.86597E-03 1.84030E-26
4.98817E-03 1.63726E-26
5.11188E-03 1.46363E-26
5.23711E-03 1.31483E-26
5.36383E-03 1.18693E-26
5.49207E-03 1.07663E-26
5.62181E-03 9.81097E-27
5.75306E-03 8.97945E-27
5.88581E-03 8.25162E-27
6.02007E-03 7.61057E-27
6.15583E-03 7.04210E-27
6.29310E-03 6.53438E-27
6.43187E-03 6.07753E-27
6.57214E-03 5.66342E-27
6.71392E-03 5.28530E-27
6.85720E-03 4.93766E-27
7.00198E-03 4.61598E-27
7.14827E-03 4.31660E-27
7.29605E-03 4.03657E-27
7.44534E-03 3.77351E-27
7.59612E-03 3.52552E-27
7.97965E-03 2.96237E-27
8.37255E-03 2.46877E-27
8.77480E-03 2.03577E-27
9.18641E-03 1.65811E-27
9.60736E-03 1.33207E-27
1.00376E-02 1.05434E-27
1.04773E-02 8.21414E-28
1.09262E-02 6.29400E-28
1.13844E-02 4.74045E-28
1.18520E-02 3.50860E-28
1.23288E-02 2.55296E-28
1.28150E-02 1.82910E-28
1.33104E-02 1.29513E-28
1.38150E-02 9.12843E-29
1.43290E-02 6.48390E-29
1.48521E-02 4.72681E-29
1.53845E-02 3.61426E-29
1.59262E-02 2.94957E-29
1.64770E-02 2.57852E-29
1.70371E-02 2.38463E-29
1.76063E-02 2.28368E-29
1.81848E-02 2.21812E-29
1.87724E-02 2.15169E-29
1.93692E-02 2.06442E-29
1.99751E-02 1.94821E-29
2.05901E-02 1.80312E-29
2.12143E-02 1.63427E-29
2.18476E-02 1.44952E-29
2.24900E-02 1.25759E-29
2.31415E-02 1.06689E-29
2.38021E-02 8.84684E-30
2.44717E-02 7.16665E-30
2.51504E-02 5.66788E-30
2.58382E-02 4.37324E-30
2.65349E-02 3.29032E-30
2.72407E-02 2.41425E-30
2.79555E-02 1.73062E-30
2.86793E-02 1.21838E-30
2.94120E-02 8.52672E-31
3.01537E-02 6.07099E-31
3.09043E-02 4.55682E-31
3.16639E-02 3.74273E-31
3.24324E-02 3.41529E-31
3.32098E-02 3.39469E-31
3.39961E-02 3.53682E-31
3.47912E-02 3.73267E-31
3.55952E-02 3.90551E-31
3.64081E-02 4.00691E-31
3.72297E-02 4.01186E-31
3.80602E-02 3.91370E-31
3.88995E-02 3.71923E-31
3.97476E-02 3.44410E-31
4.06044E-02 3.10903E-31
4.14700E-02 2.73655E-31
4.23443E-02 2.34856E-31
4.32273E-02 1.96465E-31
4.41190E-02 1.60097E-31
4.50194E-02 1.26972E-31
4.59284E-02 9.79012E-32
4.68461E-02 7.33191E-32
4.87074E-02 3.77450E-32
5.06030E-02 1.81811E-32
5.25328E-02 1.03069E-32
5.44967E-02 9.34373E-33
5.64946E-02 1.12544E-32
5.85262E-02 1.33018E-32
6.05914E-02 1.40909E-32
6.26901E-02 1.32936E-32
6.48222E-02 1.12471E-32
6.69873E-02 8.56803E-33
6.91854E-02 5.86628E-33
7.14163E-02 3.58116E-33
7.36799E-02 1.92913E-33
7.59760E-02 9.28680E-34
7.83043E-02 4.64866E-34
8.06647E-02 3.62070E-34
8.30571E-02 4.44052E-34
8.54812E-02 5.71919E-34
8.79369E-02 6.59490E-34
9.04240E-02 6.71065E-34
9.29422E-02 6.08769E-34
9.54915E-02 4.96306E-34
9.80716E-02 3.64190E-34
1.00682E-01 2.39221E-34
1.03323E-01 1.38983E-34
1.05995E-01 7.06832E-35
1.08696E-01 3.29362E-35
1.11427E-01 1.89455E-35
1.14188E-01 1.98183E-35
1.16978E-01 2.71865E-35
1.19797E-01 3.47844E-35
1.22645E-01 3.89995E-35
1.25522E-01 3.86443E-35
1.28428E-01 3.42798E-35
1.31361E-01 2.74034E-35
1.34323E-01 1.97301E-35
1.37313E-01 1.26920E-35
1.40330E-01 7.18799E-36
1.43375E-01 3.54817E-36
1.46447E-01 1.64238E-36
1.49545E-01 1.05678E-36
1.52671E-01 1.27382E-36
1.55823E-01 1.81411E-36
1.59001E-01 2.32173E-36
1.62205E-01 2.59400E-36
1.65435E-01 2.56837E-36
1.68690E-01 2.28419E-36
1.71970E-01 1.83629E-36
1.75276E-01 1.33309E-36
1.78606E-01 8.66577E-37
1.81961E-01 4.96472E-37
1.85340E-01 2.47030E-37
1.88743E-01 1.00000E-45
1.92169E-01 1.00000E-45
1.95619E-01 1.00000E-45
1.99092E-01 1.00000E-45
2.02589E-01 1.00000E-45
2.06107E-01 1.00000E-45
2.09649E-01 1.00000E-45
2.13212E-01 1.00000E-45
2.16797E-01 1.00000E-45
2.20404E-01 1.00000E-45
2.24032E-01 1.00000E-45
2.27680E-01 1.00000E-45
2.31350E-01 1.00000E-45
2.35040E-01 1.00000E-45
2.38751E-01 1.00000E-45
2.42481E-01 1.00000E-45
2.46231E-01 1.00000E-45
2.50000E-01 1.00000E-45
2.53788E-01 1.00000E-45
2.57595E-01 1.00000E-45
2.61421E-01 1.00000E-45
2.65264E-01 1.00000E-45
2.69126E-01 1.00000E-45
2.73005E-01 1.00000E-45
2.76901E-01 1.00000E-45
2.80814E-01 1.00000E-45
2.84744E-01 1.00000E-45
2.88691E-01 1.00000E-45
2.92653E-01 1.00000E-45
2.96632E-01 1.00000E-45
3.00625E-01 1.00000E-45
3.04634E-01 1.00000E-45
3.08658E-01 1.00000E-45
3.12697E-01 1.00000E-45
3.16749E-01 1.00000E-45
3.20816E-01 1.00000E-45
3.24896E-01 1.00000E-45
3.28990E-01 1.00000E-45
3.33097E-01 1.00000E-45
3.37216E-01 1.00000E-45
3.41348E-01 1.00000E-45
3.45492E-01 1.00000E-45
3.49647E-01 1.00000E-45
3.53814E-01 1.00000E-45
3.57992E-01 1.00000E-45
3.62181E-01 1.00000E-45
3.66381E-01 1.00000E-45
3.70590E-01 1.00000E-45
3.74810E-01 1.00000E-45
3.79039E-01 1.00000E-45
3.83277E-01 1.00000E-45
3.87524E-01 1.00000E-45
3.91780E-01 1.00000E-45
3.96044E-01 1.00000E-45
4.00316E-01 1.00000E-45
4.04596E-01 1.00000E-45
4.08882E-01 1.00000E-45
4.13176E-01 1.00000E-45
4.17476E-01 1.00000E-45
4.21783E-01 1.00000E-45
4.26095E-01 1.00000E-45
4.30413E-01 1.00000E-45
4.34737E-01 1.00000E-45
4.39065E-01 1.00000E-45
4.43398E-01 1.00000E-45
4.47736E-01 1.00000E-45
4.52077E-01 1.00000E-45
4.56422E-01 1.00000E-45
4.60770E-01 1.00000E-45
4.65122E-01 1.00000E-45
4.69476E-01 1.00000E-45
4.73832E-01 1.00000E-45
4.78190E-01 1.00000E-45
4.82550E-01 1.00000E-45
4.86912E-01 1.00000E-45
4.91274E-01 1.00000E-45
4.95637E-01 1.00000E-45
5.00000E-01 1.00000E-45
5.04363E-01 1.00000E-45
5.08726E-01 1.00000E-45
5.13088E-01 1.00000E-45
5.17450E-01 1.00000E-45
5.21810E-01 1.00000E-45
5.26168E-01 1.00000E-45
5.30524E-01 1.00000E-45
5.34878E-01 1.00000E-45
5.39230E-01 1.00000E-45
5.43578E-01 1.00000E-45
5.47923E-01 1.00000E-45
5.52264E-01 1.00000E-45
5.56602E-01 1.00000E-45
5.60935E-01 1.00000E-45
5.65263E-01 1.00000E-45
5.69587E-01 1.00000E-45
5.73905E-01 1.00000E-45
5.78217E-01 1.00000E-45
5.82524E-01 1.00000E-45
5.86824E-01 1.00000E-45
5.91118E-01 1.00000E-45
5.95404E-01 1.00000E-45
5.99684E-01 1.00000E-45
6.03956E-01 1.00000E-45
6.08220E-01 1.00000E-45
6.12476E-01 1.00000E-45
6.16723E-01 1.00000E-45
6.20961E-01 1.00000E-45
6.25190E-01 1.00000E-45
6.29410E-01 1.00000E-45
6.33619E-01 1.00000E-45
6.37819E-01 1.00000E-45
6.42008E-01 1.00000E-45
6.46186E-01 1.00000E-45
6.50353E-01 1.00000E-45
6.54508E-01 1.00000E-45
6.58652E-01 1.00000E-45
6.62784E-01 1.00000E-45
6.66903E-01 1.00000E-45
6.71010E-01 1.00000E-45
6.75104E-01 1.00000E-45
6.79184E-01 1.00000E-45
6.83251E-01 1.00000E-45
6.87303E-01 1.00000E-45
6.91342E-01 1.00000E-45
6.95366E-01 1.00000E-45
6.99375E-01 1.00000E-45
7.03368E-01 1.00000E-45
7.07347E-01 1.00000E-45
7.11309E-01 1.00000E-45
7.15256E-01 1.00000E-45
7.19186E-01 1.00000E-45
7.23099E-01 1.00000E-45
7.26995E-01 1.00000E-45
7.30874E-01 1.00000E-45
7.34736E-01 1.00000E-45
7.38579E-01 1.00000E-45
7.42405E-01 1.00000E-45
7.46212E-01 1.00000E-45
7.50000E-01 1.00000E-45
7.53769E-01 1.00000E-45
7.57519E-01 1.00000E-45
7.61249E-01 1.00000E-45
7.64960E-01 1.00000E-45
7.68650E-01 1.00000E-45
7.72320E-01 1.00000E-45
7.75968E-01 1.00000E-45
7.79596E-01 1.00000E-45
7.83203E-01 1.00000E-45
7.86788E-01 1.00000E-45
7.90351E-01 1.00000E-45
7.93893E-01 1.00000E-45
7.97411E-01 1.00000E-45
8.00908E-01 1.00000E-45
8.04381E-01 1.00000E-45
8.07831E-01 1.00000E-45
8.11257E-01 1.00000E-45
8.14660E-01 1.00000E-45
8.18039E-01 1.00000E-45
8.21394E-01 1.00000E-45
8.24724E-01 1.00000E-45
8.28030E-01 1.00000E-45
8.31310E-01 1.00000E-45
8.34565E-01 1.00000E-45
8.37795E-01 1.00000E-45
8.40999E-01 1.00000E-45
8.44177E-01 1.00000E-45
8.47329E-01 1.00000E-45
8.50455E-01 1.00000E-45
8.53553E-01 1.00000E-45
8.56625E-01 1.00000E-45
8.59670E-01 1.00000E-45
8.62687E-01 1.00000E-45
8.65677E-01 1.00000E-45
8.68639E-01 1.00000E-45
8.71572E-01 1.00000E-45
8.74478E-01 1.00000E-45
8.77355E-01 1.00000E-45
8.80203E-01 1.00000E-45
8.83022E-01 1.00000E-45
8.85812E-01 1.00000E-45
8.88573E-01 1.00000E-45
8.91304E-01 1.00000E-45
8.94005E-01 1.00000E-45
8.96677E-01 1.00000E-45
8.99318E-01 1.00000E-45
9.01928E-01 1.00000E-45
9.04508E-01 1.00000E-45
9.07058E-01 1.00000E-45
9.09576E-01 1.00000E-45
9.12063E-01 1.00000E-45
9.14519E-01 1.00000E-45
9.16943E-01 1.00000E-45
9.19335E-01 1.00000E-45
9.21696E-01 1.00000E-45
9.24024E-01 1.00000E-45
9.26320E-01 1.00000E-45
9.28584E-01 1.00000E-45
9.30815E-01 1.00000E-45
9.33013E-01 1.00000E-45
9.35178E-01 1.00000E-45
9.37310E-01 1.00000E-45
9.39409E-01 1.00000E-45
9.41474E-01 1.00000E-45
9.43505E-01 1.00000E-45
9.45503E-01 1.00000E-45
9.47467E-01 1.00000E-45
9.49397E-01 1.00000E-45
9.51293E-01 1.00000E-45
9.53154E-01 1.00000E-45
9.54981E-01 1.00000E-45
9.56773E-01 1.00000E-45
9.58530E-01 1.00000E-45
9.60252E-01 1.00000E-45
9.61940E-01 1.00000E-45
9.63592E-01 1.00000E-45
9.65209E-01 1.00000E-45
9.66790E-01 1.00000E-45
9.68336E-01 1.00000E-45
9.69846E-01 1.00000E-45
9.71321E-01 1.00000E-45
9.72759E-01 1.00000E-45
9.74162E-01 1.00000E-45
9.75528E-01 1.00000E-45
9.76858E-01 1.00000E-45
9.78152E-01 1.00000E-45
9.79410E-01 1.00000E-45
9.80631E-01 1.00000E-45
9.81815E-01 1.00000E-45
9.82963E-01 1.00000E-45
9.84074E-01 1.00000E-45
9.85148E-01 1.00000E-45
9.86185E-01 1.00000E-45
9.87185E-01 1.00000E-45
9.88148E-01 1.00000E-45
9.89074E-01 1.00000E-45
9.89962E-01 1.00000E-45
9.90814E-01 1.00000E-45
9.91627E-01 1.00000E-45
9.92404E-01 1.00000E-45
9.93143E-01 1.00000E-45
9.93844E-01 1.00000E-45
9.94508E-01 1.00000E-45
9.95134E-01 1.00000E-45
9.95722E-01 1.00000E-45
9.96273E-01 1.00000E-45
9.96786E-01 1.00000E-45
9.97261E-01 1.00000E-45
9.97698E-01 1.00000E-45
9.98097E-01 1.00000E-45
9.98459E-01 1.00000E-45
9.98782E-01 1.00000E-45
9.99067E-01 1.00000E-45
9.99315E-01 1.00000E-45
9.99524E-01 1.00000E-45
9.99695E-01 1.00000E-45
9.99829E-01 1.00000E-45
9.99924E-01 1.00000E-45
9.99981E-01 1.00000E-45
1.00000E+00 1.00000E-45
