 #
 # Subroutine ELSEPA. Elastic scattering of electrons and positrons
 #                    by neutral atoms and positive ions
 #
 # Projectile: electron
 # Kinetic energy = 5.00000E+08 eV = 1.83747E+07 a.u.
 #
 # WARNING: High-energy factorization with free-atom DF screening.
 #          Absorption, polarization and exchange corrections are
 #          switched off.
 #          Phase shifts are calculated for the bare nucleus.
 #          Scattering amplitudes are not evaluated.
 #
 # Element: Bi,  Z =  83,  atomic weight = 2.08980E+02 g/mol
 #
 # Nuclear model: Fermi distribution
 #                Average radius = 6.34969E-13 cm
 #                Skin thickness = 5.46000E-14 cm
 #
 # Number of electrons = 83
 #
 # Total elastic cross section = 8.88079E-18 cm**2 = 3.17139E-01 a0**2
 # 1st transport cross section = 5.15686E-26 cm**2 = 1.84155E-09 a0**2
 # 2nd transport cross section = 1.54646E-25 cm**2 = 5.52251E-09 a0**2
 #
 #
 # Differential cross section:                       MU=(1-COS(THETA))/2
 #
 #  THETA        MU          DCS          DCS        Sherman      error
 #  (deg)                 (cm**2/sr)   (a0**2/sr)    function
 #----------------------------------------------------------------------
0.00000E+00 1.60833E-08
7.61557E-13 1.52055E-08
1.18994E-12 1.47456E-08
1.71346E-12 1.42162E-08
2.33225E-12 1.36315E-08
3.04617E-12 1.30069E-08
3.85530E-12 1.23568E-08
4.75964E-12 1.16946E-08
5.75917E-12 1.10318E-08
6.85391E-12 1.03767E-08
8.04379E-12 9.73786E-09
9.32893E-12 9.12211E-09
1.07092E-11 8.53387E-09
1.21847E-11 7.97597E-09
1.37554E-11 7.45005E-09
1.54213E-11 6.95670E-09
1.71823E-11 6.49576E-09
1.90386E-11 6.06645E-09
2.09900E-11 5.66759E-09
2.30367E-11 5.29771E-09
2.51785E-11 4.95494E-09
2.74156E-11 4.63720E-09
2.97478E-11 4.34343E-09
3.21752E-11 4.07185E-09
3.46979E-11 3.82074E-09
3.73157E-11 3.58850E-09
4.00286E-11 3.37357E-09
4.28368E-11 3.17454E-09
4.57402E-11 2.99007E-09
4.87388E-11 2.81895E-09
5.18325E-11 2.66005E-09
5.50215E-11 2.51236E-09
5.83057E-11 2.37467E-09
6.16850E-11 2.24640E-09
6.51595E-11 2.12680E-09
6.87293E-11 2.01516E-09
7.23943E-11 1.91085E-09
7.61544E-11 1.81327E-09
1.18991E-10 1.09784E-09
1.71347E-10 7.09697E-10
2.33223E-10 4.77281E-10
3.04617E-10 3.32054E-10
3.85531E-10 2.38181E-10
4.75965E-10 1.75594E-10
5.75917E-10 1.32597E-10
6.85389E-10 1.02112E-10
8.04380E-10 7.99725E-11
9.32891E-10 6.35456E-11
1.07092E-09 5.11111E-11
1.21847E-09 4.15415E-11
1.37554E-09 3.40754E-11
1.54213E-09 2.81840E-11
1.71823E-09 2.34902E-11
1.90386E-09 1.97193E-11
2.09900E-09 1.66684E-11
2.30367E-09 1.41868E-11
2.51785E-09 1.21347E-11
2.74156E-09 1.04421E-11
2.97478E-09 9.03931E-12
3.21752E-09 7.86872E-12
3.46978E-09 6.88505E-12
3.73156E-09 6.05277E-12
4.00286E-09 5.34402E-12
4.28368E-09 4.73694E-12
4.57402E-09 4.21427E-12
4.87388E-09 3.76224E-12
5.18326E-09 3.36972E-12
5.50215E-09 3.02756E-12
5.83057E-09 2.72806E-12
6.16850E-09 2.46506E-12
6.51596E-09 2.23330E-12
6.87293E-09 2.02833E-12
7.23942E-09 1.84643E-12
7.61544E-09 1.68451E-12
1.18991E-08 7.43483E-13
1.71347E-08 3.77918E-13
2.33223E-08 2.11994E-13
3.04617E-08 1.27816E-13
3.85531E-08 8.15339E-14
4.75965E-08 5.44228E-14
5.75917E-08 3.77039E-14
6.85389E-08 2.69444E-14
8.04380E-08 1.97686E-14
9.32891E-08 1.48329E-14
1.07092E-07 1.13462E-14
1.21847E-07 8.82629E-15
1.37554E-07 6.96846E-15
1.54213E-07 5.57429E-15
1.71823E-07 4.51146E-15
1.90386E-07 3.69001E-15
2.09900E-07 3.04708E-15
2.30367E-07 2.53807E-15
2.51785E-07 2.13091E-15
2.74156E-07 1.80215E-15
2.97478E-07 1.53436E-15
3.21752E-07 1.31447E-15
3.46978E-07 1.13258E-15
3.73156E-07 9.81086E-16
4.00286E-07 8.54084E-16
4.28368E-07 7.46980E-16
4.57402E-07 6.56152E-16
4.87388E-07 5.78721E-16
5.18325E-07 5.12382E-16
5.50215E-07 4.55285E-16
5.83057E-07 4.05927E-16
6.16850E-07 3.63081E-16
6.51596E-07 3.25744E-16
6.87293E-07 2.93088E-16
7.23942E-07 2.64424E-16
7.61543E-07 2.39182E-16
1.18991E-06 9.87084E-17
1.71347E-06 4.78482E-17
2.33223E-06 2.59221E-17
3.04617E-06 1.52360E-17
3.85531E-06 9.53116E-18
4.75964E-06 6.26332E-18
5.75916E-06 4.28333E-18
6.85388E-06 3.02744E-18
8.04378E-06 2.19989E-18
9.32888E-06 1.63673E-18
1.07092E-05 1.24279E-18
1.21846E-05 9.60558E-19
1.37553E-05 7.54086E-19
1.54212E-05 6.00231E-19
1.71822E-05 4.83692E-19
1.90385E-05 3.93871E-19
2.09899E-05 3.24395E-19
2.30365E-05 2.69535E-19
2.51783E-05 2.25725E-19
2.74153E-05 1.90411E-19
2.97475E-05 1.61716E-19
3.21749E-05 1.38228E-19
3.46974E-05 1.18868E-19
3.73152E-05 1.02798E-19
4.00281E-05 8.93666E-20
4.28362E-05 7.80648E-20
4.57395E-05 6.84946E-20
4.87380E-05 6.03440E-20
5.18317E-05 5.33670E-20
5.50205E-05 4.73676E-20
5.83045E-05 4.21873E-20
6.16838E-05 3.76971E-20
6.51582E-05 3.37900E-20
6.87277E-05 3.03777E-20
7.23925E-05 2.73865E-20
7.61524E-05 2.51663E-20
9.21439E-05 1.72478E-20
1.09658E-04 1.22182E-20
1.28695E-04 8.89661E-21
1.49255E-04 6.63146E-21
1.71338E-04 5.04367E-21
1.94942E-04 3.90355E-21
2.20070E-04 3.06761E-21
2.46720E-04 2.44330E-21
2.74892E-04 1.96940E-21
3.04586E-04 1.60437E-21
3.35803E-04 1.31953E-21
3.68542E-04 1.09461E-21
4.02802E-04 9.15117E-22
4.38585E-04 7.70479E-22
4.75889E-04 6.52884E-22
5.14715E-04 5.56506E-22
5.55063E-04 4.76919E-22
5.96931E-04 4.10748E-22
6.40321E-04 3.55381E-22
6.85233E-04 3.08778E-22
7.31665E-04 2.69341E-22
7.79618E-04 2.35794E-22
8.29092E-04 2.07125E-22
8.80086E-04 1.82514E-22
9.32601E-04 1.61300E-22
9.86636E-04 1.42943E-22
1.04219E-03 1.27000E-22
1.09927E-03 1.13106E-22
1.15786E-03 1.00959E-22
1.21797E-03 9.03073E-23
1.27961E-03 8.09397E-23
1.34276E-03 7.26791E-23
1.40743E-03 6.53764E-23
1.47362E-03 5.89047E-23
1.54133E-03 5.31565E-23
1.61056E-03 4.80397E-23
1.68131E-03 4.34758E-23
1.75357E-03 3.93970E-23
1.82735E-03 3.57451E-23
1.90265E-03 3.24696E-23
1.97947E-03 2.95269E-23
2.05780E-03 2.68789E-23
2.13765E-03 2.44926E-23
2.21902E-03 2.23390E-23
2.30190E-03 2.03928E-23
2.38630E-03 1.86318E-23
2.47222E-03 1.70362E-23
2.55965E-03 1.55890E-23
2.64859E-03 1.42748E-23
2.73905E-03 1.30802E-23
2.83103E-03 1.19931E-23
2.92452E-03 1.10029E-23
3.01952E-03 1.01002E-23
3.11604E-03 9.27645E-24
3.21407E-03 8.52420E-24
3.31362E-03 7.83666E-24
3.41468E-03 7.20779E-24
3.51725E-03 6.63218E-24
3.62133E-03 6.10495E-24
3.72692E-03 5.62172E-24
3.83403E-03 5.17855E-24
3.94265E-03 4.77187E-24
4.05278E-03 4.39848E-24
4.16442E-03 4.05547E-24
4.27757E-03 3.74021E-24
4.39223E-03 3.45031E-24
4.50840E-03 3.18362E-24
4.62608E-03 2.93818E-24
4.74527E-03 2.71220E-24
4.86597E-03 2.50406E-24
4.98817E-03 2.31229E-24
5.11188E-03 2.13554E-24
5.23711E-03 1.97258E-24
5.36383E-03 1.82229E-24
5.49207E-03 1.68365E-24
5.62181E-03 1.55573E-24
5.75306E-03 1.43767E-24
5.88581E-03 1.32868E-24
6.02007E-03 1.22806E-24
6.15583E-03 1.13513E-24
6.29310E-03 1.04930E-24
6.43187E-03 9.70013E-25
6.57214E-03 8.96761E-25
6.71392E-03 8.29076E-25
6.85720E-03 7.66529E-25
7.00198E-03 7.08724E-25
7.14827E-03 6.55298E-25
7.29605E-03 6.05916E-25
7.44534E-03 5.60270E-25
7.59612E-03 5.18074E-25
7.97965E-03 4.26014E-25
8.37255E-03 3.50371E-25
8.77480E-03 2.88224E-25
9.18641E-03 2.37176E-25
9.60736E-03 1.95259E-25
1.00376E-02 1.60854E-25
1.04773E-02 1.32631E-25
1.09262E-02 1.09489E-25
1.13844E-02 9.05255E-26
1.18520E-02 7.49924E-26
1.23288E-02 6.22747E-26
1.28150E-02 5.18648E-26
1.33104E-02 4.33443E-26
1.38150E-02 3.63686E-26
1.43290E-02 3.06544E-26
1.48521E-02 2.59685E-26
1.53845E-02 2.21197E-26
1.59262E-02 1.89514E-26
1.64770E-02 1.63354E-26
1.70371E-02 1.41671E-26
1.76063E-02 1.23613E-26
1.81848E-02 1.08490E-26
1.87724E-02 9.57424E-27
1.93692E-02 8.49173E-27
1.99751E-02 7.56515E-27
2.05901E-02 6.76536E-27
2.12143E-02 6.06905E-27
2.18476E-02 5.45766E-27
2.24900E-02 4.91644E-27
2.31415E-02 4.43375E-27
2.38021E-02 4.00035E-27
2.44717E-02 3.60899E-27
2.51504E-02 3.25393E-27
2.58382E-02 2.93064E-27
2.65349E-02 2.63553E-27
2.72407E-02 2.36571E-27
2.79555E-02 2.11886E-27
2.86793E-02 1.89305E-27
2.94120E-02 1.68667E-27
3.01537E-02 1.49834E-27
3.09043E-02 1.32684E-27
3.16639E-02 1.17106E-27
3.24324E-02 1.02997E-27
3.32098E-02 9.02630E-28
3.39961E-02 7.88112E-28
3.47912E-02 6.85537E-28
3.55952E-02 5.94048E-28
3.64081E-02 5.12817E-28
3.72297E-02 4.41035E-28
3.80602E-02 3.77922E-28
3.88995E-02 3.22721E-28
3.97476E-02 2.74707E-28
4.06044E-02 2.33186E-28
4.14700E-02 1.97496E-28
4.23443E-02 1.67013E-28
4.32273E-02 1.41149E-28
4.41190E-02 1.19358E-28
4.50194E-02 1.01132E-28
4.59284E-02 8.60024E-29
4.68461E-02 7.35423E-29
4.87074E-02 5.51164E-29
5.06030E-02 4.32009E-29
5.25328E-02 3.57067E-29
5.44967E-02 3.10450E-29
5.64946E-02 2.80563E-29
5.85262E-02 2.59359E-29
6.05914E-02 2.41618E-29
6.26901E-02 2.24282E-29
6.48222E-02 2.05867E-29
6.69873E-02 1.85969E-29
6.91854E-02 1.64856E-29
7.14163E-02 1.43163E-29
7.36799E-02 1.21660E-29
7.59760E-02 1.01093E-29
7.83043E-02 8.20914E-30
8.06647E-02 6.51160E-30
8.30571E-02 5.04427E-30
8.54812E-02 3.81734E-30
8.79369E-02 2.82603E-30
9.04240E-02 2.05394E-30
9.29422E-02 1.47654E-30
9.54915E-02 1.06457E-30
9.80716E-02 7.87032E-31
1.00682E-01 6.13541E-31
1.03323E-01 5.16135E-31
1.05995E-01 4.70442E-31
1.08696E-01 4.56309E-31
1.11427E-01 4.57985E-31
1.14188E-01 4.63949E-31
1.16978E-01 4.66489E-31
1.19797E-01 4.61126E-31
1.22645E-01 4.45967E-31
1.25522E-01 4.21051E-31
1.28428E-01 3.87732E-31
1.31361E-01 3.48148E-31
1.34323E-01 3.04772E-31
1.37313E-01 2.60074E-31
1.40330E-01 2.16278E-31
1.43375E-01 1.75207E-31
1.46447E-01 1.38211E-31
1.49545E-01 1.06150E-31
1.52671E-01 7.94300E-32
1.55823E-01 5.80611E-32
1.59001E-01 4.17414E-32
1.62205E-01 2.99419E-32
1.65435E-01 2.19913E-32
1.68690E-01 1.71518E-32
1.71970E-01 1.46826E-32
1.75276E-01 1.38894E-32
1.78606E-01 1.41589E-32
1.81961E-01 1.49798E-32
1.85340E-01 1.59520E-32
1.88743E-01 1.67854E-32
1.92169E-01 1.72922E-32
1.95619E-01 1.73728E-32
1.99092E-01 1.69999E-32
2.02589E-01 1.62012E-32
2.06107E-01 1.50425E-32
2.09649E-01 1.36118E-32
2.13212E-01 1.20069E-32
2.16797E-01 1.03241E-32
2.20404E-01 8.65079E-33
2.24032E-01 7.06034E-33
2.27680E-01 5.60897E-33
2.31350E-01 4.33512E-33
2.35040E-01 3.26011E-33
2.38751E-01 2.38999E-33
2.42481E-01 1.71814E-33
2.46231E-01 1.22819E-33
2.50000E-01 8.97056E-34
2.53788E-01 6.97717E-34
2.57595E-01 6.01768E-34
2.61421E-01 5.81459E-34
2.65264E-01 6.11280E-34
2.69126E-01 6.69051E-34
2.73005E-01 7.36561E-34
2.76901E-01 7.99815E-34
2.80814E-01 8.48945E-34
2.84744E-01 8.77879E-34
2.88691E-01 8.83842E-34
2.92653E-01 8.66749E-34
2.96632E-01 8.28564E-34
3.00625E-01 7.72669E-34
3.04634E-01 7.03286E-34
3.08658E-01 6.24977E-34
3.12697E-01 5.42229E-34
3.16749E-01 4.59148E-34
3.20816E-01 3.79240E-34
3.24896E-01 3.05287E-34
3.28990E-01 2.39298E-34
3.33097E-01 1.82521E-34
3.37216E-01 1.35509E-34
3.41348E-01 9.82119E-35
3.45492E-01 7.00924E-35
3.49647E-01 5.02494E-35
3.53814E-01 3.75387E-35
3.57992E-01 3.06848E-35
3.62181E-01 2.83786E-35
3.66381E-01 2.93572E-35
3.70590E-01 3.24650E-35
3.74810E-01 3.66966E-35
3.79039E-01 4.12211E-35
3.83277E-01 4.53929E-35
3.87524E-01 4.87479E-35
3.91780E-01 5.09912E-35
3.96044E-01 5.19773E-35
4.00316E-01 5.16854E-35
4.04596E-01 5.01935E-35
4.08882E-01 4.76516E-35
4.13176E-01 4.42568E-35
4.17476E-01 4.02310E-35
4.21783E-01 3.58014E-35
4.26095E-01 3.11857E-35
4.30413E-01 2.65801E-35
4.34737E-01 2.21517E-35
4.39065E-01 1.80338E-35
4.43398E-01 1.43248E-35
4.47736E-01 1.10883E-35
4.52077E-01 8.35614E-36
4.56422E-01 6.13231E-36
4.60770E-01 4.39753E-36
4.65122E-01 3.11441E-36
4.69476E-01 2.23259E-36
4.73832E-01 1.69347E-36
4.78190E-01 1.43470E-36
4.82550E-01 1.39375E-36
4.86912E-01 1.51102E-36
4.91274E-01 1.73207E-36
4.95637E-01 2.00929E-36
5.00000E-01 2.30274E-36
5.04363E-01 2.58062E-36
5.08726E-01 2.81913E-36
5.13088E-01 3.00201E-36
5.17450E-01 3.11980E-36
5.21810E-01 3.16890E-36
5.26168E-01 3.15054E-36
5.30524E-01 3.06975E-36
5.34878E-01 2.93426E-36
5.39230E-01 2.75364E-36
5.43578E-01 2.53833E-36
5.47923E-01 2.29904E-36
5.52264E-01 2.04609E-36
5.56602E-01 1.78894E-36
5.60935E-01 1.53595E-36
5.65263E-01 1.29409E-36
5.69587E-01 1.06890E-36
5.73905E-01 8.64458E-37
5.78217E-01 6.83467E-37
5.82524E-01 5.27341E-37
5.86824E-01 3.96368E-37
5.91118E-01 2.89902E-37
5.95404E-01 2.06531E-37
5.99684E-01 1.44268E-37
6.03956E-01 1.00739E-37
6.08220E-01 1.00000E-45
6.12476E-01 1.00000E-45
6.16723E-01 1.00000E-45
6.20961E-01 1.00000E-45
6.25190E-01 1.00000E-45
6.29410E-01 1.00000E-45
6.33619E-01 1.00000E-45
6.37819E-01 1.00000E-45
6.42008E-01 1.00000E-45
6.46186E-01 1.00000E-45
6.50353E-01 1.00000E-45
6.54508E-01 1.00000E-45
6.58652E-01 1.00000E-45
6.62784E-01 1.00000E-45
6.66903E-01 1.00000E-45
6.71010E-01 1.00000E-45
6.75104E-01 1.00000E-45
6.79184E-01 1.00000E-45
6.83251E-01 1.00000E-45
6.87303E-01 1.00000E-45
6.91342E-01 1.00000E-45
6.95366E-01 1.00000E-45
6.99375E-01 1.00000E-45
7.03368E-01 1.00000E-45
7.07347E-01 1.00000E-45
7.11309E-01 1.00000E-45
7.15256E-01 1.00000E-45
7.19186E-01 1.00000E-45
7.23099E-01 1.00000E-45
7.26995E-01 1.00000E-45
7.30874E-01 1.00000E-45
7.34736E-01 1.00000E-45
7.38579E-01 1.00000E-45
7.42405E-01 1.00000E-45
7.46212E-01 1.00000E-45
7.50000E-01 1.00000E-45
7.53769E-01 1.00000E-45
7.57519E-01 1.00000E-45
7.61249E-01 1.00000E-45
7.64960E-01 1.00000E-45
7.68650E-01 1.00000E-45
7.72320E-01 1.00000E-45
7.75968E-01 1.00000E-45
7.79596E-01 1.00000E-45
7.83203E-01 1.00000E-45
7.86788E-01 1.00000E-45
7.90351E-01 1.00000E-45
7.93893E-01 1.00000E-45
7.97411E-01 1.00000E-45
8.00908E-01 1.00000E-45
8.04381E-01 1.00000E-45
8.07831E-01 1.00000E-45
8.11257E-01 1.00000E-45
8.14660E-01 1.00000E-45
8.18039E-01 1.00000E-45
8.21394E-01 1.00000E-45
8.24724E-01 1.00000E-45
8.28030E-01 1.00000E-45
8.31310E-01 1.00000E-45
8.34565E-01 1.00000E-45
8.37795E-01 1.00000E-45
8.40999E-01 1.00000E-45
8.44177E-01 1.00000E-45
8.47329E-01 1.00000E-45
8.50455E-01 1.00000E-45
8.53553E-01 1.00000E-45
8.56625E-01 1.00000E-45
8.59670E-01 1.00000E-45
8.62687E-01 1.00000E-45
8.65677E-01 1.00000E-45
8.68639E-01 1.00000E-45
8.71572E-01 1.00000E-45
8.74478E-01 1.00000E-45
8.77355E-01 1.00000E-45
8.80203E-01 1.00000E-45
8.83022E-01 1.00000E-45
8.85812E-01 1.00000E-45
8.88573E-01 1.00000E-45
8.91304E-01 1.00000E-45
8.94005E-01 1.00000E-45
8.96677E-01 1.00000E-45
8.99318E-01 1.00000E-45
9.01928E-01 1.00000E-45
9.04508E-01 1.00000E-45
9.07058E-01 1.00000E-45
9.09576E-01 1.00000E-45
9.12063E-01 1.00000E-45
9.14519E-01 1.00000E-45
9.16943E-01 1.00000E-45
9.19335E-01 1.00000E-45
9.21696E-01 1.00000E-45
9.24024E-01 1.00000E-45
9.26320E-01 1.00000E-45
9.28584E-01 1.00000E-45
9.30815E-01 1.00000E-45
9.33013E-01 1.00000E-45
9.35178E-01 1.00000E-45
9.37310E-01 1.00000E-45
9.39409E-01 1.00000E-45
9.41474E-01 1.00000E-45
9.43505E-01 1.00000E-45
9.45503E-01 1.00000E-45
9.47467E-01 1.00000E-45
9.49397E-01 1.00000E-45
9.51293E-01 1.00000E-45
9.53154E-01 1.00000E-45
9.54981E-01 1.00000E-45
9.56773E-01 1.00000E-45
9.58530E-01 1.00000E-45
9.60252E-01 1.00000E-45
9.61940E-01 1.00000E-45
9.63592E-01 1.00000E-45
9.65209E-01 1.00000E-45
9.66790E-01 1.00000E-45
9.68336E-01 1.00000E-45
9.69846E-01 1.00000E-45
9.71321E-01 1.00000E-45
9.72759E-01 1.00000E-45
9.74162E-01 1.00000E-45
9.75528E-01 1.00000E-45
9.76858E-01 1.00000E-45
9.78152E-01 1.00000E-45
9.79410E-01 1.00000E-45
9.80631E-01 1.00000E-45
9.81815E-01 1.00000E-45
9.82963E-01 1.00000E-45
9.84074E-01 1.00000E-45
9.85148E-01 1.00000E-45
9.86185E-01 1.00000E-45
9.87185E-01 1.00000E-45
9.88148E-01 1.00000E-45
9.89074E-01 1.00000E-45
9.89962E-01 1.00000E-45
9.90814E-01 1.00000E-45
9.91627E-01 1.00000E-45
9.92404E-01 1.00000E-45
9.93143E-01 1.00000E-45
9.93844E-01 1.00000E-45
9.94508E-01 1.00000E-45
9.95134E-01 1.00000E-45
9.95722E-01 1.00000E-45
9.96273E-01 1.00000E-45
9.96786E-01 1.00000E-45
9.97261E-01 1.00000E-45
9.97698E-01 1.00000E-45
9.98097E-01 1.00000E-45
9.98459E-01 1.00000E-45
9.98782E-01 1.00000E-45
9.99067E-01 1.00000E-45
9.99315E-01 1.00000E-45
9.99524E-01 1.00000E-45
9.99695E-01 1.00000E-45
9.99829E-01 1.00000E-45
9.99924E-01 1.00000E-45
9.99981E-01 1.00000E-45
1.00000E+00 1.00000E-45
