 #
 # Subroutine ELSEPA. Elastic scattering of electrons and positrons
 #                    by neutral atoms and positive ions
 #
 # Projectile: electron
 # Kinetic energy = 8.00000E+08 eV = 2.93995E+07 a.u.
 #
 # WARNING: High-energy factorization with free-atom DF screening.
 #          Absorption, polarization and exchange corrections are
 #          switched off.
 #          Phase shifts are calculated for the bare nucleus.
 #          Scattering amplitudes are not evaluated.
 #
 # Element: Bi,  Z =  83,  atomic weight = 2.08980E+02 g/mol
 #
 # Nuclear model: Fermi distribution
 #                Average radius = 6.34969E-13 cm
 #                Skin thickness = 5.46000E-14 cm
 #
 # Number of electrons = 83
 #
 # Total elastic cross section = 8.86536E-18 cm**2 = 3.16588E-01 a0**2
 # 1st transport cross section = 2.01010E-26 cm**2 = 7.17820E-10 a0**2
 # 2nd transport cross section = 6.02939E-26 cm**2 = 2.15313E-09 a0**2
 #
 #
 # Differential cross section:                       MU=(1-COS(THETA))/2
 #
 #  THETA        MU          DCS          DCS        Sherman      error
 #  (deg)                 (cm**2/sr)   (a0**2/sr)    function
 #----------------------------------------------------------------------
0.00000E+00 4.11417E-08
7.61557E-13 3.57884E-08
1.18994E-12 3.32770E-08
1.71346E-12 3.05992E-08
2.33225E-12 2.78849E-08
3.04617E-12 2.52368E-08
3.85530E-12 2.27346E-08
4.75964E-12 2.04113E-08
5.75917E-12 1.83031E-08
6.85391E-12 1.63979E-08
8.04379E-12 1.47055E-08
9.32893E-12 1.31978E-08
1.07092E-11 1.18692E-08
1.21847E-11 1.06937E-08
1.37554E-11 9.65802E-09
1.54213E-11 8.74263E-09
1.71823E-11 7.93318E-09
1.90386E-11 7.21617E-09
2.09900E-11 6.57848E-09
2.30367E-11 6.01151E-09
2.51785E-11 5.50389E-09
2.74156E-11 5.05064E-09
2.97478E-11 4.64210E-09
3.21752E-11 4.27540E-09
3.46979E-11 3.94345E-09
3.73157E-11 3.62900E-09
4.00286E-11 3.34074E-09
4.28368E-11 3.08697E-09
4.57402E-11 2.86272E-09
4.87388E-11 2.66382E-09
5.18325E-11 2.48679E-09
5.50215E-11 2.32869E-09
5.83057E-11 2.16709E-09
6.16850E-11 2.01554E-09
6.51595E-11 1.87978E-09
6.87293E-11 1.75779E-09
7.23943E-11 1.64787E-09
7.61544E-11 1.54856E-09
1.18991E-10 8.50327E-10
1.71347E-10 5.06016E-10
2.33223E-10 3.21453E-10
3.04617E-10 2.14639E-10
3.85531E-10 1.49046E-10
4.75965E-10 1.06395E-10
5.75917E-10 7.78657E-11
6.85389E-10 5.80580E-11
8.04380E-10 4.41361E-11
9.32891E-10 3.41024E-11
1.07092E-09 2.67469E-11
1.21847E-09 2.12909E-11
1.37554E-09 1.71819E-11
1.54213E-09 1.40298E-11
1.71823E-09 1.15743E-11
1.90386E-09 9.63698E-12
2.09900E-09 8.09078E-12
2.30367E-09 6.84617E-12
2.51785E-09 5.83336E-12
2.74156E-09 5.00304E-12
2.97478E-09 4.31491E-12
3.21752E-09 3.74167E-12
3.46978E-09 3.26017E-12
3.73156E-09 2.85230E-12
4.00286E-09 2.50711E-12
4.28368E-09 2.21489E-12
4.57402E-09 1.96193E-12
4.87388E-09 1.74485E-12
5.18326E-09 1.55794E-12
5.50215E-09 1.39399E-12
5.83057E-09 1.25186E-12
6.16850E-09 1.12748E-12
6.51596E-09 1.01774E-12
6.87293E-09 9.21515E-13
7.23942E-09 8.36147E-13
7.61544E-09 7.60396E-13
1.18991E-08 3.27417E-13
1.71347E-08 1.63090E-13
2.33223E-08 9.00932E-14
3.04617E-08 5.37733E-14
3.85531E-08 3.40597E-14
4.75965E-08 2.26092E-14
5.75917E-08 1.55894E-14
6.85389E-08 1.10920E-14
8.04380E-08 8.10391E-15
9.32891E-08 6.05658E-15
1.07092E-07 4.61616E-15
1.21847E-07 3.57930E-15
1.37554E-07 2.81774E-15
1.54213E-07 2.24829E-15
1.71823E-07 1.81569E-15
1.90386E-07 1.48231E-15
2.09900E-07 1.22205E-15
2.30367E-07 1.01651E-15
2.51785E-07 8.52425E-16
2.74156E-07 7.20163E-16
2.97478E-07 6.12596E-16
3.21752E-07 5.24389E-16
3.46978E-07 4.51506E-16
3.73156E-07 3.90860E-16
4.00286E-07 3.40064E-16
4.28368E-07 2.97262E-16
4.57402E-07 2.60987E-16
4.87388E-07 2.30081E-16
5.18325E-07 2.03618E-16
5.50215E-07 1.80853E-16
5.83057E-07 1.61183E-16
6.16850E-07 1.44115E-16
6.51596E-07 1.29248E-16
6.87293E-07 1.16249E-16
7.23942E-07 1.04844E-16
7.61543E-07 9.48038E-17
1.18991E-06 3.90122E-17
1.71347E-06 1.88689E-17
2.33223E-06 1.02050E-17
3.04617E-06 5.99034E-18
3.85531E-06 3.74363E-18
4.75964E-06 2.45818E-18
5.75916E-06 1.68007E-18
6.85388E-06 1.18688E-18
8.04378E-06 8.62101E-19
9.32888E-06 6.41201E-19
1.07092E-05 4.86741E-19
1.21846E-05 3.76119E-19
1.37553E-05 2.95217E-19
1.54212E-05 2.34946E-19
1.71822E-05 1.89304E-19
1.90385E-05 1.54133E-19
2.09899E-05 1.26932E-19
2.30365E-05 1.05457E-19
2.51783E-05 8.83093E-20
2.74153E-05 7.44890E-20
2.97475E-05 6.32601E-20
3.21749E-05 5.40699E-20
3.46974E-05 4.64954E-20
3.73152E-05 4.02089E-20
4.00281E-05 3.49555E-20
4.28362E-05 3.05364E-20
4.57395E-05 2.67916E-20
4.87380E-05 2.36025E-20
5.18317E-05 2.08727E-20
5.50205E-05 1.85256E-20
5.83045E-05 1.64991E-20
6.16838E-05 1.47425E-20
6.51582E-05 1.32142E-20
6.87277E-05 1.18794E-20
7.23925E-05 1.07094E-20
7.61524E-05 9.94180E-21
9.21439E-05 6.80180E-21
1.09658E-04 4.80520E-21
1.28695E-04 3.48687E-21
1.49255E-04 2.58777E-21
1.71338E-04 1.95783E-21
1.94942E-04 1.50594E-21
2.20070E-04 1.17511E-21
2.46720E-04 9.28553E-22
2.74892E-04 7.41890E-22
3.04586E-04 5.98577E-22
3.35803E-04 4.87174E-22
3.68542E-04 3.99599E-22
4.02802E-04 3.30061E-22
4.38585E-04 2.74341E-22
4.75889E-04 2.29323E-22
5.14715E-04 1.92679E-22
5.55063E-04 1.62645E-22
5.96931E-04 1.37876E-22
6.40321E-04 1.17330E-22
6.85233E-04 1.00198E-22
7.31665E-04 8.58426E-23
7.79618E-04 7.37603E-23
8.29092E-04 6.35497E-23
8.80086E-04 5.48875E-23
9.32601E-04 4.75132E-23
9.86636E-04 4.12149E-23
1.04219E-03 3.58192E-23
1.09927E-03 3.11841E-23
1.15786E-03 2.71919E-23
1.21797E-03 2.37454E-23
1.27961E-03 2.07632E-23
1.34276E-03 1.81776E-23
1.40743E-03 1.59316E-23
1.47362E-03 1.39771E-23
1.54133E-03 1.22735E-23
1.61056E-03 1.07865E-23
1.68131E-03 9.48663E-24
1.75357E-03 8.34900E-24
1.82735E-03 7.35216E-24
1.90265E-03 6.47779E-24
1.97947E-03 5.71007E-24
2.05780E-03 5.03543E-24
2.13765E-03 4.44209E-24
2.21902E-03 3.91988E-24
2.30190E-03 3.46000E-24
2.38630E-03 3.05476E-24
2.47222E-03 2.69751E-24
2.55965E-03 2.38241E-24
2.64859E-03 2.10440E-24
2.73905E-03 1.85903E-24
2.83103E-03 1.64241E-24
2.92452E-03 1.45114E-24
3.01952E-03 1.28223E-24
3.11604E-03 1.13304E-24
3.21407E-03 1.00126E-24
3.31362E-03 8.84872E-25
3.41468E-03 7.82067E-25
3.51725E-03 6.91268E-25
3.62133E-03 6.11082E-25
3.72692E-03 5.40275E-25
3.83403E-03 4.77760E-25
3.94265E-03 4.22576E-25
4.05278E-03 3.73872E-25
4.16442E-03 3.30896E-25
4.27757E-03 2.92981E-25
4.39223E-03 2.59540E-25
4.50840E-03 2.30050E-25
4.62608E-03 2.04050E-25
4.74527E-03 1.81131E-25
4.86597E-03 1.60932E-25
4.98817E-03 1.43131E-25
5.11188E-03 1.27446E-25
5.23711E-03 1.13626E-25
5.36383E-03 1.01448E-25
5.49207E-03 9.07159E-26
5.62181E-03 8.12567E-26
5.75306E-03 7.29166E-26
5.88581E-03 6.55602E-26
6.02007E-03 5.90679E-26
6.15583E-03 5.33342E-26
6.29310E-03 4.82660E-26
6.43187E-03 4.37814E-26
6.57214E-03 3.98083E-26
6.71392E-03 3.62833E-26
6.85720E-03 3.31505E-26
7.00198E-03 3.03611E-26
7.14827E-03 2.78722E-26
7.29605E-03 2.56461E-26
7.44534E-03 2.36501E-26
7.59612E-03 2.18554E-26
7.97965E-03 1.80924E-26
8.37255E-03 1.51282E-26
8.77480E-03 1.27435E-26
9.18641E-03 1.07854E-26
9.60736E-03 9.14770E-27
1.00376E-02 7.75736E-27
1.04773E-02 6.56401E-27
1.09262E-02 5.53271E-27
1.13844E-02 4.63878E-27
1.18520E-02 3.86418E-27
1.23288E-02 3.19507E-27
1.28150E-02 2.62021E-27
1.33104E-02 2.12987E-27
1.38150E-02 1.71526E-27
1.43290E-02 1.36818E-27
1.48521E-02 1.08084E-27
1.53845E-02 8.45849E-28
1.59262E-02 6.56181E-28
1.64770E-02 5.05263E-28
1.70371E-02 3.87014E-28
1.76063E-02 2.95884E-28
1.81848E-02 2.26898E-28
1.87724E-02 1.75666E-28
1.93692E-02 1.38380E-28
1.99751E-02 1.11802E-28
2.05901E-02 9.32279E-29
2.12143E-02 8.04484E-29
2.18476E-02 7.17006E-29
2.24900E-02 6.56145E-29
2.31415E-02 6.11586E-29
2.38021E-02 5.75870E-29
2.44717E-02 5.43875E-29
2.51504E-02 5.12346E-29
2.58382E-02 4.79474E-29
2.65349E-02 4.44517E-29
2.72407E-02 4.07487E-29
2.79555E-02 3.68889E-29
2.86793E-02 3.29506E-29
2.94120E-02 2.90239E-29
3.01537E-02 2.51988E-29
3.09043E-02 2.15565E-29
3.16639E-02 1.81642E-29
3.24324E-02 1.50728E-29
3.32098E-02 1.23154E-29
3.39961E-02 9.90855E-30
3.47912E-02 7.85351E-30
3.55952E-02 6.13882E-30
3.64081E-02 4.74281E-30
3.72297E-02 3.63636E-30
3.80602E-02 2.78548E-30
3.88995E-02 2.15369E-30
3.97476E-02 1.70406E-30
4.06044E-02 1.40087E-30
4.14700E-02 1.21091E-30
4.23443E-02 1.10437E-30
4.32273E-02 1.05543E-30
4.41190E-02 1.04249E-30
4.50194E-02 1.04822E-30
4.59284E-02 1.05933E-30
4.68461E-02 1.06627E-30
4.87074E-02 1.04527E-30
5.06030E-02 9.65132E-31
5.25328E-02 8.33850E-31
5.44967E-02 6.73015E-31
5.64946E-02 5.06916E-31
5.85262E-02 3.55693E-31
6.05914E-02 2.32170E-31
6.26901E-02 1.41469E-31
6.48222E-02 8.23783E-32
6.69873E-02 4.95156E-32
6.91854E-02 3.55648E-32
7.14163E-02 3.31196E-32
7.36799E-02 3.59252E-32
7.59760E-02 3.94950E-32
7.83043E-02 4.12078E-32
8.06647E-02 4.00484E-32
8.30571E-02 3.61614E-32
8.54812E-02 3.03633E-32
8.79369E-02 2.37135E-32
9.04240E-02 1.72002E-32
9.29422E-02 1.15546E-32
9.54915E-02 7.18331E-33
9.80716E-02 4.18735E-33
1.00682E-01 2.43375E-33
1.03323E-01 1.64850E-33
1.05995E-01 1.50562E-33
1.08696E-01 1.69736E-33
1.11427E-01 1.97878E-33
1.14188E-01 2.18723E-33
1.16978E-01 2.24122E-33
1.19797E-01 2.12579E-33
1.22645E-01 1.87130E-33
1.25522E-01 1.53138E-33
1.28428E-01 1.16440E-33
1.31361E-01 8.20251E-34
1.34323E-01 5.33277E-34
1.37313E-01 3.20301E-34
1.40330E-01 1.82596E-34
1.43375E-01 1.10062E-34
1.46447E-01 8.61744E-35
1.49545E-01 9.25590E-35
1.52671E-01 1.12515E-34
1.55823E-01 1.33185E-34
1.59001E-01 1.46410E-34
1.62205E-01 1.48548E-34
1.65435E-01 1.39584E-34
1.68690E-01 1.21920E-34
1.71970E-01 9.91361E-35
1.75276E-01 7.49528E-35
1.78606E-01 5.24937E-35
1.81961E-01 3.38886E-35
1.85340E-01 2.01720E-35
1.88743E-01 1.14055E-35
1.92169E-01 6.93181E-36
1.95619E-01 5.67710E-36
1.99092E-01 6.43648E-36
2.02589E-01 8.09857E-36
2.06107E-01 9.79002E-36
2.09649E-01 1.09398E-35
2.13212E-01 1.12758E-35
2.16797E-01 1.07753E-35
2.20404E-01 9.58999E-36
2.24032E-01 7.96527E-36
2.27680E-01 6.16947E-36
2.31350E-01 4.44029E-36
2.35040E-01 2.95249E-36
2.38751E-01 1.80560E-36
2.42481E-01 1.02753E-36
2.46231E-01 5.88849E-37
2.50000E-01 4.22396E-37
2.53788E-01 4.43326E-37
2.57595E-01 5.66444E-37
2.61421E-01 7.18823E-37
2.65264E-01 8.47012E-37
2.69126E-01 9.19308E-37
2.73005E-01 9.24096E-37
2.76901E-01 8.65607E-37
2.80814E-01 7.58532E-37
2.84744E-01 6.22574E-37
2.88691E-01 4.77817E-37
2.92653E-01 3.41392E-37
2.96632E-01 2.25535E-37
3.00625E-01 1.00000E-45
3.04634E-01 1.00000E-45
3.08658E-01 1.00000E-45
3.12697E-01 1.00000E-45
3.16749E-01 1.00000E-45
3.20816E-01 1.00000E-45
3.24896E-01 1.00000E-45
3.28990E-01 1.00000E-45
3.33097E-01 1.00000E-45
3.37216E-01 1.00000E-45
3.41348E-01 1.00000E-45
3.45492E-01 1.00000E-45
3.49647E-01 1.00000E-45
3.53814E-01 1.00000E-45
3.57992E-01 1.00000E-45
3.62181E-01 1.00000E-45
3.66381E-01 1.00000E-45
3.70590E-01 1.00000E-45
3.74810E-01 1.00000E-45
3.79039E-01 1.00000E-45
3.83277E-01 1.00000E-45
3.87524E-01 1.00000E-45
3.91780E-01 1.00000E-45
3.96044E-01 1.00000E-45
4.00316E-01 1.00000E-45
4.04596E-01 1.00000E-45
4.08882E-01 1.00000E-45
4.13176E-01 1.00000E-45
4.17476E-01 1.00000E-45
4.21783E-01 1.00000E-45
4.26095E-01 1.00000E-45
4.30413E-01 1.00000E-45
4.34737E-01 1.00000E-45
4.39065E-01 1.00000E-45
4.43398E-01 1.00000E-45
4.47736E-01 1.00000E-45
4.52077E-01 1.00000E-45
4.56422E-01 1.00000E-45
4.60770E-01 1.00000E-45
4.65122E-01 1.00000E-45
4.69476E-01 1.00000E-45
4.73832E-01 1.00000E-45
4.78190E-01 1.00000E-45
4.82550E-01 1.00000E-45
4.86912E-01 1.00000E-45
4.91274E-01 1.00000E-45
4.95637E-01 1.00000E-45
5.00000E-01 1.00000E-45
5.04363E-01 1.00000E-45
5.08726E-01 1.00000E-45
5.13088E-01 1.00000E-45
5.17450E-01 1.00000E-45
5.21810E-01 1.00000E-45
5.26168E-01 1.00000E-45
5.30524E-01 1.00000E-45
5.34878E-01 1.00000E-45
5.39230E-01 1.00000E-45
5.43578E-01 1.00000E-45
5.47923E-01 1.00000E-45
5.52264E-01 1.00000E-45
5.56602E-01 1.00000E-45
5.60935E-01 1.00000E-45
5.65263E-01 1.00000E-45
5.69587E-01 1.00000E-45
5.73905E-01 1.00000E-45
5.78217E-01 1.00000E-45
5.82524E-01 1.00000E-45
5.86824E-01 1.00000E-45
5.91118E-01 1.00000E-45
5.95404E-01 1.00000E-45
5.99684E-01 1.00000E-45
6.03956E-01 1.00000E-45
6.08220E-01 1.00000E-45
6.12476E-01 1.00000E-45
6.16723E-01 1.00000E-45
6.20961E-01 1.00000E-45
6.25190E-01 1.00000E-45
6.29410E-01 1.00000E-45
6.33619E-01 1.00000E-45
6.37819E-01 1.00000E-45
6.42008E-01 1.00000E-45
6.46186E-01 1.00000E-45
6.50353E-01 1.00000E-45
6.54508E-01 1.00000E-45
6.58652E-01 1.00000E-45
6.62784E-01 1.00000E-45
6.66903E-01 1.00000E-45
6.71010E-01 1.00000E-45
6.75104E-01 1.00000E-45
6.79184E-01 1.00000E-45
6.83251E-01 1.00000E-45
6.87303E-01 1.00000E-45
6.91342E-01 1.00000E-45
6.95366E-01 1.00000E-45
6.99375E-01 1.00000E-45
7.03368E-01 1.00000E-45
7.07347E-01 1.00000E-45
7.11309E-01 1.00000E-45
7.15256E-01 1.00000E-45
7.19186E-01 1.00000E-45
7.23099E-01 1.00000E-45
7.26995E-01 1.00000E-45
7.30874E-01 1.00000E-45
7.34736E-01 1.00000E-45
7.38579E-01 1.00000E-45
7.42405E-01 1.00000E-45
7.46212E-01 1.00000E-45
7.50000E-01 1.00000E-45
7.53769E-01 1.00000E-45
7.57519E-01 1.00000E-45
7.61249E-01 1.00000E-45
7.64960E-01 1.00000E-45
7.68650E-01 1.00000E-45
7.72320E-01 1.00000E-45
7.75968E-01 1.00000E-45
7.79596E-01 1.00000E-45
7.83203E-01 1.00000E-45
7.86788E-01 1.00000E-45
7.90351E-01 1.00000E-45
7.93893E-01 1.00000E-45
7.97411E-01 1.00000E-45
8.00908E-01 1.00000E-45
8.04381E-01 1.00000E-45
8.07831E-01 1.00000E-45
8.11257E-01 1.00000E-45
8.14660E-01 1.00000E-45
8.18039E-01 1.00000E-45
8.21394E-01 1.00000E-45
8.24724E-01 1.00000E-45
8.28030E-01 1.00000E-45
8.31310E-01 1.00000E-45
8.34565E-01 1.00000E-45
8.37795E-01 1.00000E-45
8.40999E-01 1.00000E-45
8.44177E-01 1.00000E-45
8.47329E-01 1.00000E-45
8.50455E-01 1.00000E-45
8.53553E-01 1.00000E-45
8.56625E-01 1.00000E-45
8.59670E-01 1.00000E-45
8.62687E-01 1.00000E-45
8.65677E-01 1.00000E-45
8.68639E-01 1.00000E-45
8.71572E-01 1.00000E-45
8.74478E-01 1.00000E-45
8.77355E-01 1.00000E-45
8.80203E-01 1.00000E-45
8.83022E-01 1.00000E-45
8.85812E-01 1.00000E-45
8.88573E-01 1.00000E-45
8.91304E-01 1.00000E-45
8.94005E-01 1.00000E-45
8.96677E-01 1.00000E-45
8.99318E-01 1.00000E-45
9.01928E-01 1.00000E-45
9.04508E-01 1.00000E-45
9.07058E-01 1.00000E-45
9.09576E-01 1.00000E-45
9.12063E-01 1.00000E-45
9.14519E-01 1.00000E-45
9.16943E-01 1.00000E-45
9.19335E-01 1.00000E-45
9.21696E-01 1.00000E-45
9.24024E-01 1.00000E-45
9.26320E-01 1.00000E-45
9.28584E-01 1.00000E-45
9.30815E-01 1.00000E-45
9.33013E-01 1.00000E-45
9.35178E-01 1.00000E-45
9.37310E-01 1.00000E-45
9.39409E-01 1.00000E-45
9.41474E-01 1.00000E-45
9.43505E-01 1.00000E-45
9.45503E-01 1.00000E-45
9.47467E-01 1.00000E-45
9.49397E-01 1.00000E-45
9.51293E-01 1.00000E-45
9.53154E-01 1.00000E-45
9.54981E-01 1.00000E-45
9.56773E-01 1.00000E-45
9.58530E-01 1.00000E-45
9.60252E-01 1.00000E-45
9.61940E-01 1.00000E-45
9.63592E-01 1.00000E-45
9.65209E-01 1.00000E-45
9.66790E-01 1.00000E-45
9.68336E-01 1.00000E-45
9.69846E-01 1.00000E-45
9.71321E-01 1.00000E-45
9.72759E-01 1.00000E-45
9.74162E-01 1.00000E-45
9.75528E-01 1.00000E-45
9.76858E-01 1.00000E-45
9.78152E-01 1.00000E-45
9.79410E-01 1.00000E-45
9.80631E-01 1.00000E-45
9.81815E-01 1.00000E-45
9.82963E-01 1.00000E-45
9.84074E-01 1.00000E-45
9.85148E-01 1.00000E-45
9.86185E-01 1.00000E-45
9.87185E-01 1.00000E-45
9.88148E-01 1.00000E-45
9.89074E-01 1.00000E-45
9.89962E-01 1.00000E-45
9.90814E-01 1.00000E-45
9.91627E-01 1.00000E-45
9.92404E-01 1.00000E-45
9.93143E-01 1.00000E-45
9.93844E-01 1.00000E-45
9.94508E-01 1.00000E-45
9.95134E-01 1.00000E-45
9.95722E-01 1.00000E-45
9.96273E-01 1.00000E-45
9.96786E-01 1.00000E-45
9.97261E-01 1.00000E-45
9.97698E-01 1.00000E-45
9.98097E-01 1.00000E-45
9.98459E-01 1.00000E-45
9.98782E-01 1.00000E-45
9.99067E-01 1.00000E-45
9.99315E-01 1.00000E-45
9.99524E-01 1.00000E-45
9.99695E-01 1.00000E-45
9.99829E-01 1.00000E-45
9.99924E-01 1.00000E-45
9.99981E-01 1.00000E-45
1.00000E+00 1.00000E-45
