 #
 # Subroutine ELSEPA. Elastic scattering of electrons and positrons
 #                    by neutral atoms and positive ions
 #
 # Projectile: electron
 # Kinetic energy = 9.00000E+07 eV = 3.30744E+06 a.u.
 #
 # WARNING: High-energy factorization with free-atom DF screening.
 #          Absorption, polarization and exchange corrections are
 #          switched off.
 #          Phase shifts are calculated for the bare nucleus.
 #          Scattering amplitudes are not evaluated.
 #
 # Element: Bi,  Z =  83,  atomic weight = 2.08980E+02 g/mol
 #
 # Nuclear model: Fermi distribution
 #                Average radius = 6.34969E-13 cm
 #                Skin thickness = 5.46000E-14 cm
 #
 # Number of electrons = 83
 #
 # Total elastic cross section = 8.88999E-18 cm**2 = 3.17467E-01 a0**2
 # 1st transport cross section = 1.59811E-24 cm**2 = 5.70694E-08 a0**2
 # 2nd transport cross section = 4.74836E-24 cm**2 = 1.69567E-07 a0**2
 #
 #
 # Differential cross section:                       MU=(1-COS(THETA))/2
 #
 #  THETA        MU          DCS          DCS        Sherman      error
 #  (deg)                 (cm**2/sr)   (a0**2/sr)    function
 #----------------------------------------------------------------------
0.00000E+00 5.25957E-10
7.61557E-13 5.24969E-10
1.18994E-12 5.24417E-10
1.71346E-12 5.23744E-10
2.33225E-12 5.22950E-10
3.04617E-12 5.22037E-10
3.85530E-12 5.21006E-10
4.75964E-12 5.19857E-10
5.75917E-12 5.18593E-10
6.85391E-12 5.17215E-10
8.04379E-12 5.15724E-10
9.32893E-12 5.14121E-10
1.07092E-11 5.12410E-10
1.21847E-11 5.10592E-10
1.37554E-11 5.08668E-10
1.54213E-11 5.06641E-10
1.71823E-11 5.04513E-10
1.90386E-11 5.02287E-10
2.09900E-11 4.99965E-10
2.30367E-11 4.97549E-10
2.51785E-11 4.95042E-10
2.74156E-11 4.92446E-10
2.97478E-11 4.89743E-10
3.21752E-11 4.86958E-10
3.46979E-11 4.84104E-10
3.73157E-11 4.81183E-10
4.00286E-11 4.78200E-10
4.28368E-11 4.75158E-10
4.57402E-11 4.72005E-10
4.87388E-11 4.68774E-10
5.18325E-11 4.65495E-10
5.50215E-11 4.62171E-10
5.83057E-11 4.58805E-10
6.16850E-11 4.55403E-10
6.51595E-11 4.51902E-10
6.87293E-11 4.48332E-10
7.23943E-11 4.44734E-10
7.61544E-11 4.41112E-10
1.18991E-10 4.03189E-10
1.71347E-10 3.63984E-10
2.33223E-10 3.25453E-10
3.04617E-10 2.89233E-10
3.85531E-10 2.56032E-10
4.75965E-10 2.26202E-10
5.75917E-10 1.99874E-10
6.85389E-10 1.76766E-10
8.04380E-10 1.56627E-10
9.32891E-10 1.39164E-10
1.07092E-09 1.23971E-10
1.21847E-09 1.10777E-10
1.37554E-09 9.93112E-11
1.54213E-09 8.92755E-11
1.71823E-09 8.04992E-11
1.90386E-09 7.27991E-11
2.09900E-09 6.59893E-11
2.30367E-09 5.99743E-11
2.51785E-09 5.46373E-11
2.74156E-09 4.98727E-11
2.97478E-09 4.53671E-11
3.21752E-09 4.13735E-11
3.46978E-09 3.79100E-11
3.73156E-09 3.48918E-11
4.00286E-09 3.22495E-11
4.28368E-09 2.99262E-11
4.57402E-09 2.76033E-11
4.87388E-09 2.54403E-11
5.18326E-09 2.35290E-11
5.50215E-09 2.18339E-11
5.83057E-09 2.03250E-11
6.16850E-09 1.89774E-11
6.51596E-09 1.76580E-11
6.87293E-09 1.64133E-11
7.23942E-09 1.52968E-11
7.61544E-09 1.42925E-11
1.18991E-08 7.68476E-12
1.71347E-08 4.51460E-12
2.33223E-08 2.83539E-12
3.04617E-08 1.87537E-12
3.85531E-08 1.28613E-12
4.75965E-08 9.07617E-13
5.75917E-08 6.57181E-13
6.85389E-08 4.86635E-13
8.04380E-08 3.67373E-13
9.32891E-08 2.82812E-13
1.07092E-07 2.21556E-13
1.21847E-07 1.76235E-13
1.37554E-07 1.42042E-13
1.54213E-07 1.15776E-13
1.71823E-07 9.53658E-14
1.90386E-07 7.93094E-14
2.09900E-07 6.65078E-14
2.30367E-07 5.62017E-14
2.51785E-07 4.78190E-14
2.74156E-07 4.09382E-14
2.97478E-07 3.52294E-14
3.21752E-07 3.05080E-14
3.46978E-07 2.65623E-14
3.73156E-07 2.32181E-14
4.00286E-07 2.04052E-14
4.28368E-07 1.79875E-14
4.57402E-07 1.59274E-14
4.87388E-07 1.41535E-14
5.18325E-07 1.26173E-14
5.50215E-07 1.12907E-14
5.83057E-07 1.01260E-14
6.16850E-07 9.11265E-15
6.51596E-07 8.22087E-15
6.87293E-07 7.43559E-15
7.23942E-07 6.74346E-15
7.61543E-07 6.12732E-15
1.18991E-06 2.62152E-15
1.71347E-06 1.30113E-15
2.33223E-06 7.17446E-16
3.04617E-06 4.27602E-16
3.85531E-06 2.70462E-16
4.75964E-06 1.79293E-16
5.75916E-06 1.23470E-16
6.85388E-06 8.77588E-17
8.04378E-06 6.40634E-17
9.32888E-06 4.78472E-17
1.07092E-05 3.64503E-17
1.21846E-05 2.82530E-17
1.37553E-05 2.22360E-17
1.54212E-05 1.77392E-17
1.71822E-05 1.43242E-17
1.90385E-05 1.16860E-17
2.09899E-05 9.64118E-18
2.30365E-05 8.02334E-18
2.51783E-05 6.72907E-18
2.74153E-05 5.68403E-18
2.97475E-05 4.83351E-18
3.21749E-05 4.13637E-18
3.46974E-05 3.56092E-18
3.73152E-05 3.08267E-18
4.00281E-05 2.68247E-18
4.28362E-05 2.34532E-18
4.57395E-05 2.05953E-18
4.87380E-05 1.81588E-18
5.18317E-05 1.60712E-18
5.50205E-05 1.42744E-18
5.83045E-05 1.27216E-18
6.16838E-05 1.13745E-18
6.51582E-05 1.02015E-18
6.87277E-05 9.17628E-19
7.23925E-05 8.27693E-19
7.61524E-05 7.48343E-19
9.21439E-05 5.12456E-19
1.09658E-04 3.62636E-19
1.28695E-04 2.63827E-19
1.49255E-04 1.96510E-19
1.71338E-04 1.49379E-19
1.94942E-04 1.15582E-19
2.20070E-04 9.08369E-20
2.46720E-04 7.23825E-20
2.74892E-04 5.83932E-20
3.04586E-04 4.76317E-20
3.35803E-04 3.92442E-20
3.68542E-04 3.26282E-20
4.02802E-04 2.73528E-20
4.38585E-04 2.31047E-20
4.75889E-04 1.96523E-20
5.14715E-04 1.68235E-20
5.55063E-04 1.44874E-20
5.96931E-04 1.25446E-20
6.40321E-04 1.09179E-20
6.85233E-04 9.54765E-21
7.31665E-04 8.38665E-21
7.79618E-04 7.39762E-21
8.29092E-04 6.55086E-21
8.80086E-04 5.82243E-21
9.32601E-04 5.19298E-21
9.86636E-04 4.64679E-21
1.04219E-03 4.17091E-21
1.09927E-03 3.75478E-21
1.15786E-03 3.38955E-21
1.21797E-03 3.06792E-21
1.27961E-03 2.78380E-21
1.34276E-03 2.53200E-21
1.40743E-03 2.30822E-21
1.47362E-03 2.10878E-21
1.54133E-03 1.93057E-21
1.61056E-03 1.77091E-21
1.68131E-03 1.62753E-21
1.75357E-03 1.49847E-21
1.82735E-03 1.38205E-21
1.90265E-03 1.27679E-21
1.97947E-03 1.18143E-21
2.05780E-03 1.09488E-21
2.13765E-03 1.01616E-21
2.21902E-03 9.44448E-22
2.30190E-03 8.78995E-22
2.38630E-03 8.19155E-22
2.47222E-03 7.64359E-22
2.55965E-03 7.14103E-22
2.64859E-03 6.67940E-22
2.73905E-03 6.25476E-22
2.83103E-03 5.86357E-22
2.92452E-03 5.50273E-22
3.01952E-03 5.16943E-22
3.11604E-03 4.86120E-22
3.21407E-03 4.57580E-22
3.31362E-03 4.31127E-22
3.41468E-03 4.06552E-22
3.51725E-03 3.83710E-22
3.62133E-03 3.62461E-22
3.72692E-03 3.42671E-22
3.83403E-03 3.24221E-22
3.94265E-03 3.07004E-22
4.05278E-03 2.90921E-22
4.16442E-03 2.75884E-22
4.27757E-03 2.61811E-22
4.39223E-03 2.48628E-22
4.50840E-03 2.36269E-22
4.62608E-03 2.24671E-22
4.74527E-03 2.13780E-22
4.86597E-03 2.03544E-22
4.98817E-03 1.93915E-22
5.11188E-03 1.84851E-22
5.23711E-03 1.76312E-22
5.36383E-03 1.68262E-22
5.49207E-03 1.60668E-22
5.62181E-03 1.53498E-22
5.75306E-03 1.46724E-22
5.88581E-03 1.40321E-22
6.02007E-03 1.34264E-22
6.15583E-03 1.28530E-22
6.29310E-03 1.23100E-22
6.43187E-03 1.17953E-22
6.57214E-03 1.13072E-22
6.71392E-03 1.08442E-22
6.85720E-03 1.04045E-22
7.00198E-03 9.98691E-23
7.14827E-03 9.59001E-23
7.29605E-03 9.21259E-23
7.44534E-03 8.85351E-23
7.59612E-03 8.51170E-23
7.97965E-03 7.72640E-23
8.37255E-03 7.02923E-23
8.77480E-03 6.40853E-23
9.18641E-03 5.85442E-23
9.60736E-03 5.35846E-23
1.00376E-02 4.91345E-23
1.04773E-02 4.51323E-23
1.09262E-02 4.15246E-23
1.13844E-02 3.82657E-23
1.18520E-02 3.53158E-23
1.23288E-02 3.26402E-23
1.28150E-02 3.02090E-23
1.33104E-02 2.79957E-23
1.38150E-02 2.59774E-23
1.43290E-02 2.41337E-23
1.48521E-02 2.24470E-23
1.53845E-02 2.09013E-23
1.59262E-02 1.94830E-23
1.64770E-02 1.81795E-23
1.70371E-02 1.69800E-23
1.76063E-02 1.58747E-23
1.81848E-02 1.48549E-23
1.87724E-02 1.39128E-23
1.93692E-02 1.30415E-23
1.99751E-02 1.22348E-23
2.05901E-02 1.14869E-23
2.12143E-02 1.07930E-23
2.18476E-02 1.01484E-23
2.24900E-02 9.54898E-24
2.31415E-02 8.99111E-24
2.38021E-02 8.47140E-24
2.44717E-02 7.98680E-24
2.51504E-02 7.53455E-24
2.58382E-02 7.11211E-24
2.65349E-02 6.71721E-24
2.72407E-02 6.34776E-24
2.79555E-02 6.00184E-24
2.86793E-02 5.67773E-24
2.94120E-02 5.37381E-24
3.01537E-02 5.08864E-24
3.09043E-02 4.82087E-24
3.16639E-02 4.56928E-24
3.24324E-02 4.33273E-24
3.32098E-02 4.11019E-24
3.39961E-02 3.90069E-24
3.47912E-02 3.70337E-24
3.55952E-02 3.51740E-24
3.64081E-02 3.34204E-24
3.72297E-02 3.17658E-24
3.80602E-02 3.02040E-24
3.88995E-02 2.87288E-24
3.97476E-02 2.73349E-24
4.06044E-02 2.60170E-24
4.14700E-02 2.47706E-24
4.23443E-02 2.35911E-24
4.32273E-02 2.24744E-24
4.41190E-02 2.14168E-24
4.50194E-02 2.04147E-24
4.59284E-02 1.94648E-24
4.68461E-02 1.85640E-24
4.87074E-02 1.68985E-24
5.06030E-02 1.53974E-24
5.25328E-02 1.40425E-24
5.44967E-02 1.28180E-24
5.64946E-02 1.17098E-24
5.85262E-02 1.07057E-24
6.05914E-02 9.79488E-25
6.26901E-02 8.96771E-25
6.48222E-02 8.21575E-25
6.69873E-02 7.53148E-25
6.91854E-02 6.90822E-25
7.14163E-02 6.34001E-25
7.36799E-02 5.82155E-25
7.59760E-02 5.34811E-25
7.83043E-02 4.91543E-25
8.06647E-02 4.51972E-25
8.30571E-02 4.15757E-25
8.54812E-02 3.82592E-25
8.79369E-02 3.52200E-25
9.04240E-02 3.24333E-25
9.29422E-02 2.98768E-25
9.54915E-02 2.75300E-25
9.80716E-02 2.53749E-25
1.00682E-01 2.33947E-25
1.03323E-01 2.15744E-25
1.05995E-01 1.99004E-25
1.08696E-01 1.83604E-25
1.11427E-01 1.69430E-25
1.14188E-01 1.56381E-25
1.16978E-01 1.44363E-25
1.19797E-01 1.33291E-25
1.22645E-01 1.23088E-25
1.25522E-01 1.13683E-25
1.28428E-01 1.05011E-25
1.31361E-01 9.70133E-26
1.34323E-01 8.96358E-26
1.37313E-01 8.28290E-26
1.40330E-01 7.65475E-26
1.43375E-01 7.07497E-26
1.46447E-01 6.53976E-26
1.49545E-01 6.04561E-26
1.52671E-01 5.58932E-26
1.55823E-01 5.16792E-26
1.59001E-01 4.77872E-26
1.62205E-01 4.41921E-26
1.65435E-01 4.08710E-26
1.68690E-01 3.78028E-26
1.71970E-01 3.49681E-26
1.75276E-01 3.23488E-26
1.78606E-01 2.99286E-26
1.81961E-01 2.76922E-26
1.85340E-01 2.56256E-26
1.88743E-01 2.37159E-26
1.92169E-01 2.19510E-26
1.95619E-01 2.03201E-26
1.99092E-01 1.88128E-26
2.02589E-01 1.74199E-26
2.06107E-01 1.61327E-26
2.09649E-01 1.49431E-26
2.13212E-01 1.38438E-26
2.16797E-01 1.28279E-26
2.20404E-01 1.18891E-26
2.24032E-01 1.10216E-26
2.27680E-01 1.02199E-26
2.31350E-01 9.47913E-27
2.35040E-01 8.79459E-27
2.38751E-01 8.16203E-27
2.42481E-01 7.57752E-27
2.46231E-01 7.03739E-27
2.50000E-01 6.53828E-27
2.53788E-01 6.07707E-27
2.57595E-01 5.65087E-27
2.61421E-01 5.25700E-27
2.65264E-01 4.89301E-27
2.69126E-01 4.55660E-27
2.73005E-01 4.24566E-27
2.76901E-01 3.95825E-27
2.80814E-01 3.69255E-27
2.84744E-01 3.44690E-27
2.88691E-01 3.21975E-27
2.92653E-01 3.00968E-27
2.96632E-01 2.81536E-27
3.00625E-01 2.63558E-27
3.04634E-01 2.46922E-27
3.08658E-01 2.31522E-27
3.12697E-01 2.17264E-27
3.16749E-01 2.04058E-27
3.20816E-01 1.91823E-27
3.24896E-01 1.80482E-27
3.28990E-01 1.69965E-27
3.33097E-01 1.60209E-27
3.37216E-01 1.51154E-27
3.41348E-01 1.42744E-27
3.45492E-01 1.34930E-27
3.49647E-01 1.27664E-27
3.53814E-01 1.20904E-27
3.57992E-01 1.14609E-27
3.62181E-01 1.08744E-27
3.66381E-01 1.03274E-27
3.70590E-01 9.81691E-28
3.74810E-01 9.34000E-28
3.79039E-01 8.89408E-28
3.83277E-01 8.47672E-28
3.87524E-01 8.08570E-28
3.91780E-01 7.71898E-28
3.96044E-01 7.37467E-28
4.00316E-01 7.05105E-28
4.04596E-01 6.74654E-28
4.08882E-01 6.45967E-28
4.13176E-01 6.18910E-28
4.17476E-01 5.93361E-28
4.21783E-01 5.69208E-28
4.26095E-01 5.46346E-28
4.30413E-01 5.24680E-28
4.34737E-01 5.04124E-28
4.39065E-01 4.84598E-28
4.43398E-01 4.66028E-28
4.47736E-01 4.48348E-28
4.52077E-01 4.31495E-28
4.56422E-01 4.15415E-28
4.60770E-01 4.00054E-28
4.65122E-01 3.85366E-28
4.69476E-01 3.71307E-28
4.73832E-01 3.57838E-28
4.78190E-01 3.44922E-28
4.82550E-01 3.32526E-28
4.86912E-01 3.20618E-28
4.91274E-01 3.09172E-28
4.95637E-01 2.98160E-28
5.00000E-01 2.87560E-28
5.04363E-01 2.77350E-28
5.08726E-01 2.67509E-28
5.13088E-01 2.58019E-28
5.17450E-01 2.48863E-28
5.21810E-01 2.40026E-28
5.26168E-01 2.31493E-28
5.30524E-01 2.23250E-28
5.34878E-01 2.15286E-28
5.39230E-01 2.07588E-28
5.43578E-01 2.00146E-28
5.47923E-01 1.92950E-28
5.52264E-01 1.85991E-28
5.56602E-01 1.79260E-28
5.60935E-01 1.72748E-28
5.65263E-01 1.66450E-28
5.69587E-01 1.60356E-28
5.73905E-01 1.54460E-28
5.78217E-01 1.48757E-28
5.82524E-01 1.43239E-28
5.86824E-01 1.37902E-28
5.91118E-01 1.32739E-28
5.95404E-01 1.27746E-28
5.99684E-01 1.22917E-28
6.03956E-01 1.18247E-28
6.08220E-01 1.13732E-28
6.12476E-01 1.09368E-28
6.16723E-01 1.05150E-28
6.20961E-01 1.01075E-28
6.25190E-01 9.71368E-29
6.29410E-01 9.33331E-29
6.33619E-01 8.96598E-29
6.37819E-01 8.61131E-29
6.42008E-01 8.26896E-29
6.46186E-01 7.93857E-29
6.50353E-01 7.61980E-29
6.54508E-01 7.31232E-29
6.58652E-01 7.01580E-29
6.62784E-01 6.72994E-29
6.66903E-01 6.45441E-29
6.71010E-01 6.18892E-29
6.75104E-01 5.93317E-29
6.79184E-01 5.68687E-29
6.83251E-01 5.44973E-29
6.87303E-01 5.22149E-29
6.91342E-01 5.00185E-29
6.95366E-01 4.79057E-29
6.99375E-01 4.58738E-29
7.03368E-01 4.39203E-29
7.07347E-01 4.20426E-29
7.11309E-01 4.02383E-29
7.15256E-01 3.85050E-29
7.19186E-01 3.68404E-29
7.23099E-01 3.52423E-29
7.26995E-01 3.37083E-29
7.30874E-01 3.22364E-29
7.34736E-01 3.08243E-29
7.38579E-01 2.94701E-29
7.42405E-01 2.81717E-29
7.46212E-01 2.69272E-29
7.50000E-01 2.57345E-29
7.53769E-01 2.45920E-29
7.57519E-01 2.34976E-29
7.61249E-01 2.24497E-29
7.64960E-01 2.14466E-29
7.68650E-01 2.04865E-29
7.72320E-01 1.95679E-29
7.75968E-01 1.86891E-29
7.79596E-01 1.78487E-29
7.83203E-01 1.70451E-29
7.86788E-01 1.62768E-29
7.90351E-01 1.55426E-29
7.93893E-01 1.48410E-29
7.97411E-01 1.41706E-29
8.00908E-01 1.35304E-29
8.04381E-01 1.29189E-29
8.07831E-01 1.23351E-29
8.11257E-01 1.17777E-29
8.14660E-01 1.12457E-29
8.18039E-01 1.07379E-29
8.21394E-01 1.02534E-29
8.24724E-01 9.79113E-30
8.28030E-01 9.35013E-30
8.31310E-01 8.92946E-30
8.34565E-01 8.52823E-30
8.37795E-01 8.14559E-30
8.40999E-01 7.78069E-30
8.44177E-01 7.43274E-30
8.47329E-01 7.10097E-30
8.50455E-01 6.78463E-30
8.53553E-01 6.48302E-30
8.56625E-01 6.19546E-30
8.59670E-01 5.92129E-30
8.62687E-01 5.65987E-30
8.65677E-01 5.41062E-30
8.68639E-01 5.17295E-30
8.71572E-01 4.94631E-30
8.74478E-01 4.73016E-30
8.77355E-01 4.52401E-30
8.80203E-01 4.32736E-30
8.83022E-01 4.13975E-30
8.85812E-01 3.96074E-30
8.88573E-01 3.78990E-30
8.91304E-01 3.62683E-30
8.94005E-01 3.47115E-30
8.96677E-01 3.32248E-30
8.99318E-01 3.18048E-30
9.01928E-01 3.04481E-30
9.04508E-01 2.91515E-30
9.07058E-01 2.79120E-30
9.09576E-01 2.67267E-30
9.12063E-01 2.55928E-30
9.14519E-01 2.45078E-30
9.16943E-01 2.34691E-30
9.19335E-01 2.24745E-30
9.21696E-01 2.15217E-30
9.24024E-01 2.06086E-30
9.26320E-01 1.97331E-30
9.28584E-01 1.88934E-30
9.30815E-01 1.80877E-30
9.33013E-01 1.73143E-30
9.35178E-01 1.65716E-30
9.37310E-01 1.58580E-30
9.39409E-01 1.51721E-30
9.41474E-01 1.45127E-30
9.43505E-01 1.38783E-30
9.45503E-01 1.32678E-30
9.47467E-01 1.26801E-30
9.49397E-01 1.21141E-30
9.51293E-01 1.15688E-30
9.53154E-01 1.10433E-30
9.54981E-01 1.05366E-30
9.56773E-01 1.00481E-30
9.58530E-01 9.57677E-31
9.60252E-01 9.12204E-31
9.61940E-01 8.68320E-31
9.63592E-01 8.25961E-31
9.65209E-01 7.85068E-31
9.66790E-01 7.45586E-31
9.68336E-01 7.07464E-31
9.69846E-01 6.70653E-31
9.71321E-01 6.35110E-31
9.72759E-01 6.00793E-31
9.74162E-01 5.67663E-31
9.75528E-01 5.35686E-31
9.76858E-01 5.04829E-31
9.78152E-01 4.75060E-31
9.79410E-01 4.46354E-31
9.80631E-01 4.18683E-31
9.81815E-01 3.92024E-31
9.82963E-01 3.66355E-31
9.84074E-01 3.41656E-31
9.85148E-01 3.17910E-31
9.86185E-01 2.95099E-31
9.87185E-01 2.73208E-31
9.88148E-01 2.52223E-31
9.89074E-01 2.32132E-31
9.89962E-01 2.12923E-31
9.90814E-01 1.94586E-31
9.91627E-01 1.77111E-31
9.92404E-01 1.60491E-31
9.93143E-01 1.44717E-31
9.93844E-01 1.29783E-31
9.94508E-01 1.15683E-31
9.95134E-01 1.02411E-31
9.95722E-01 8.99627E-32
9.96273E-01 7.83335E-32
9.96786E-01 6.75197E-32
9.97261E-01 5.75180E-32
9.97698E-01 4.83256E-32
9.98097E-01 3.99399E-32
9.98459E-01 3.23586E-32
9.98782E-01 2.55799E-32
9.99067E-01 1.96022E-32
9.99315E-01 1.44241E-32
9.99524E-01 1.00445E-32
9.99695E-01 6.46232E-33
9.99829E-01 3.67695E-33
9.99924E-01 1.68781E-33
9.99981E-01 4.94471E-34
1.00000E+00 9.67282E-35
