 #
 # Subroutine ELSEPA. Elastic scattering of electrons and positrons
 #                    by neutral atoms and positive ions
 #
 # Projectile: electron
 # Kinetic energy = 2.00000E+08 eV = 7.34987E+06 a.u.
 #
 # WARNING: High-energy factorization with free-atom DF screening.
 #          Absorption, polarization and exchange corrections are
 #          switched off.
 #          Phase shifts are calculated for the bare nucleus.
 #          Scattering amplitudes are not evaluated.
 #
 # Element: Bi,  Z =  83,  atomic weight = 2.08980E+02 g/mol
 #
 # Nuclear model: Fermi distribution
 #                Average radius = 6.34969E-13 cm
 #                Skin thickness = 5.46000E-14 cm
 #
 # Number of electrons = 83
 #
 # Total elastic cross section = 8.88769E-18 cm**2 = 3.17385E-01 a0**2
 # 1st transport cross section = 3.23302E-25 cm**2 = 1.15453E-08 a0**2
 # 2nd transport cross section = 9.67704E-25 cm**2 = 3.45573E-08 a0**2
 #
 #
 # Differential cross section:                       MU=(1-COS(THETA))/2
 #
 #  THETA        MU          DCS          DCS        Sherman      error
 #  (deg)                 (cm**2/sr)   (a0**2/sr)    function
 #----------------------------------------------------------------------
0.00000E+00 2.58121E-09
7.61557E-13 2.55765E-09
1.18994E-12 2.54457E-09
1.71346E-12 2.52875E-09
2.33225E-12 2.51026E-09
3.04617E-12 2.48922E-09
3.85530E-12 2.46574E-09
4.75964E-12 2.43993E-09
5.75917E-12 2.41193E-09
6.85391E-12 2.38167E-09
8.04379E-12 2.34979E-09
9.32893E-12 2.31619E-09
1.07092E-11 2.28074E-09
1.21847E-11 2.24423E-09
1.37554E-11 2.20620E-09
1.54213E-11 2.16702E-09
1.71823E-11 2.12733E-09
1.90386E-11 2.08622E-09
2.09900E-11 2.04474E-09
2.30367E-11 2.00310E-09
2.51785E-11 1.96033E-09
2.74156E-11 1.91785E-09
2.97478E-11 1.87522E-09
3.21752E-11 1.83220E-09
3.46979E-11 1.78981E-09
3.73157E-11 1.74721E-09
4.00286E-11 1.70490E-09
4.28368E-11 1.66349E-09
4.57402E-11 1.62175E-09
4.87388E-11 1.58089E-09
5.18325E-11 1.54088E-09
5.50215E-11 1.50085E-09
5.83057E-11 1.46197E-09
6.16850E-11 1.42372E-09
6.51595E-11 1.38595E-09
6.87293E-11 1.34939E-09
7.23943E-11 1.31324E-09
7.61544E-11 1.27795E-09
1.18991E-10 9.71569E-10
1.71347E-10 7.42456E-10
2.33223E-10 5.74395E-10
3.04617E-10 4.51117E-10
3.85531E-10 3.59447E-10
4.75965E-10 2.90091E-10
5.75917E-10 2.36575E-10
6.85389E-10 1.92824E-10
8.04380E-10 1.60730E-10
9.32891E-10 1.35295E-10
1.07092E-09 1.13465E-10
1.21847E-09 9.67065E-11
1.37554E-09 8.25440E-11
1.54213E-09 7.07219E-11
1.71823E-09 6.13235E-11
1.90386E-09 5.30619E-11
2.09900E-09 4.62626E-11
2.30367E-09 4.06589E-11
2.51785E-09 3.56916E-11
2.74156E-09 3.15757E-11
2.97478E-09 2.80532E-11
3.21752E-09 2.49648E-11
3.46978E-09 2.23546E-11
3.73156E-09 2.00521E-11
4.00286E-09 1.80417E-11
4.28368E-09 1.63150E-11
4.57402E-09 1.47512E-11
4.87388E-09 1.33892E-11
5.18326E-09 1.21945E-11
5.50215E-09 1.11052E-11
5.83057E-09 1.01509E-11
6.16850E-09 9.29454E-12
6.51596E-09 8.51772E-12
6.87293E-09 7.83049E-12
7.23942E-09 7.20175E-12
7.61544E-09 6.63452E-12
1.18991E-08 3.14827E-12
1.71347E-08 1.66700E-12
2.33223E-08 9.66242E-13
3.04617E-08 6.00557E-13
3.85531E-08 3.93494E-13
4.75965E-08 2.68883E-13
5.75917E-08 1.89942E-13
6.85389E-08 1.38020E-13
8.04380E-08 1.02695E-13
9.32891E-08 7.80026E-14
1.07092E-07 6.03182E-14
1.21847E-07 4.73774E-14
1.37554E-07 3.77279E-14
1.54213E-07 3.04127E-14
1.71823E-07 2.47850E-14
1.90386E-07 2.03986E-14
2.09900E-07 1.69393E-14
2.30367E-07 1.41823E-14
2.51785E-07 1.19633E-14
2.74156E-07 1.01610E-14
2.97478E-07 8.68567E-15
3.21752E-07 7.46889E-15
3.46978E-07 6.45821E-15
3.73156E-07 5.61308E-15
4.00286E-07 4.90202E-15
4.28368E-07 4.30027E-15
4.57402E-07 3.78823E-15
4.87388E-07 3.35031E-15
5.18325E-07 2.97398E-15
5.50215E-07 2.64908E-15
5.83057E-07 2.36741E-15
6.16850E-07 2.12217E-15
6.51596E-07 1.90790E-15
6.87293E-07 1.72001E-15
7.23942E-07 1.55469E-15
7.61543E-07 1.40875E-15
1.18991E-06 5.89001E-16
1.71347E-06 2.87683E-16
2.33223E-06 1.56629E-16
3.04617E-06 9.24011E-17
3.85531E-06 5.79772E-17
4.75964E-06 3.81968E-17
5.75916E-06 2.61800E-17
6.85388E-06 1.85400E-17
8.04378E-06 1.34950E-17
9.32888E-06 1.00555E-17
1.07092E-05 7.64536E-18
1.21846E-05 5.91600E-18
1.37553E-05 4.64914E-18
1.54212E-05 3.70397E-18
1.71822E-05 2.98724E-18
1.90385E-05 2.43427E-18
2.09899E-05 2.00618E-18
2.30365E-05 1.66786E-18
2.51783E-05 1.39749E-18
2.74153E-05 1.17941E-18
2.97475E-05 1.00210E-18
3.21749E-05 8.56880E-19
3.46974E-05 7.37121E-19
3.73152E-05 6.37670E-19
4.00281E-05 5.54513E-19
4.28362E-05 4.84512E-19
4.57395E-05 4.25216E-19
4.87380E-05 3.74699E-19
5.18317E-05 3.31444E-19
5.50205E-05 2.94238E-19
5.83045E-05 2.62105E-19
6.16838E-05 2.34244E-19
6.51582E-05 2.09997E-19
6.87277E-05 1.88816E-19
7.23925E-05 1.70244E-19
7.61524E-05 1.54250E-19
9.21439E-05 1.05568E-19
1.09658E-04 7.46836E-20
1.28695E-04 5.43316E-20
1.49255E-04 4.04742E-20
1.71338E-04 3.07756E-20
1.94942E-04 2.38222E-20
2.20070E-04 1.87311E-20
2.46720E-04 1.49339E-20
2.74892E-04 1.20549E-20
3.04586E-04 9.83944E-21
3.35803E-04 8.11206E-21
3.68542E-04 6.74890E-21
4.02802E-04 5.66141E-21
4.38585E-04 4.78520E-21
4.75889E-04 4.07271E-21
5.14715E-04 3.48855E-21
5.55063E-04 3.00582E-21
5.96931E-04 2.60410E-21
6.40321E-04 2.26758E-21
6.85233E-04 1.98395E-21
7.31665E-04 1.74329E-21
7.79618E-04 1.53813E-21
8.29092E-04 1.36237E-21
8.80086E-04 1.21106E-21
9.32601E-04 1.08023E-21
9.86636E-04 9.66625E-22
1.04219E-03 8.67584E-22
1.09927E-03 7.80920E-22
1.15786E-03 7.04812E-22
1.21797E-03 6.37752E-22
1.27961E-03 5.78474E-22
1.34276E-03 5.25915E-22
1.40743E-03 4.79181E-22
1.47362E-03 4.37509E-22
1.54133E-03 4.00255E-22
1.61056E-03 3.66866E-22
1.68131E-03 3.36871E-22
1.75357E-03 3.09862E-22
1.82735E-03 2.85488E-22
1.90265E-03 2.63447E-22
1.97947E-03 2.43475E-22
2.05780E-03 2.25343E-22
2.13765E-03 2.08851E-22
2.21902E-03 1.93824E-22
2.30190E-03 1.80108E-22
2.38630E-03 1.67569E-22
2.47222E-03 1.56086E-22
2.55965E-03 1.45556E-22
2.64859E-03 1.35885E-22
2.73905E-03 1.26990E-22
2.83103E-03 1.18797E-22
2.92452E-03 1.11242E-22
3.01952E-03 1.04266E-22
3.11604E-03 9.78164E-23
3.21407E-03 9.18463E-23
3.31362E-03 8.63138E-23
3.41468E-03 8.11812E-23
3.51725E-03 7.64142E-23
3.62133E-03 7.19824E-23
3.72692E-03 6.78579E-23
3.83403E-03 6.40157E-23
3.94265E-03 6.04330E-23
4.05278E-03 5.70892E-23
4.16442E-03 5.39656E-23
4.27757E-03 5.10451E-23
4.39223E-03 4.83123E-23
4.50840E-03 4.57530E-23
4.62608E-03 4.33542E-23
4.74527E-03 4.11041E-23
4.86597E-03 3.89920E-23
4.98817E-03 3.70079E-23
5.11188E-03 3.51427E-23
5.23711E-03 3.33881E-23
5.36383E-03 3.17365E-23
5.49207E-03 3.01807E-23
5.62181E-03 2.87142E-23
5.75306E-03 2.73312E-23
5.88581E-03 2.60259E-23
6.02007E-03 2.47934E-23
6.15583E-03 2.36289E-23
6.29310E-03 2.25281E-23
6.43187E-03 2.14868E-23
6.57214E-03 2.05014E-23
6.71392E-03 1.95683E-23
6.85720E-03 1.86844E-23
7.00198E-03 1.78466E-23
7.14827E-03 1.70521E-23
7.29605E-03 1.62984E-23
7.44534E-03 1.55830E-23
7.59612E-03 1.49036E-23
7.97965E-03 1.33496E-23
8.37255E-03 1.19791E-23
8.77480E-03 1.07674E-23
9.18641E-03 9.69352E-24
9.60736E-03 8.73975E-24
1.00376E-02 7.89085E-24
1.04773E-02 7.13380E-24
1.09262E-02 6.45738E-24
1.13844E-02 5.85193E-24
1.18520E-02 5.30909E-24
1.23288E-02 4.82161E-24
1.28150E-02 4.38317E-24
1.33104E-02 3.98828E-24
1.38150E-02 3.63213E-24
1.43290E-02 3.31049E-24
1.48521E-02 3.01966E-24
1.53845E-02 2.75639E-24
1.59262E-02 2.51780E-24
1.64770E-02 2.30134E-24
1.70371E-02 2.10478E-24
1.76063E-02 1.92610E-24
1.81848E-02 1.76355E-24
1.87724E-02 1.61552E-24
1.93692E-02 1.48063E-24
1.99751E-02 1.35760E-24
2.05901E-02 1.24531E-24
2.12143E-02 1.14276E-24
2.18476E-02 1.04903E-24
2.24900E-02 9.63325E-25
2.31415E-02 8.84899E-25
2.38021E-02 8.13100E-25
2.44717E-02 7.47331E-25
2.51504E-02 6.87058E-25
2.58382E-02 6.31795E-25
2.65349E-02 5.81104E-25
2.72407E-02 5.34587E-25
2.79555E-02 4.91886E-25
2.86793E-02 4.52672E-25
2.94120E-02 4.16649E-25
3.01537E-02 3.83547E-25
3.09043E-02 3.53120E-25
3.16639E-02 3.25145E-25
3.24324E-02 2.99418E-25
3.32098E-02 2.75753E-25
3.39961E-02 2.53980E-25
3.47912E-02 2.33944E-25
3.55952E-02 2.15504E-25
3.64081E-02 1.98529E-25
3.72297E-02 1.82902E-25
3.80602E-02 1.68513E-25
3.88995E-02 1.55263E-25
3.97476E-02 1.43061E-25
4.06044E-02 1.31823E-25
4.14700E-02 1.21473E-25
4.23443E-02 1.11939E-25
4.32273E-02 1.03158E-25
4.41190E-02 9.50690E-26
4.50194E-02 8.76180E-26
4.59284E-02 8.07547E-26
4.68461E-02 7.44327E-26
4.87074E-02 6.32460E-26
5.06030E-02 5.37564E-26
5.25328E-02 4.57081E-26
5.44967E-02 3.88840E-26
5.64946E-02 3.30997E-26
5.85262E-02 2.81983E-26
6.05914E-02 2.40465E-26
6.26901E-02 2.05308E-26
6.48222E-02 1.75546E-26
6.69873E-02 1.50358E-26
6.91854E-02 1.29044E-26
7.14163E-02 1.11009E-26
7.36799E-02 9.57485E-27
7.59760E-02 8.28314E-27
7.83043E-02 7.18928E-27
8.06647E-02 6.26226E-27
8.30571E-02 5.47582E-27
8.54812E-02 4.80768E-27
8.79369E-02 4.23901E-27
9.04240E-02 3.75391E-27
9.29422E-02 3.33894E-27
9.54915E-02 2.98281E-27
9.80716E-02 2.67600E-27
1.00682E-01 2.41053E-27
1.03323E-01 2.17973E-27
1.05995E-01 1.97800E-27
1.08696E-01 1.80069E-27
1.11427E-01 1.64392E-27
1.14188E-01 1.50447E-27
1.16978E-01 1.37967E-27
1.19797E-01 1.26733E-27
1.22645E-01 1.16562E-27
1.25522E-01 1.07304E-27
1.28428E-01 9.88367E-28
1.31361E-01 9.10590E-28
1.34323E-01 8.38878E-28
1.37313E-01 7.72552E-28
1.40330E-01 7.11051E-28
1.43375E-01 6.53914E-28
1.46447E-01 6.00757E-28
1.49545E-01 5.51261E-28
1.52671E-01 5.05155E-28
1.55823E-01 4.62209E-28
1.59001E-01 4.22224E-28
1.62205E-01 3.85025E-28
1.65435E-01 3.50456E-28
1.68690E-01 3.18373E-28
1.71970E-01 2.88645E-28
1.75276E-01 2.61149E-28
1.78606E-01 2.35767E-28
1.81961E-01 2.12387E-28
1.85340E-01 1.90900E-28
1.88743E-01 1.71201E-28
1.92169E-01 1.53187E-28
1.95619E-01 1.36757E-28
1.99092E-01 1.21813E-28
2.02589E-01 1.08261E-28
2.06107E-01 9.60056E-29
2.09649E-01 8.49581E-29
2.13212E-01 7.50307E-29
2.16797E-01 6.61387E-29
2.20404E-01 5.82010E-29
2.24032E-01 5.11399E-29
2.27680E-01 4.48810E-29
2.31350E-01 3.93536E-29
2.35040E-01 3.44910E-29
2.38751E-01 3.02299E-29
2.42481E-01 2.65111E-29
2.46231E-01 2.32792E-29
2.50000E-01 2.04823E-29
2.53788E-01 1.80727E-29
2.57595E-01 1.60059E-29
2.61421E-01 1.42412E-29
2.65264E-01 1.27413E-29
2.69126E-01 1.14721E-29
2.73005E-01 1.04028E-29
2.76901E-01 9.50540E-30
2.80814E-01 8.75489E-30
2.84744E-01 8.12886E-30
2.88691E-01 7.60737E-30
2.92653E-01 7.17283E-30
2.96632E-01 6.80979E-30
3.00625E-01 6.50475E-30
3.04634E-01 6.24604E-30
3.08658E-01 6.02366E-30
3.12697E-01 5.82907E-30
3.16749E-01 5.65510E-30
3.20816E-01 5.49579E-30
3.24896E-01 5.34626E-30
3.28990E-01 5.20255E-30
3.33097E-01 5.06158E-30
3.37216E-01 4.92098E-30
3.41348E-01 4.77901E-30
3.45492E-01 4.63446E-30
3.49647E-01 4.48659E-30
3.53814E-01 4.33503E-30
3.57992E-01 4.17973E-30
3.62181E-01 4.02089E-30
3.66381E-01 3.85890E-30
3.70590E-01 3.69431E-30
3.74810E-01 3.52778E-30
3.79039E-01 3.36002E-30
3.83277E-01 3.19183E-30
3.87524E-01 3.02397E-30
3.91780E-01 2.85725E-30
3.96044E-01 2.69240E-30
4.00316E-01 2.53017E-30
4.04596E-01 2.37122E-30
4.08882E-01 2.21617E-30
4.13176E-01 2.06558E-30
4.17476E-01 1.91993E-30
4.21783E-01 1.77964E-30
4.26095E-01 1.64506E-30
4.30413E-01 1.51647E-30
4.34737E-01 1.39409E-30
4.39065E-01 1.27807E-30
4.43398E-01 1.16850E-30
4.47736E-01 1.06542E-30
4.52077E-01 9.68803E-31
4.56422E-01 8.78599E-31
4.60770E-01 7.94697E-31
4.65122E-01 7.16955E-31
4.69476E-01 6.45201E-31
4.73832E-01 5.79230E-31
4.78190E-01 5.18819E-31
4.82550E-01 4.63723E-31
4.86912E-01 4.13683E-31
4.91274E-01 3.68430E-31
4.95637E-01 3.27687E-31
5.00000E-01 2.91173E-31
5.04363E-01 2.58606E-31
5.08726E-01 2.29705E-31
5.13088E-01 2.04193E-31
5.17450E-01 1.81799E-31
5.21810E-01 1.62261E-31
5.26168E-01 1.45322E-31
5.30524E-01 1.30739E-31
5.34878E-01 1.18278E-31
5.39230E-01 1.07718E-31
5.43578E-01 9.88515E-32
5.47923E-01 9.14812E-32
5.52264E-01 8.54249E-32
5.56602E-01 8.05128E-32
5.60935E-01 7.65881E-32
5.65263E-01 7.35071E-32
5.69587E-01 7.11383E-32
5.73905E-01 6.93626E-32
5.78217E-01 6.80724E-32
5.82524E-01 6.71713E-32
5.86824E-01 6.65736E-32
5.91118E-01 6.62036E-32
5.95404E-01 6.59948E-32
5.99684E-01 6.58898E-32
6.03956E-01 6.58392E-32
6.08220E-01 6.58012E-32
6.12476E-01 6.57408E-32
6.16723E-01 6.56293E-32
6.20961E-01 6.54439E-32
6.25190E-01 6.51668E-32
6.29410E-01 6.47847E-32
6.33619E-01 6.42884E-32
6.37819E-01 6.36725E-32
6.42008E-01 6.29344E-32
6.46186E-01 6.20744E-32
6.50353E-01 6.10951E-32
6.54508E-01 6.00007E-32
6.58652E-01 5.87974E-32
6.62784E-01 5.74924E-32
6.66903E-01 5.60939E-32
6.71010E-01 5.46110E-32
6.75104E-01 5.30532E-32
6.79184E-01 5.14302E-32
6.83251E-01 4.97520E-32
6.87303E-01 4.80286E-32
6.91342E-01 4.62698E-32
6.95366E-01 4.44851E-32
6.99375E-01 4.26837E-32
7.03368E-01 4.08743E-32
7.07347E-01 3.90654E-32
7.11309E-01 3.72646E-32
7.15256E-01 3.54792E-32
7.19186E-01 3.37158E-32
7.23099E-01 3.19804E-32
7.26995E-01 3.02785E-32
7.30874E-01 2.86148E-32
7.34736E-01 2.69937E-32
7.38579E-01 2.54187E-32
7.42405E-01 2.38931E-32
7.46212E-01 2.24193E-32
7.50000E-01 2.09995E-32
7.53769E-01 1.96354E-32
7.57519E-01 1.83279E-32
7.61249E-01 1.70779E-32
7.64960E-01 1.58858E-32
7.68650E-01 1.47516E-32
7.72320E-01 1.36749E-32
7.75968E-01 1.26552E-32
7.79596E-01 1.16916E-32
7.83203E-01 1.07831E-32
7.86788E-01 9.92831E-33
7.90351E-01 9.12591E-33
7.93893E-01 8.37426E-33
7.97411E-01 7.67168E-33
8.00908E-01 7.01635E-33
8.04381E-01 6.40640E-33
8.07831E-01 5.83989E-33
8.11257E-01 5.31487E-33
8.14660E-01 4.82932E-33
8.18039E-01 4.38126E-33
8.21394E-01 3.96868E-33
8.24724E-01 3.58961E-33
8.28030E-01 3.24210E-33
8.31310E-01 2.92424E-33
8.34565E-01 2.63417E-33
8.37795E-01 2.37007E-33
8.40999E-01 2.13018E-33
8.44177E-01 1.91281E-33
8.47329E-01 1.71633E-33
8.50455E-01 1.53918E-33
8.53553E-01 1.37988E-33
8.56625E-01 1.23701E-33
8.59670E-01 1.10922E-33
8.62687E-01 9.95246E-34
8.65677E-01 8.93886E-34
8.68639E-01 8.04015E-34
8.71572E-01 7.24575E-34
8.74478E-01 6.54579E-34
8.77355E-01 5.93105E-34
8.80203E-01 5.39298E-34
8.83022E-01 4.92363E-34
8.85812E-01 4.51565E-34
8.88573E-01 4.16229E-34
8.91304E-01 3.85732E-34
8.94005E-01 3.59504E-34
8.96677E-01 3.37024E-34
8.99318E-01 3.17819E-34
9.01928E-01 3.01457E-34
9.04508E-01 2.87549E-34
9.07058E-01 2.75744E-34
9.09576E-01 2.65727E-34
9.12063E-01 2.57217E-34
9.14519E-01 2.49961E-34
9.16943E-01 2.43737E-34
9.19335E-01 2.38350E-34
9.21696E-01 2.33627E-34
9.24024E-01 2.29418E-34
9.26320E-01 2.25593E-34
9.28584E-01 2.22040E-34
9.30815E-01 2.18666E-34
9.33013E-01 2.15390E-34
9.35178E-01 2.12145E-34
9.37310E-01 2.08877E-34
9.39409E-01 2.05543E-34
9.41474E-01 2.02107E-34
9.43505E-01 1.98546E-34
9.45503E-01 1.94839E-34
9.47467E-01 1.90975E-34
9.49397E-01 1.86947E-34
9.51293E-01 1.82755E-34
9.53154E-01 1.78400E-34
9.54981E-01 1.73888E-34
9.56773E-01 1.69227E-34
9.58530E-01 1.64427E-34
9.60252E-01 1.59504E-34
9.61940E-01 1.54468E-34
9.63592E-01 1.49336E-34
9.65209E-01 1.44123E-34
9.66790E-01 1.38845E-34
9.68336E-01 1.33519E-34
9.69846E-01 1.28160E-34
9.71321E-01 1.22786E-34
9.72759E-01 1.17411E-34
9.74162E-01 1.12050E-34
9.75528E-01 1.06719E-34
9.76858E-01 1.01430E-34
9.78152E-01 9.61972E-35
9.79410E-01 9.10329E-35
9.80631E-01 8.59494E-35
9.81815E-01 8.09563E-35
9.82963E-01 7.60645E-35
9.84074E-01 7.12826E-35
9.85148E-01 6.66192E-35
9.86185E-01 6.20822E-35
9.87185E-01 5.76783E-35
9.88148E-01 5.34133E-35
9.89074E-01 4.92933E-35
9.89962E-01 4.53226E-35
9.90814E-01 4.15060E-35
9.91627E-01 3.78467E-35
9.92404E-01 3.43478E-35
9.93143E-01 3.10123E-35
9.93844E-01 2.78423E-35
9.94508E-01 2.48397E-35
9.95134E-01 2.20059E-35
9.95722E-01 1.93421E-35
9.96273E-01 1.68492E-35
9.96786E-01 1.45278E-35
9.97261E-01 1.23782E-35
9.97698E-01 1.04011E-35
9.98097E-01 8.59652E-36
9.98459E-01 6.96409E-36
9.98782E-01 5.50445E-36
9.99067E-01 4.21674E-36
9.99315E-01 3.10146E-36
9.99524E-01 2.15806E-36
9.99695E-01 1.38647E-36
9.99829E-01 7.86508E-37
9.99924E-01 3.58106E-37
9.99981E-01 1.01050E-37
1.00000E+00 1.54483E-38
