 #
 # Subroutine ELSEPA. Elastic scattering of electrons and positrons
 #                    by neutral atoms and positive ions
 #
 # Projectile: electron
 # Kinetic energy = 1.50000E+08 eV = 5.51240E+06 a.u.
 #
 # WARNING: High-energy factorization with free-atom DF screening.
 #          Absorption, polarization and exchange corrections are
 #          switched off.
 #          Phase shifts are calculated for the bare nucleus.
 #          Scattering amplitudes are not evaluated.
 #
 # Element: Bi,  Z =  83,  atomic weight = 2.08980E+02 g/mol
 #
 # Nuclear model: Fermi distribution
 #                Average radius = 6.34969E-13 cm
 #                Skin thickness = 5.46000E-14 cm
 #
 # Number of electrons = 83
 #
 # Total elastic cross section = 8.88819E-18 cm**2 = 3.17403E-01 a0**2
 # 1st transport cross section = 5.75173E-25 cm**2 = 2.05398E-08 a0**2
 # 2nd transport cross section = 1.71882E-24 cm**2 = 6.13800E-08 a0**2
 #
 #
 # Differential cross section:                       MU=(1-COS(THETA))/2
 #
 #  THETA        MU          DCS          DCS        Sherman      error
 #  (deg)                 (cm**2/sr)   (a0**2/sr)    function
 #----------------------------------------------------------------------
0.00000E+00 1.45440E-09
7.61557E-13 1.44689E-09
1.18994E-12 1.44270E-09
1.71346E-12 1.43761E-09
2.33225E-12 1.43163E-09
3.04617E-12 1.42479E-09
3.85530E-12 1.41710E-09
4.75964E-12 1.40860E-09
5.75917E-12 1.39930E-09
6.85391E-12 1.38923E-09
8.04379E-12 1.37842E-09
9.32893E-12 1.36692E-09
1.07092E-11 1.35469E-09
1.21847E-11 1.34179E-09
1.37554E-11 1.32838E-09
1.54213E-11 1.31450E-09
1.71823E-11 1.29990E-09
1.90386E-11 1.28484E-09
2.09900E-11 1.26944E-09
2.30367E-11 1.25370E-09
2.51785E-11 1.23729E-09
2.74156E-11 1.22068E-09
2.97478E-11 1.20392E-09
3.21752E-11 1.18677E-09
3.46979E-11 1.16926E-09
3.73157E-11 1.15171E-09
4.00286E-11 1.13415E-09
4.28368E-11 1.11614E-09
4.57402E-11 1.09809E-09
4.87388E-11 1.08014E-09
5.18325E-11 1.06220E-09
5.50215E-11 1.04392E-09
5.83057E-11 1.02583E-09
6.16850E-11 1.00794E-09
6.51595E-11 9.89947E-10
6.87293E-11 9.71924E-10
7.23943E-11 9.54177E-10
7.61544E-11 9.36720E-10
1.18991E-10 7.69883E-10
1.71347E-10 6.27247E-10
2.33223E-10 5.10773E-10
3.04617E-10 4.17790E-10
3.85531E-10 3.44120E-10
4.75965E-10 2.85840E-10
5.75917E-10 2.39457E-10
6.85389E-10 2.02197E-10
8.04380E-10 1.71959E-10
9.32891E-10 1.47217E-10
1.07092E-09 1.26119E-10
1.21847E-09 1.08436E-10
1.37554E-09 9.44170E-11
1.54213E-09 8.31597E-11
1.71823E-09 7.26766E-11
1.90386E-09 6.37971E-11
2.09900E-09 5.65135E-11
2.30367E-09 5.03750E-11
2.51785E-09 4.45914E-11
2.74156E-09 3.97592E-11
2.97478E-09 3.56903E-11
3.21752E-09 3.20608E-11
3.46978E-09 2.87958E-11
3.73156E-09 2.60060E-11
4.00286E-09 2.36077E-11
4.28368E-09 2.13900E-11
4.57402E-09 1.94429E-11
4.87388E-09 1.77489E-11
5.18326E-09 1.62499E-11
5.50215E-09 1.48621E-11
5.83057E-09 1.36421E-11
6.16850E-09 1.25652E-11
6.51596E-09 1.15808E-11
6.87293E-09 1.06831E-11
7.23942E-09 9.88387E-12
7.61544E-09 9.17008E-12
1.18991E-08 4.58775E-12
1.71347E-08 2.52862E-12
2.33223E-08 1.49505E-12
3.04617E-08 9.36527E-13
3.85531E-08 6.17480E-13
4.75965E-08 4.24801E-13
5.75917E-08 3.02174E-13
6.85389E-08 2.21056E-13
8.04380E-08 1.65571E-13
9.32891E-08 1.26480E-13
1.07092E-07 9.82104E-14
1.21847E-07 7.75346E-14
1.37554E-07 6.19616E-14
1.54213E-07 5.01468E-14
1.71823E-07 4.10377E-14
1.90386E-07 3.38828E-14
2.09900E-07 2.82309E-14
2.30367E-07 2.37165E-14
2.51785E-07 2.00608E-14
2.74156E-07 1.70833E-14
2.97478E-07 1.46406E-14
3.21752E-07 1.26162E-14
3.46978E-07 1.09285E-14
3.73156E-07 9.51494E-15
4.00286E-07 8.32201E-15
4.28368E-07 7.30917E-15
4.57402E-07 6.44650E-15
4.87388E-07 5.70756E-15
5.18325E-07 5.07082E-15
5.50215E-07 4.52089E-15
5.83057E-07 4.04385E-15
6.16850E-07 3.62767E-15
6.51596E-07 3.26396E-15
6.87293E-07 2.94493E-15
7.23942E-07 2.66380E-15
7.61543E-07 2.41554E-15
1.18991E-06 1.01725E-15
1.71347E-06 4.99805E-16
2.33223E-06 2.73236E-16
3.04617E-06 1.61617E-16
3.85531E-06 1.01581E-16
4.75964E-06 6.70041E-17
5.75916E-06 4.59661E-17
6.85388E-06 3.25762E-17
8.04378E-06 2.37275E-17
9.32888E-06 1.76905E-17
1.07092E-05 1.34578E-17
1.21846E-05 1.04191E-17
1.37553E-05 8.19186E-18
1.54212E-05 6.52938E-18
1.71822E-05 5.26814E-18
1.90385E-05 4.29464E-18
2.09899E-05 3.54067E-18
2.30365E-05 2.94457E-18
2.51783E-05 2.46801E-18
2.74153E-05 2.08348E-18
2.97475E-05 1.77072E-18
3.21749E-05 1.51450E-18
3.46974E-05 1.30313E-18
3.73152E-05 1.12755E-18
4.00281E-05 9.80708E-19
4.28362E-05 8.57064E-19
4.57395E-05 7.52303E-19
4.87380E-05 6.63034E-19
5.18317E-05 5.86580E-19
5.50205E-05 5.20807E-19
5.83045E-05 4.63991E-19
6.16838E-05 4.14721E-19
6.51582E-05 3.71835E-19
6.87277E-05 3.34365E-19
7.23925E-05 3.01508E-19
7.61524E-05 2.72802E-19
9.21439E-05 1.86695E-19
1.09658E-04 1.32058E-19
1.28695E-04 9.60517E-20
1.49255E-04 7.15355E-20
1.71338E-04 5.43785E-20
1.94942E-04 4.20793E-20
2.20070E-04 3.30760E-20
2.46720E-04 2.63622E-20
2.74892E-04 2.12731E-20
3.04586E-04 1.73581E-20
3.35803E-04 1.43064E-20
3.68542E-04 1.18989E-20
4.02802E-04 9.97894E-21
4.38585E-04 8.43247E-21
4.75889E-04 7.17536E-21
5.14715E-04 6.14501E-21
5.55063E-04 5.29385E-21
5.96931E-04 4.58572E-21
6.40321E-04 3.99264E-21
6.85233E-04 3.49283E-21
7.31665E-04 3.06921E-21
7.79618E-04 2.70818E-21
8.29092E-04 2.39897E-21
8.80086E-04 2.13285E-21
9.32601E-04 1.90280E-21
9.86636E-04 1.70310E-21
1.04219E-03 1.52904E-21
1.09927E-03 1.37678E-21
1.15786E-03 1.24311E-21
1.21797E-03 1.12536E-21
1.27961E-03 1.02122E-21
1.34276E-03 9.28891E-22
1.40743E-03 8.46804E-22
1.47362E-03 7.73617E-22
1.54133E-03 7.08195E-22
1.61056E-03 6.49564E-22
1.68131E-03 5.96892E-22
1.75357E-03 5.49464E-22
1.82735E-03 5.06663E-22
1.90265E-03 4.67957E-22
1.97947E-03 4.32881E-22
2.05780E-03 4.01033E-22
2.13765E-03 3.72062E-22
2.21902E-03 3.45660E-22
2.30190E-03 3.21558E-22
2.38630E-03 2.99517E-22
2.47222E-03 2.79330E-22
2.55965E-03 2.60811E-22
2.64859E-03 2.43798E-22
2.73905E-03 2.28145E-22
2.83103E-03 2.13724E-22
2.92452E-03 2.00419E-22
3.01952E-03 1.88128E-22
3.11604E-03 1.76759E-22
3.21407E-03 1.66231E-22
3.31362E-03 1.56470E-22
3.41468E-03 1.47408E-22
3.51725E-03 1.38988E-22
3.62133E-03 1.31155E-22
3.72692E-03 1.23860E-22
3.83403E-03 1.17060E-22
3.94265E-03 1.10715E-22
4.05278E-03 1.04789E-22
4.16442E-03 9.92485E-23
4.27757E-03 9.40644E-23
4.39223E-03 8.92092E-23
4.50840E-03 8.46584E-23
4.62608E-03 8.03892E-23
4.74527E-03 7.63811E-23
4.86597E-03 7.26150E-23
4.98817E-03 6.90738E-23
5.11188E-03 6.57414E-23
5.23711E-03 6.26033E-23
5.36383E-03 5.96461E-23
5.49207E-03 5.68574E-23
5.62181E-03 5.42259E-23
5.75306E-03 5.17411E-23
5.88581E-03 4.93933E-23
6.02007E-03 4.71735E-23
6.15583E-03 4.50736E-23
6.29310E-03 4.30859E-23
6.43187E-03 4.12032E-23
6.57214E-03 3.94191E-23
6.71392E-03 3.77274E-23
6.85720E-03 3.61225E-23
7.00198E-03 3.45991E-23
7.14827E-03 3.31524E-23
7.29605E-03 3.17778E-23
7.44534E-03 3.04710E-23
7.59612E-03 2.92282E-23
7.97965E-03 2.63771E-23
8.37255E-03 2.38519E-23
8.77480E-03 2.16095E-23
9.18641E-03 1.96130E-23
9.60736E-03 1.78311E-23
1.00376E-02 1.62372E-23
1.04773E-02 1.48084E-23
1.09262E-02 1.35248E-23
1.13844E-02 1.23694E-23
1.18520E-02 1.13274E-23
1.23288E-02 1.03861E-23
1.28150E-02 9.53426E-24
1.33104E-02 8.76209E-24
1.38150E-02 8.06105E-24
1.43290E-02 7.42365E-24
1.48521E-02 6.84327E-24
1.53845E-02 6.31410E-24
1.59262E-02 5.83098E-24
1.64770E-02 5.38936E-24
1.70371E-02 4.98518E-24
1.76063E-02 4.61484E-24
1.81848E-02 4.27514E-24
1.87724E-02 3.96321E-24
1.93692E-02 3.67650E-24
1.99751E-02 3.41269E-24
2.05901E-02 3.16975E-24
2.12143E-02 2.94581E-24
2.18476E-02 2.73922E-24
2.24900E-02 2.54847E-24
2.31415E-02 2.37220E-24
2.38021E-02 2.20920E-24
2.44717E-02 2.05835E-24
2.51504E-02 1.91866E-24
2.58382E-02 1.78920E-24
2.65349E-02 1.66915E-24
2.72407E-02 1.55775E-24
2.79555E-02 1.45433E-24
2.86793E-02 1.35825E-24
2.94120E-02 1.26894E-24
3.01537E-02 1.18589E-24
3.09043E-02 1.10861E-24
3.16639E-02 1.03667E-24
3.24324E-02 9.69663E-25
3.32098E-02 9.07230E-25
3.39961E-02 8.49029E-25
3.47912E-02 7.94753E-25
3.55952E-02 7.44116E-25
3.64081E-02 6.96856E-25
3.72297E-02 6.52731E-25
3.80602E-02 6.11520E-25
3.88995E-02 5.73016E-25
3.97476E-02 5.37031E-25
4.06044E-02 5.03389E-25
4.14700E-02 4.71929E-25
4.23443E-02 4.42500E-25
4.32273E-02 4.14964E-25
4.41190E-02 3.89193E-25
4.50194E-02 3.65068E-25
4.59284E-02 3.42479E-25
4.68461E-02 3.21322E-25
4.87074E-02 2.82934E-25
5.06030E-02 2.49223E-25
5.25328E-02 2.19598E-25
5.44967E-02 1.93547E-25
5.64946E-02 1.70627E-25
5.85262E-02 1.50453E-25
6.05914E-02 1.32687E-25
6.26901E-02 1.17038E-25
6.48222E-02 1.03248E-25
6.69873E-02 9.10942E-26
6.91854E-02 8.03805E-26
7.14163E-02 7.09349E-26
7.36799E-02 6.26066E-26
7.59760E-02 5.52631E-26
7.83043E-02 4.87879E-26
8.06647E-02 4.30785E-26
8.30571E-02 3.80446E-26
8.54812E-02 3.36067E-26
8.79369E-02 2.96947E-26
9.04240E-02 2.62468E-26
9.29422E-02 2.32083E-26
9.54915E-02 2.05310E-26
9.80716E-02 1.81725E-26
1.00682E-01 1.60950E-26
1.03323E-01 1.42655E-26
1.05995E-01 1.26545E-26
1.08696E-01 1.12361E-26
1.11427E-01 9.98746E-27
1.14188E-01 8.88828E-27
1.16978E-01 7.92069E-27
1.19797E-01 7.06888E-27
1.22645E-01 6.31892E-27
1.25522E-01 5.65850E-27
1.28428E-01 5.07674E-27
1.31361E-01 4.56407E-27
1.34323E-01 4.11203E-27
1.37313E-01 3.71318E-27
1.40330E-01 3.36097E-27
1.43375E-01 3.04963E-27
1.46447E-01 2.77408E-27
1.49545E-01 2.52986E-27
1.52671E-01 2.31307E-27
1.55823E-01 2.12027E-27
1.59001E-01 1.94845E-27
1.62205E-01 1.79497E-27
1.65435E-01 1.65754E-27
1.68690E-01 1.53414E-27
1.71970E-01 1.42300E-27
1.75276E-01 1.32261E-27
1.78606E-01 1.23162E-27
1.81961E-01 1.14889E-27
1.85340E-01 1.07339E-27
1.88743E-01 1.00426E-27
1.92169E-01 9.40737E-28
1.95619E-01 8.82170E-28
1.99092E-01 8.27990E-28
2.02589E-01 7.77709E-28
2.06107E-01 7.30904E-28
2.09649E-01 6.87211E-28
2.13212E-01 6.46316E-28
2.16797E-01 6.07950E-28
2.20404E-01 5.71878E-28
2.24032E-01 5.37901E-28
2.27680E-01 5.05844E-28
2.31350E-01 4.75558E-28
2.35040E-01 4.46913E-28
2.38751E-01 4.19796E-28
2.42481E-01 3.94109E-28
2.46231E-01 3.69765E-28
2.50000E-01 3.46688E-28
2.53788E-01 3.24811E-28
2.57595E-01 3.04072E-28
2.61421E-01 2.84419E-28
2.65264E-01 2.65799E-28
2.69126E-01 2.48169E-28
2.73005E-01 2.31486E-28
2.76901E-01 2.15710E-28
2.80814E-01 2.00804E-28
2.84744E-01 1.86733E-28
2.88691E-01 1.73462E-28
2.92653E-01 1.60959E-28
2.96632E-01 1.49193E-28
3.00625E-01 1.38132E-28
3.04634E-01 1.27747E-28
3.08658E-01 1.18009E-28
3.12697E-01 1.08889E-28
3.16749E-01 1.00358E-28
3.20816E-01 9.23912E-29
3.24896E-01 8.49600E-29
3.28990E-01 7.80387E-29
3.33097E-01 7.16018E-29
3.37216E-01 6.56242E-29
3.41348E-01 6.00817E-29
3.45492E-01 5.49504E-29
3.49647E-01 5.02075E-29
3.53814E-01 4.58306E-29
3.57992E-01 4.17981E-29
3.62181E-01 3.80890E-29
3.66381E-01 3.46832E-29
3.70590E-01 3.15613E-29
3.74810E-01 2.87047E-29
3.79039E-01 2.60954E-29
3.83277E-01 2.37165E-29
3.87524E-01 2.15516E-29
3.91780E-01 1.95852E-29
3.96044E-01 1.78024E-29
4.00316E-01 1.61893E-29
4.04596E-01 1.47325E-29
4.08882E-01 1.34195E-29
4.13176E-01 1.22385E-29
4.17476E-01 1.11784E-29
4.21783E-01 1.02287E-29
4.26095E-01 9.37956E-30
4.30413E-01 8.62193E-30
4.34737E-01 7.94725E-30
4.39065E-01 7.34757E-30
4.43398E-01 6.81552E-30
4.47736E-01 6.34429E-30
4.52077E-01 5.92756E-30
4.56422E-01 5.55952E-30
4.60770E-01 5.23482E-30
4.65122E-01 4.94858E-30
4.69476E-01 4.69630E-30
4.73832E-01 4.47390E-30
4.78190E-01 4.27768E-30
4.82550E-01 4.10425E-30
4.86912E-01 3.95059E-30
4.91274E-01 3.81396E-30
4.95637E-01 3.69190E-30
5.00000E-01 3.58221E-30
5.04363E-01 3.48296E-30
5.08726E-01 3.39241E-30
5.13088E-01 3.30903E-30
5.17450E-01 3.23151E-30
5.21810E-01 3.15868E-30
5.26168E-01 3.08953E-30
5.30524E-01 3.02321E-30
5.34878E-01 2.95899E-30
5.39230E-01 2.89624E-30
5.43578E-01 2.83448E-30
5.47923E-01 2.77327E-30
5.52264E-01 2.71228E-30
5.56602E-01 2.65127E-30
5.60935E-01 2.59003E-30
5.65263E-01 2.52843E-30
5.69587E-01 2.46639E-30
5.73905E-01 2.40385E-30
5.78217E-01 2.34082E-30
5.82524E-01 2.27730E-30
5.86824E-01 2.21336E-30
5.91118E-01 2.14906E-30
5.95404E-01 2.08449E-30
5.99684E-01 2.01974E-30
6.03956E-01 1.95493E-30
6.08220E-01 1.89017E-30
6.12476E-01 1.82557E-30
6.16723E-01 1.76127E-30
6.20961E-01 1.69737E-30
6.25190E-01 1.63400E-30
6.29410E-01 1.57128E-30
6.33619E-01 1.50932E-30
6.37819E-01 1.44822E-30
6.42008E-01 1.38809E-30
6.46186E-01 1.32901E-30
6.50353E-01 1.27108E-30
6.54508E-01 1.21437E-30
6.58652E-01 1.15895E-30
6.62784E-01 1.10490E-30
6.66903E-01 1.05225E-30
6.71010E-01 1.00107E-30
6.75104E-01 9.51388E-31
6.79184E-01 9.03240E-31
6.83251E-01 8.56652E-31
6.87303E-01 8.11642E-31
6.91342E-01 7.68223E-31
6.95366E-01 7.26400E-31
6.99375E-01 6.86173E-31
7.03368E-01 6.47538E-31
7.07347E-01 6.10484E-31
7.11309E-01 5.74996E-31
7.15256E-01 5.41053E-31
7.19186E-01 5.08635E-31
7.23099E-01 4.77712E-31
7.26995E-01 4.48256E-31
7.30874E-01 4.20234E-31
7.34736E-01 3.93610E-31
7.38579E-01 3.68348E-31
7.42405E-01 3.44409E-31
7.46212E-01 3.21751E-31
7.50000E-01 3.00334E-31
7.53769E-01 2.80114E-31
7.57519E-01 2.61049E-31
7.61249E-01 2.43095E-31
7.64960E-01 2.26208E-31
7.68650E-01 2.10344E-31
7.72320E-01 1.95459E-31
7.75968E-01 1.81510E-31
7.79596E-01 1.68455E-31
7.83203E-01 1.56249E-31
7.86788E-01 1.44853E-31
7.90351E-01 1.34225E-31
7.93893E-01 1.24326E-31
7.97411E-01 1.15116E-31
8.00908E-01 1.06559E-31
8.04381E-01 9.86166E-32
8.07831E-01 9.12545E-32
8.11257E-01 8.44382E-32
8.14660E-01 7.81349E-32
8.18039E-01 7.23129E-32
8.21394E-01 6.69417E-32
8.24724E-01 6.19924E-32
8.28030E-01 5.74370E-32
8.31310E-01 5.32491E-32
8.34565E-01 4.94034E-32
8.37795E-01 4.58757E-32
8.40999E-01 4.26434E-32
8.44177E-01 3.96848E-32
8.47329E-01 3.69794E-32
8.50455E-01 3.45080E-32
8.53553E-01 3.22523E-32
8.56625E-01 3.01952E-32
8.59670E-01 2.83207E-32
8.62687E-01 2.66135E-32
8.65677E-01 2.50597E-32
8.68639E-01 2.36460E-32
8.71572E-01 2.23600E-32
8.74478E-01 2.11903E-32
8.77355E-01 2.01263E-32
8.80203E-01 1.91580E-32
8.83022E-01 1.82762E-32
8.85812E-01 1.74725E-32
8.88573E-01 1.67391E-32
8.91304E-01 1.60686E-32
8.94005E-01 1.54546E-32
8.96677E-01 1.48909E-32
8.99318E-01 1.43720E-32
9.01928E-01 1.38928E-32
9.04508E-01 1.34487E-32
9.07058E-01 1.30355E-32
9.09576E-01 1.26494E-32
9.12063E-01 1.22870E-32
9.14519E-01 1.19452E-32
9.16943E-01 1.16211E-32
9.19335E-01 1.13124E-32
9.21696E-01 1.10169E-32
9.24024E-01 1.07325E-32
9.26320E-01 1.04577E-32
9.28584E-01 1.01907E-32
9.30815E-01 9.93045E-33
9.33013E-01 9.67567E-33
9.35178E-01 9.42541E-33
9.37310E-01 9.17887E-33
9.39409E-01 8.93531E-33
9.41474E-01 8.69419E-33
9.43505E-01 8.45502E-33
9.45503E-01 8.21743E-33
9.47467E-01 7.98115E-33
9.49397E-01 7.74595E-33
9.51293E-01 7.51171E-33
9.53154E-01 7.27835E-33
9.54981E-01 7.04583E-33
9.56773E-01 6.81419E-33
9.58530E-01 6.58348E-33
9.60252E-01 6.35379E-33
9.61940E-01 6.12526E-33
9.63592E-01 5.89802E-33
9.65209E-01 5.67226E-33
9.66790E-01 5.44815E-33
9.68336E-01 5.22589E-33
9.69846E-01 5.00570E-33
9.71321E-01 4.78778E-33
9.72759E-01 4.57236E-33
9.74162E-01 4.35967E-33
9.75528E-01 4.14991E-33
9.76858E-01 3.94333E-33
9.78152E-01 3.74014E-33
9.79410E-01 3.54055E-33
9.80631E-01 3.34478E-33
9.81815E-01 3.15304E-33
9.82963E-01 2.96552E-33
9.84074E-01 2.78243E-33
9.85148E-01 2.60395E-33
9.86185E-01 2.43026E-33
9.87185E-01 2.26153E-33
9.88148E-01 2.09793E-33
9.89074E-01 1.93961E-33
9.89962E-01 1.78673E-33
9.90814E-01 1.63941E-33
9.91627E-01 1.49780E-33
9.92404E-01 1.36203E-33
9.93143E-01 1.23219E-33
9.93844E-01 1.10841E-33
9.94508E-01 9.90791E-34
9.95134E-01 8.79420E-34
9.95722E-01 7.74390E-34
9.96273E-01 6.75779E-34
9.96786E-01 5.83664E-34
9.97261E-01 4.98114E-34
9.97698E-01 4.19187E-34
9.98097E-01 3.46943E-34
9.98459E-01 2.81433E-34
9.98782E-01 2.22699E-34
9.99067E-01 1.70785E-34
9.99315E-01 1.25722E-34
9.99524E-01 8.75423E-35
9.99695E-01 5.62707E-35
9.99829E-01 3.19277E-35
9.99924E-01 1.45283E-35
9.99981E-01 4.08466E-36
1.00000E+00 6.02292E-37
