 #
 # Subroutine ELSEPA. Elastic scattering of electrons and positrons
 #                    by neutral atoms and positive ions
 #
 # Projectile: electron
 # Kinetic energy = 6.00000E+08 eV = 2.20496E+07 a.u.
 #
 # WARNING: High-energy factorization with free-atom DF screening.
 #          Absorption, polarization and exchange corrections are
 #          switched off.
 #          Phase shifts are calculated for the bare nucleus.
 #          Scattering amplitudes are not evaluated.
 #
 # Element: Bi,  Z =  83,  atomic weight = 2.08980E+02 g/mol
 #
 # Nuclear model: Fermi distribution
 #                Average radius = 6.34969E-13 cm
 #                Skin thickness = 5.46000E-14 cm
 #
 # Number of electrons = 83
 #
 # Total elastic cross section = 8.87717E-18 cm**2 = 3.17009E-01 a0**2
 # 1st transport cross section = 3.57835E-26 cm**2 = 1.27785E-09 a0**2
 # 2nd transport cross section = 1.07322E-25 cm**2 = 3.83253E-09 a0**2
 #
 #
 # Differential cross section:                       MU=(1-COS(THETA))/2
 #
 #  THETA        MU          DCS          DCS        Sherman      error
 #  (deg)                 (cm**2/sr)   (a0**2/sr)    function
 #----------------------------------------------------------------------
0.00000E+00 2.31521E-08
7.61557E-13 2.13679E-08
1.18994E-12 2.04651E-08
1.71346E-12 1.94478E-08
2.33225E-12 1.83534E-08
3.04617E-12 1.72174E-08
3.85530E-12 1.60709E-08
4.75964E-12 1.49393E-08
5.75917E-12 1.38412E-08
6.85391E-12 1.27910E-08
8.04379E-12 1.18003E-08
9.32893E-12 1.08746E-08
1.07092E-11 1.00163E-08
1.21847E-11 9.22521E-09
1.37554E-11 8.49922E-09
1.54213E-11 7.83519E-09
1.71823E-11 7.22924E-09
1.90386E-11 6.67706E-09
2.09900E-11 6.17430E-09
2.30367E-11 5.71585E-09
2.51785E-11 5.29831E-09
2.74156E-11 4.91797E-09
2.97478E-11 4.57118E-09
3.21752E-11 4.25464E-09
3.46979E-11 3.96530E-09
3.73157E-11 3.70047E-09
4.00286E-11 3.45769E-09
4.28368E-11 3.23479E-09
4.57402E-11 3.02982E-09
4.87388E-11 2.84095E-09
5.18325E-11 2.66648E-09
5.50215E-11 2.50532E-09
5.83057E-11 2.35623E-09
6.16850E-11 2.21812E-09
6.51595E-11 2.08510E-09
6.87293E-11 1.95747E-09
7.23943E-11 1.84165E-09
7.61544E-11 1.73631E-09
1.18991E-10 1.02205E-09
1.71347E-10 6.37206E-10
2.33223E-10 4.16903E-10
3.04617E-10 2.84583E-10
3.85531E-10 2.01493E-10
4.75965E-10 1.47065E-10
5.75917E-10 1.09960E-10
6.85389E-10 8.38175E-11
8.04380E-10 6.49504E-11
9.32891E-10 5.10355E-11
1.07092E-09 4.05941E-11
1.21847E-09 3.26481E-11
1.37554E-09 2.65285E-11
1.54213E-09 2.17746E-11
1.71823E-09 1.80210E-11
1.90386E-09 1.50404E-11
2.09900E-09 1.26597E-11
2.30367E-09 1.07391E-11
2.51785E-09 9.17502E-12
2.74156E-09 7.88921E-12
2.97478E-09 6.82295E-12
3.21752E-09 5.93211E-12
3.46978E-09 5.18305E-12
3.73156E-09 4.54959E-12
4.00286E-09 4.01099E-12
4.28368E-09 3.55061E-12
4.57402E-09 3.15500E-12
4.87388E-09 2.81327E-12
5.18326E-09 2.51657E-12
5.50215E-09 2.25799E-12
5.83057E-09 2.03179E-12
6.16850E-09 1.83323E-12
6.51596E-09 1.65782E-12
6.87293E-09 1.50271E-12
7.23942E-09 1.36614E-12
7.61544E-09 1.24547E-12
1.18991E-08 5.44351E-13
1.71347E-08 2.74481E-13
2.33223E-08 1.52887E-13
3.04617E-08 9.17058E-14
3.85531E-08 5.82873E-14
4.75965E-08 3.88108E-14
5.75917E-08 2.68403E-14
6.85389E-08 1.91520E-14
8.04380E-08 1.40304E-14
9.32891E-08 1.05116E-14
1.07092E-07 8.02914E-15
1.21847E-07 6.23719E-15
1.37554E-07 4.91780E-15
1.54213E-07 3.92916E-15
1.71823E-07 3.17666E-15
1.90386E-07 2.59576E-15
2.09900E-07 2.14168E-15
2.30367E-07 1.78263E-15
2.51785E-07 1.49574E-15
2.74156E-07 1.26428E-15
2.97478E-07 1.07591E-15
3.21752E-07 9.21350E-16
3.46978E-07 7.93577E-16
3.73156E-07 6.87208E-16
4.00286E-07 5.98083E-16
4.28368E-07 5.22954E-16
4.57402E-07 4.59263E-16
4.87388E-07 4.04983E-16
5.18325E-07 3.58493E-16
5.50215E-07 3.18489E-16
5.83057E-07 2.83915E-16
6.16850E-07 2.53908E-16
6.51596E-07 2.27763E-16
6.87293E-07 2.04901E-16
7.23942E-07 1.84837E-16
7.61543E-07 1.67171E-16
1.18991E-06 6.89119E-17
1.71347E-06 3.33739E-17
2.33223E-06 1.80673E-17
3.04617E-06 1.06132E-17
3.85531E-06 6.63625E-18
4.75964E-06 4.35938E-18
5.75916E-06 2.98043E-18
6.85388E-06 2.10606E-18
8.04378E-06 1.53008E-18
9.32888E-06 1.13821E-18
1.07092E-05 8.64147E-19
1.21846E-05 6.67829E-19
1.37553E-05 5.24231E-19
1.54212E-05 4.17240E-19
1.71822E-05 3.36207E-19
1.90385E-05 2.73757E-19
2.09899E-05 2.25458E-19
2.30365E-05 1.87320E-19
2.51783E-05 1.56868E-19
2.74153E-05 1.32322E-19
2.97475E-05 1.12377E-19
3.21749E-05 9.60533E-20
3.46974E-05 8.25983E-20
3.73152E-05 7.14304E-20
4.00281E-05 6.20963E-20
4.28362E-05 5.42424E-20
4.57395E-05 4.75919E-20
4.87380E-05 4.19282E-20
5.18317E-05 3.70801E-20
5.50205E-05 3.29114E-20
5.83045E-05 2.93121E-20
6.16838E-05 2.61922E-20
6.51582E-05 2.34777E-20
6.87277E-05 2.11071E-20
7.23925E-05 1.90293E-20
7.61524E-05 1.75662E-20
9.21439E-05 1.20368E-20
1.09658E-04 8.52237E-21
1.28695E-04 6.20197E-21
1.49255E-04 4.61905E-21
1.71338E-04 3.50925E-21
1.94942E-04 2.71230E-21
2.20070E-04 2.12801E-21
2.46720E-04 1.69174E-21
2.74892E-04 1.36069E-21
3.04586E-04 1.10583E-21
3.35803E-04 9.07092E-22
3.68542E-04 7.50300E-22
4.02802E-04 6.25300E-22
4.38585E-04 5.24693E-22
4.75889E-04 4.43008E-22
5.14715E-04 3.76163E-22
5.55063E-04 3.21057E-22
5.96931E-04 2.75327E-22
6.40321E-04 2.37141E-22
6.85233E-04 2.05072E-22
7.31665E-04 1.77999E-22
7.79618E-04 1.55028E-22
8.29092E-04 1.35452E-22
8.80086E-04 1.18696E-22
9.32601E-04 1.04297E-22
9.86636E-04 9.18782E-23
1.04219E-03 8.11295E-23
1.09927E-03 7.17967E-23
1.15786E-03 6.36680E-23
1.21797E-03 5.65683E-23
1.27961E-03 5.03504E-23
1.34276E-03 4.48911E-23
1.40743E-03 4.00866E-23
1.47362E-03 3.58488E-23
1.54133E-03 3.21030E-23
1.61056E-03 2.87855E-23
1.68131E-03 2.58419E-23
1.75357E-03 2.32254E-23
1.82735E-03 2.08958E-23
1.90265E-03 1.88185E-23
1.97947E-03 1.69632E-23
2.05780E-03 1.53040E-23
2.13765E-03 1.38183E-23
2.21902E-03 1.24861E-23
2.30190E-03 1.12903E-23
2.38630E-03 1.02157E-23
2.47222E-03 9.24897E-24
2.55965E-03 8.37847E-24
2.64859E-03 7.59390E-24
2.73905E-03 6.88614E-24
2.83103E-03 6.24716E-24
2.92452E-03 5.66984E-24
3.01952E-03 5.14784E-24
3.11604E-03 4.67555E-24
3.21407E-03 4.24797E-24
3.31362E-03 3.86063E-24
3.41468E-03 3.50955E-24
3.51725E-03 3.19118E-24
3.62133E-03 2.90234E-24
3.72692E-03 2.64016E-24
3.83403E-03 2.40210E-24
3.94265E-03 2.18585E-24
4.05278E-03 1.98935E-24
4.16442E-03 1.81074E-24
4.27757E-03 1.64835E-24
4.39223E-03 1.50066E-24
4.50840E-03 1.36632E-24
4.62608E-03 1.24410E-24
4.74527E-03 1.13287E-24
4.86597E-03 1.03165E-24
4.98817E-03 9.39512E-25
5.11188E-03 8.55637E-25
5.23711E-03 7.79278E-25
5.36383E-03 7.09757E-25
5.49207E-03 6.46459E-25
5.62181E-03 5.88827E-25
5.75306E-03 5.36352E-25
5.88581E-03 4.88573E-25
6.02007E-03 4.45073E-25
6.15583E-03 4.05468E-25
6.29310E-03 3.69413E-25
6.43187E-03 3.36591E-25
6.57214E-03 3.06716E-25
6.71392E-03 2.79525E-25
6.85720E-03 2.54778E-25
7.00198E-03 2.32260E-25
7.14827E-03 2.11772E-25
7.29605E-03 1.93132E-25
7.44534E-03 1.76177E-25
7.59612E-03 1.60756E-25
7.97965E-03 1.28043E-25
8.37255E-03 1.02260E-25
8.77480E-03 8.19513E-26
9.18641E-03 6.59593E-26
9.60736E-03 5.33659E-26
1.00376E-02 4.34428E-26
1.04773E-02 3.56137E-26
1.09262E-02 2.94230E-26
1.13844E-02 2.45115E-26
1.18520E-02 2.05969E-26
1.23288E-02 1.74579E-26
1.28150E-02 1.49215E-26
1.33104E-02 1.28535E-26
1.38150E-02 1.11495E-26
1.43290E-02 9.72937E-27
1.48521E-02 8.53139E-27
1.53845E-02 7.50852E-27
1.59262E-02 6.62497E-27
1.64770E-02 5.85364E-27
1.70371E-02 5.17411E-27
1.76063E-02 4.57095E-27
1.81848E-02 4.03254E-27
1.87724E-02 3.55007E-27
1.93692E-02 3.11677E-27
1.99751E-02 2.72737E-27
2.05901E-02 2.37765E-27
2.12143E-02 2.06416E-27
2.18476E-02 1.78393E-27
2.24900E-02 1.53434E-27
2.31415E-02 1.31303E-27
2.38021E-02 1.11775E-27
2.44717E-02 9.46407E-28
2.51504E-02 7.96965E-28
2.58382E-02 6.67469E-28
2.65349E-02 5.56031E-28
2.72407E-02 4.60834E-28
2.79555E-02 3.80144E-28
2.86793E-02 3.12310E-28
2.94120E-02 2.55781E-28
3.01537E-02 2.09106E-28
3.09043E-02 1.70941E-28
3.16639E-02 1.40054E-28
3.24324E-02 1.15329E-28
3.32098E-02 9.57589E-29
3.39961E-02 8.04493E-29
3.47912E-02 6.86127E-29
3.55952E-02 5.95636E-29
3.64081E-02 5.27122E-29
3.72297E-02 4.75581E-29
3.80602E-02 4.36823E-29
3.88995E-02 4.07396E-29
3.97476E-02 3.84509E-29
4.06044E-02 3.65948E-29
4.14700E-02 3.50007E-29
4.23443E-02 3.35410E-29
4.32273E-02 3.21247E-29
4.41190E-02 3.06907E-29
4.50194E-02 2.92024E-29
4.59284E-02 2.76425E-29
4.68461E-02 2.60085E-29
4.87074E-02 2.25585E-29
5.06030E-02 1.89919E-29
5.25328E-02 1.54904E-29
5.44967E-02 1.22246E-29
5.64946E-02 9.32571E-30
5.85262E-02 6.87332E-30
6.05914E-02 4.89649E-30
6.26901E-02 3.38133E-30
6.48222E-02 2.28235E-30
6.69873E-02 1.53460E-30
6.91854E-02 1.06468E-30
7.14163E-02 7.99672E-31
7.36799E-02 6.73584E-31
7.59760E-02 6.31228E-31
7.83043E-02 6.29952E-31
8.06647E-02 6.39608E-31
8.30571E-02 6.41320E-31
8.54812E-02 6.25512E-31
8.79369E-02 5.89629E-31
9.04240E-02 5.35879E-31
9.29422E-02 4.69217E-31
9.54915E-02 3.95698E-31
9.80716E-02 3.21263E-31
1.00682E-01 2.50947E-31
1.03323E-01 1.88451E-31
1.05995E-01 1.36020E-31
1.08696E-01 9.45357E-32
1.11427E-01 6.37467E-32
1.14188E-01 4.25701E-32
1.16978E-01 2.94034E-32
1.19797E-01 2.24122E-32
1.22645E-01 1.97654E-32
1.25522E-01 1.98079E-32
1.28428E-01 2.11688E-32
1.31361E-01 2.28121E-32
1.34323E-01 2.40390E-32
1.37313E-01 2.44569E-32
1.40330E-01 2.39253E-32
1.43375E-01 2.24923E-32
1.46447E-01 2.03298E-32
1.49545E-01 1.76753E-32
1.52671E-01 1.47827E-32
1.55823E-01 1.18873E-32
1.59001E-01 9.18177E-33
1.62205E-01 6.80430E-33
1.65435E-01 4.83630E-33
1.68690E-01 3.30677E-33
1.71970E-01 2.20146E-33
1.75276E-01 1.47426E-33
1.78606E-01 1.05918E-33
1.81961E-01 8.81269E-34
1.85340E-01 8.65809E-34
1.88743E-01 9.45151E-34
1.92169E-01 1.06315E-33
1.95619E-01 1.17736E-33
1.99092E-01 1.25935E-33
2.02589E-01 1.29357E-33
2.06107E-01 1.27529E-33
2.09649E-01 1.20801E-33
2.13212E-01 1.10082E-33
2.16797E-01 9.65796E-34
2.20404E-01 8.15916E-34
2.24032E-01 6.63378E-34
2.27680E-01 5.18459E-34
2.31350E-01 3.88874E-34
2.35040E-01 2.79562E-34
2.38751E-01 1.92808E-34
2.42481E-01 1.28610E-34
2.46231E-01 8.51774E-35
2.50000E-01 5.94930E-35
2.53788E-01 4.78577E-35
2.57595E-01 4.63705E-35
2.61421E-01 5.13167E-35
2.65264E-01 5.94452E-35
2.69126E-01 6.81392E-35
2.73005E-01 7.54876E-35
2.76901E-01 8.02762E-35
2.80814E-01 8.19185E-35
2.84744E-01 8.03464E-35
2.88691E-01 7.58820E-35
2.92653E-01 6.91053E-35
2.96632E-01 6.07316E-35
3.00625E-01 5.15072E-35
3.04634E-01 4.21280E-35
3.08658E-01 3.31831E-35
3.12697E-01 2.51219E-35
3.16749E-01 1.82427E-35
3.20816E-01 1.26971E-35
3.24896E-01 8.50791E-36
3.28990E-01 5.59388E-36
3.33097E-01 3.79842E-36
3.37216E-01 2.91842E-36
3.41348E-01 2.73079E-36
3.45492E-01 3.01457E-36
3.49647E-01 3.56797E-36
3.53814E-01 4.22007E-36
3.57992E-01 4.83721E-36
3.62181E-01 5.32490E-36
3.66381E-01 5.62613E-36
3.70590E-01 5.71697E-36
3.74810E-01 5.60054E-36
3.79039E-01 5.30015E-36
3.83277E-01 4.85244E-36
3.87524E-01 4.30104E-36
3.91780E-01 3.69106E-36
3.96044E-01 3.06488E-36
4.00316E-01 2.45912E-36
4.04596E-01 1.90263E-36
4.08882E-01 1.41583E-36
4.13176E-01 1.01072E-36
4.17476E-01 6.91603E-37
4.21783E-01 4.56338E-37
4.26095E-01 2.97754E-37
4.30413E-01 2.05217E-37
4.34737E-01 1.66083E-37
4.39065E-01 1.67029E-37
4.43398E-01 1.95115E-37
4.47736E-01 2.38619E-37
4.52077E-01 2.87586E-37
4.56422E-01 3.34137E-37
4.60770E-01 3.72553E-37
4.65122E-01 3.99197E-37
4.69476E-01 4.12298E-37
4.73832E-01 4.11648E-37
4.78190E-01 3.98270E-37
4.82550E-01 3.74050E-37
4.86912E-01 3.41406E-37
4.91274E-01 3.02995E-37
4.95637E-01 2.61452E-37
5.00000E-01 2.19204E-37
5.04363E-01 1.78336E-37
5.08726E-01 1.40506E-37
5.13088E-01 1.06910E-37
5.17450E-01 1.00000E-45
5.21810E-01 1.00000E-45
5.26168E-01 1.00000E-45
5.30524E-01 1.00000E-45
5.34878E-01 1.00000E-45
5.39230E-01 1.00000E-45
5.43578E-01 1.00000E-45
5.47923E-01 1.00000E-45
5.52264E-01 1.00000E-45
5.56602E-01 1.00000E-45
5.60935E-01 1.00000E-45
5.65263E-01 1.00000E-45
5.69587E-01 1.00000E-45
5.73905E-01 1.00000E-45
5.78217E-01 1.00000E-45
5.82524E-01 1.00000E-45
5.86824E-01 1.00000E-45
5.91118E-01 1.00000E-45
5.95404E-01 1.00000E-45
5.99684E-01 1.00000E-45
6.03956E-01 1.00000E-45
6.08220E-01 1.00000E-45
6.12476E-01 1.00000E-45
6.16723E-01 1.00000E-45
6.20961E-01 1.00000E-45
6.25190E-01 1.00000E-45
6.29410E-01 1.00000E-45
6.33619E-01 1.00000E-45
6.37819E-01 1.00000E-45
6.42008E-01 1.00000E-45
6.46186E-01 1.00000E-45
6.50353E-01 1.00000E-45
6.54508E-01 1.00000E-45
6.58652E-01 1.00000E-45
6.62784E-01 1.00000E-45
6.66903E-01 1.00000E-45
6.71010E-01 1.00000E-45
6.75104E-01 1.00000E-45
6.79184E-01 1.00000E-45
6.83251E-01 1.00000E-45
6.87303E-01 1.00000E-45
6.91342E-01 1.00000E-45
6.95366E-01 1.00000E-45
6.99375E-01 1.00000E-45
7.03368E-01 1.00000E-45
7.07347E-01 1.00000E-45
7.11309E-01 1.00000E-45
7.15256E-01 1.00000E-45
7.19186E-01 1.00000E-45
7.23099E-01 1.00000E-45
7.26995E-01 1.00000E-45
7.30874E-01 1.00000E-45
7.34736E-01 1.00000E-45
7.38579E-01 1.00000E-45
7.42405E-01 1.00000E-45
7.46212E-01 1.00000E-45
7.50000E-01 1.00000E-45
7.53769E-01 1.00000E-45
7.57519E-01 1.00000E-45
7.61249E-01 1.00000E-45
7.64960E-01 1.00000E-45
7.68650E-01 1.00000E-45
7.72320E-01 1.00000E-45
7.75968E-01 1.00000E-45
7.79596E-01 1.00000E-45
7.83203E-01 1.00000E-45
7.86788E-01 1.00000E-45
7.90351E-01 1.00000E-45
7.93893E-01 1.00000E-45
7.97411E-01 1.00000E-45
8.00908E-01 1.00000E-45
8.04381E-01 1.00000E-45
8.07831E-01 1.00000E-45
8.11257E-01 1.00000E-45
8.14660E-01 1.00000E-45
8.18039E-01 1.00000E-45
8.21394E-01 1.00000E-45
8.24724E-01 1.00000E-45
8.28030E-01 1.00000E-45
8.31310E-01 1.00000E-45
8.34565E-01 1.00000E-45
8.37795E-01 1.00000E-45
8.40999E-01 1.00000E-45
8.44177E-01 1.00000E-45
8.47329E-01 1.00000E-45
8.50455E-01 1.00000E-45
8.53553E-01 1.00000E-45
8.56625E-01 1.00000E-45
8.59670E-01 1.00000E-45
8.62687E-01 1.00000E-45
8.65677E-01 1.00000E-45
8.68639E-01 1.00000E-45
8.71572E-01 1.00000E-45
8.74478E-01 1.00000E-45
8.77355E-01 1.00000E-45
8.80203E-01 1.00000E-45
8.83022E-01 1.00000E-45
8.85812E-01 1.00000E-45
8.88573E-01 1.00000E-45
8.91304E-01 1.00000E-45
8.94005E-01 1.00000E-45
8.96677E-01 1.00000E-45
8.99318E-01 1.00000E-45
9.01928E-01 1.00000E-45
9.04508E-01 1.00000E-45
9.07058E-01 1.00000E-45
9.09576E-01 1.00000E-45
9.12063E-01 1.00000E-45
9.14519E-01 1.00000E-45
9.16943E-01 1.00000E-45
9.19335E-01 1.00000E-45
9.21696E-01 1.00000E-45
9.24024E-01 1.00000E-45
9.26320E-01 1.00000E-45
9.28584E-01 1.00000E-45
9.30815E-01 1.00000E-45
9.33013E-01 1.00000E-45
9.35178E-01 1.00000E-45
9.37310E-01 1.00000E-45
9.39409E-01 1.00000E-45
9.41474E-01 1.00000E-45
9.43505E-01 1.00000E-45
9.45503E-01 1.00000E-45
9.47467E-01 1.00000E-45
9.49397E-01 1.00000E-45
9.51293E-01 1.00000E-45
9.53154E-01 1.00000E-45
9.54981E-01 1.00000E-45
9.56773E-01 1.00000E-45
9.58530E-01 1.00000E-45
9.60252E-01 1.00000E-45
9.61940E-01 1.00000E-45
9.63592E-01 1.00000E-45
9.65209E-01 1.00000E-45
9.66790E-01 1.00000E-45
9.68336E-01 1.00000E-45
9.69846E-01 1.00000E-45
9.71321E-01 1.00000E-45
9.72759E-01 1.00000E-45
9.74162E-01 1.00000E-45
9.75528E-01 1.00000E-45
9.76858E-01 1.00000E-45
9.78152E-01 1.00000E-45
9.79410E-01 1.00000E-45
9.80631E-01 1.00000E-45
9.81815E-01 1.00000E-45
9.82963E-01 1.00000E-45
9.84074E-01 1.00000E-45
9.85148E-01 1.00000E-45
9.86185E-01 1.00000E-45
9.87185E-01 1.00000E-45
9.88148E-01 1.00000E-45
9.89074E-01 1.00000E-45
9.89962E-01 1.00000E-45
9.90814E-01 1.00000E-45
9.91627E-01 1.00000E-45
9.92404E-01 1.00000E-45
9.93143E-01 1.00000E-45
9.93844E-01 1.00000E-45
9.94508E-01 1.00000E-45
9.95134E-01 1.00000E-45
9.95722E-01 1.00000E-45
9.96273E-01 1.00000E-45
9.96786E-01 1.00000E-45
9.97261E-01 1.00000E-45
9.97698E-01 1.00000E-45
9.98097E-01 1.00000E-45
9.98459E-01 1.00000E-45
9.98782E-01 1.00000E-45
9.99067E-01 1.00000E-45
9.99315E-01 1.00000E-45
9.99524E-01 1.00000E-45
9.99695E-01 1.00000E-45
9.99829E-01 1.00000E-45
9.99924E-01 1.00000E-45
9.99981E-01 1.00000E-45
1.00000E+00 1.00000E-45
