 #
 # Subroutine ELSEPA. Elastic scattering of electrons and positrons
 #                    by neutral atoms and positive ions
 #
 # Projectile: electron
 # Kinetic energy = 4.50000E+07 eV = 1.65372E+06 a.u.
 #
 # WARNING: High-energy factorization with free-atom DF screening.
 #          Absorption, polarization and exchange corrections are
 #          switched off.
 #          Phase shifts are calculated for the bare nucleus.
 #          Scattering amplitudes are not evaluated.
 #
 # Element: Bi,  Z =  83,  atomic weight = 2.08980E+02 g/mol
 #
 # Nuclear model: Fermi distribution
 #                Average radius = 6.34969E-13 cm
 #                Skin thickness = 5.46000E-14 cm
 #
 # Number of electrons = 83
 #
 # Total elastic cross section = 8.89284E-18 cm**2 = 3.17569E-01 a0**2
 # 1st transport cross section = 6.35104E-24 cm**2 = 2.26800E-07 a0**2
 # 2nd transport cross section = 1.85261E-23 cm**2 = 6.61578E-07 a0**2
 #
 #
 # Differential cross section:                       MU=(1-COS(THETA))/2
 #
 #  THETA        MU          DCS          DCS        Sherman      error
 #  (deg)                 (cm**2/sr)   (a0**2/sr)    function
 #----------------------------------------------------------------------
0.00000E+00 1.32978E-10
7.61557E-13 1.32915E-10
1.18994E-12 1.32879E-10
1.71346E-12 1.32836E-10
2.33225E-12 1.32785E-10
3.04617E-12 1.32726E-10
3.85530E-12 1.32659E-10
4.75964E-12 1.32585E-10
5.75917E-12 1.32502E-10
6.85391E-12 1.32412E-10
8.04379E-12 1.32315E-10
9.32893E-12 1.32210E-10
1.07092E-11 1.32097E-10
1.21847E-11 1.31976E-10
1.37554E-11 1.31848E-10
1.54213E-11 1.31713E-10
1.71823E-11 1.31570E-10
1.90386E-11 1.31419E-10
2.09900E-11 1.31261E-10
2.30367E-11 1.31096E-10
2.51785E-11 1.30923E-10
2.74156E-11 1.30744E-10
2.97478E-11 1.30557E-10
3.21752E-11 1.30363E-10
3.46979E-11 1.30161E-10
3.73157E-11 1.29953E-10
4.00286E-11 1.29738E-10
4.28368E-11 1.29516E-10
4.57402E-11 1.29287E-10
4.87388E-11 1.29051E-10
5.18325E-11 1.28809E-10
5.50215E-11 1.28560E-10
5.83057E-11 1.28304E-10
6.16850E-11 1.28042E-10
6.51595E-11 1.27773E-10
6.87293E-11 1.27498E-10
7.23943E-11 1.27217E-10
7.61544E-11 1.26930E-10
1.18991E-10 1.23725E-10
1.71347E-10 1.20005E-10
2.33223E-10 1.15833E-10
3.04617E-10 1.11322E-10
3.85531E-10 1.06568E-10
4.75965E-10 1.01661E-10
5.75917E-10 9.66851E-11
6.85389E-10 9.16999E-11
8.04380E-10 8.67510E-11
9.32891E-10 8.19151E-11
1.07092E-09 7.72319E-11
1.21847E-09 7.27310E-11
1.37554E-09 6.84325E-11
1.54213E-09 6.43383E-11
1.71823E-09 6.04538E-11
1.90386E-09 5.67965E-11
2.09900E-09 5.33636E-11
2.30367E-09 5.01490E-11
2.51785E-09 4.71445E-11
2.74156E-09 4.43317E-11
2.97478E-09 4.17043E-11
3.21752E-09 3.92579E-11
3.46978E-09 3.69811E-11
3.73156E-09 3.48623E-11
4.00286E-09 3.28903E-11
4.28368E-09 3.10484E-11
4.57402E-09 2.93311E-11
4.87388E-09 2.77318E-11
5.18326E-09 2.62413E-11
5.50215E-09 2.48512E-11
5.83057E-09 2.35537E-11
6.16850E-09 2.23368E-11
6.51596E-09 2.11985E-11
6.87293E-09 2.01336E-11
7.23942E-09 1.91363E-11
7.61544E-09 1.82016E-11
1.18991E-08 1.13204E-11
1.71347E-08 7.47505E-12
2.33223E-08 5.06932E-12
3.04617E-08 3.56050E-12
3.85531E-08 2.57564E-12
4.75965E-08 1.91166E-12
5.75917E-08 1.45141E-12
6.85389E-08 1.12326E-12
8.04380E-08 8.83049E-13
9.32891E-08 7.04884E-13
1.07092E-07 5.69924E-13
1.21847E-07 4.65838E-13
1.37554E-07 3.84326E-13
1.54213E-07 3.19458E-13
1.71823E-07 2.67320E-13
1.90386E-07 2.25262E-13
2.09900E-07 1.91049E-13
2.30367E-07 1.63012E-13
2.51785E-07 1.39890E-13
2.74156E-07 1.20717E-13
2.97478E-07 1.04597E-13
3.21752E-07 9.10932E-14
3.46978E-07 7.97313E-14
3.73156E-07 7.01196E-14
4.00286E-07 6.19432E-14
4.28368E-07 5.49384E-14
4.57402E-07 4.89089E-14
4.87388E-07 4.36951E-14
5.18325E-07 3.91651E-14
5.50215E-07 3.52124E-14
5.83057E-07 3.17502E-14
6.16850E-07 2.87028E-14
6.51596E-07 2.60162E-14
6.87293E-07 2.36406E-14
7.23942E-07 2.15336E-14
7.61543E-07 1.96589E-14
1.18991E-06 8.73002E-15
1.71347E-06 4.45684E-15
2.33223E-06 2.50875E-15
3.04617E-06 1.51795E-15
3.85531E-06 9.70990E-16
4.75964E-06 6.49392E-16
5.75916E-06 4.50530E-16
6.85388E-06 3.22325E-16
8.04378E-06 2.36700E-16
9.32888E-06 1.77747E-16
1.07092E-05 1.36078E-16
1.21846E-05 1.05946E-16
1.37553E-05 8.37142E-17
1.54212E-05 6.70195E-17
1.71822E-05 5.42846E-17
1.90385E-05 4.44058E-17
2.09899E-05 3.67217E-17
2.30365E-05 3.06222E-17
2.51783E-05 2.57285E-17
2.74153E-05 2.17670E-17
2.97475E-05 1.85357E-17
3.21749E-05 1.58817E-17
3.46974E-05 1.36874E-17
3.73152E-05 1.18609E-17
4.00281E-05 1.03304E-17
4.28362E-05 9.03950E-18
4.57395E-05 7.94406E-18
4.87380E-05 7.00926E-18
5.18317E-05 6.20760E-18
5.50205E-05 5.51707E-18
5.83045E-05 4.91987E-18
6.16838E-05 4.40144E-18
6.51582E-05 3.94970E-18
6.87277E-05 3.55464E-18
7.23925E-05 3.20789E-18
7.61524E-05 2.90148E-18
9.21439E-05 1.99026E-18
1.09658E-04 1.41046E-18
1.28695E-04 1.02745E-18
1.49255E-04 7.66134E-19
1.71338E-04 5.82936E-19
1.94942E-04 4.51409E-19
2.20070E-04 3.55003E-19
2.46720E-04 2.83037E-19
2.74892E-04 2.28437E-19
3.04586E-04 1.86403E-19
3.35803E-04 1.53621E-19
3.68542E-04 1.27747E-19
4.02802E-04 1.07106E-19
4.38585E-04 9.04771E-20
4.75889E-04 7.69586E-20
5.14715E-04 6.58785E-20
5.55063E-04 5.67260E-20
5.96931E-04 4.91128E-20
6.40321E-04 4.27379E-20
6.85233E-04 3.73670E-20
7.31665E-04 3.28163E-20
7.79618E-04 2.89395E-20
8.29092E-04 2.56205E-20
8.80086E-04 2.27654E-20
9.32601E-04 2.02985E-20
9.86636E-04 1.81581E-20
1.04219E-03 1.62935E-20
1.09927E-03 1.46632E-20
1.15786E-03 1.32326E-20
1.21797E-03 1.19731E-20
1.27961E-03 1.08606E-20
1.34276E-03 9.87490E-21
1.40743E-03 8.99914E-21
1.47362E-03 8.21882E-21
1.54133E-03 7.52173E-21
1.61056E-03 6.89739E-21
1.68131E-03 6.33689E-21
1.75357E-03 5.83252E-21
1.82735E-03 5.37764E-21
1.90265E-03 4.96654E-21
1.97947E-03 4.59423E-21
2.05780E-03 4.25640E-21
2.13765E-03 3.94927E-21
2.21902E-03 3.66955E-21
2.30190E-03 3.41434E-21
2.38630E-03 3.18110E-21
2.47222E-03 2.96759E-21
2.55965E-03 2.77183E-21
2.64859E-03 2.59209E-21
2.73905E-03 2.42680E-21
2.83103E-03 2.27459E-21
2.92452E-03 2.13423E-21
3.01952E-03 2.00462E-21
3.11604E-03 1.88480E-21
3.21407E-03 1.77387E-21
3.31362E-03 1.67107E-21
3.41468E-03 1.57567E-21
3.51725E-03 1.48705E-21
3.62133E-03 1.40464E-21
3.72692E-03 1.32791E-21
3.83403E-03 1.25640E-21
3.94265E-03 1.18970E-21
4.05278E-03 1.12740E-21
4.16442E-03 1.06918E-21
4.27757E-03 1.01470E-21
4.39223E-03 9.63692E-22
4.50840E-03 9.15881E-22
4.62608E-03 8.71034E-22
4.74527E-03 8.28927E-22
4.86597E-03 7.89361E-22
4.98817E-03 7.52161E-22
5.11188E-03 7.17147E-22
5.23711E-03 6.84171E-22
5.36383E-03 6.53095E-22
5.49207E-03 6.23782E-22
5.62181E-03 5.96114E-22
5.75306E-03 5.69984E-22
5.88581E-03 5.45288E-22
6.02007E-03 5.21930E-22
6.15583E-03 4.99826E-22
6.29310E-03 4.78894E-22
6.43187E-03 4.59060E-22
6.57214E-03 4.40256E-22
6.71392E-03 4.22417E-22
6.85720E-03 4.05484E-22
7.00198E-03 3.89402E-22
7.14827E-03 3.74120E-22
7.29605E-03 3.59590E-22
7.44534E-03 3.45768E-22
7.59612E-03 3.32612E-22
7.97965E-03 3.02393E-22
8.37255E-03 2.75570E-22
8.77480E-03 2.51693E-22
9.18641E-03 2.30380E-22
9.60736E-03 2.11303E-22
1.00376E-02 1.94184E-22
1.04773E-02 1.78787E-22
1.09262E-02 1.64905E-22
1.13844E-02 1.52361E-22
1.18520E-02 1.41002E-22
1.23288E-02 1.30697E-22
1.28150E-02 1.21329E-22
1.33104E-02 1.12795E-22
1.38150E-02 1.05002E-22
1.43290E-02 9.78776E-23
1.48521E-02 9.13538E-23
1.53845E-02 8.53702E-23
1.59262E-02 7.98736E-23
1.64770E-02 7.48166E-23
1.70371E-02 7.01573E-23
1.76063E-02 6.58583E-23
1.81848E-02 6.18865E-23
1.87724E-02 5.82120E-23
1.93692E-02 5.48082E-23
1.99751E-02 5.16514E-23
2.05901E-02 4.87202E-23
2.12143E-02 4.59951E-23
2.18476E-02 4.34590E-23
2.24900E-02 4.10962E-23
2.31415E-02 3.88925E-23
2.38021E-02 3.68350E-23
2.44717E-02 3.49122E-23
2.51504E-02 3.31135E-23
2.58382E-02 3.14294E-23
2.65349E-02 2.98511E-23
2.72407E-02 2.83706E-23
2.79555E-02 2.69807E-23
2.86793E-02 2.56748E-23
2.94120E-02 2.44468E-23
3.01537E-02 2.32911E-23
3.09043E-02 2.22026E-23
3.16639E-02 2.11767E-23
3.24324E-02 2.02091E-23
3.32098E-02 1.92958E-23
3.39961E-02 1.84331E-23
3.47912E-02 1.76177E-23
3.55952E-02 1.68464E-23
3.64081E-02 1.61166E-23
3.72297E-02 1.54254E-23
3.80602E-02 1.47704E-23
3.88995E-02 1.41494E-23
3.97476E-02 1.35602E-23
4.06044E-02 1.30010E-23
4.14700E-02 1.24698E-23
4.23443E-02 1.19651E-23
4.32273E-02 1.14852E-23
4.41190E-02 1.10286E-23
4.50194E-02 1.05941E-23
4.59284E-02 1.01804E-23
4.68461E-02 9.78617E-24
4.87074E-02 9.05217E-24
5.06030E-02 8.38413E-24
5.25328E-02 7.77505E-24
5.44967E-02 7.21879E-24
5.64946E-02 6.70995E-24
5.85262E-02 6.24377E-24
6.05914E-02 5.81604E-24
6.26901E-02 5.42303E-24
6.48222E-02 5.06142E-24
6.69873E-02 4.72827E-24
6.91854E-02 4.42095E-24
7.14163E-02 4.13710E-24
7.36799E-02 3.87464E-24
7.59760E-02 3.63167E-24
7.83043E-02 3.40651E-24
8.06647E-02 3.19762E-24
8.30571E-02 3.00363E-24
8.54812E-02 2.82332E-24
8.79369E-02 2.65554E-24
9.04240E-02 2.49930E-24
9.29422E-02 2.35367E-24
9.54915E-02 2.21781E-24
9.80716E-02 2.09097E-24
1.00682E-01 1.97244E-24
1.03323E-01 1.86161E-24
1.05995E-01 1.75789E-24
1.08696E-01 1.66077E-24
1.11427E-01 1.56974E-24
1.14188E-01 1.48439E-24
1.16978E-01 1.40429E-24
1.19797E-01 1.32908E-24
1.22645E-01 1.25842E-24
1.25522E-01 1.19200E-24
1.28428E-01 1.12951E-24
1.31361E-01 1.07071E-24
1.34323E-01 1.01533E-24
1.37313E-01 9.63158E-25
1.40330E-01 9.13977E-25
1.43375E-01 8.67595E-25
1.46447E-01 8.23830E-25
1.49545E-01 7.82517E-25
1.52671E-01 7.43499E-25
1.55823E-01 7.06634E-25
1.59001E-01 6.71788E-25
1.62205E-01 6.38836E-25
1.65435E-01 6.07664E-25
1.68690E-01 5.78163E-25
1.71970E-01 5.50234E-25
1.75276E-01 5.23782E-25
1.78606E-01 4.98721E-25
1.81961E-01 4.74969E-25
1.85340E-01 4.52451E-25
1.88743E-01 4.31095E-25
1.92169E-01 4.10834E-25
1.95619E-01 3.91608E-25
1.99092E-01 3.73356E-25
2.02589E-01 3.56025E-25
2.06107E-01 3.39564E-25
2.09649E-01 3.23924E-25
2.13212E-01 3.09061E-25
2.16797E-01 2.94932E-25
2.20404E-01 2.81498E-25
2.24032E-01 2.68720E-25
2.27680E-01 2.56565E-25
2.31350E-01 2.44999E-25
2.35040E-01 2.33991E-25
2.38751E-01 2.23511E-25
2.42481E-01 2.13533E-25
2.46231E-01 2.04030E-25
2.50000E-01 1.94977E-25
2.53788E-01 1.86352E-25
2.57595E-01 1.78133E-25
2.61421E-01 1.70298E-25
2.65264E-01 1.62830E-25
2.69126E-01 1.55708E-25
2.73005E-01 1.48917E-25
2.76901E-01 1.42439E-25
2.80814E-01 1.36259E-25
2.84744E-01 1.30363E-25
2.88691E-01 1.24736E-25
2.92653E-01 1.19365E-25
2.96632E-01 1.14238E-25
3.00625E-01 1.09343E-25
3.04634E-01 1.04669E-25
3.08658E-01 1.00206E-25
3.12697E-01 9.59424E-26
3.16749E-01 9.18697E-26
3.20816E-01 8.79786E-26
3.24896E-01 8.42606E-26
3.28990E-01 8.07076E-26
3.33097E-01 7.73118E-26
3.37216E-01 7.40659E-26
3.41348E-01 7.09628E-26
3.45492E-01 6.79961E-26
3.49647E-01 6.51593E-26
3.53814E-01 6.24464E-26
3.57992E-01 5.98519E-26
3.62181E-01 5.73703E-26
3.66381E-01 5.49963E-26
3.70590E-01 5.27252E-26
3.74810E-01 5.05523E-26
3.79039E-01 4.84731E-26
3.83277E-01 4.64834E-26
3.87524E-01 4.45792E-26
3.91780E-01 4.27566E-26
3.96044E-01 4.10120E-26
4.00316E-01 3.93419E-26
4.04596E-01 3.77430E-26
4.08882E-01 3.62121E-26
4.13176E-01 3.47462E-26
4.17476E-01 3.33425E-26
4.21783E-01 3.19982E-26
4.26095E-01 3.07107E-26
4.30413E-01 2.94775E-26
4.34737E-01 2.82962E-26
4.39065E-01 2.71646E-26
4.43398E-01 2.60805E-26
4.47736E-01 2.50417E-26
4.52077E-01 2.40465E-26
4.56422E-01 2.30928E-26
4.60770E-01 2.21789E-26
4.65122E-01 2.13030E-26
4.69476E-01 2.04635E-26
4.73832E-01 1.96589E-26
4.78190E-01 1.88876E-26
4.82550E-01 1.81482E-26
4.86912E-01 1.74394E-26
4.91274E-01 1.67598E-26
4.95637E-01 1.61082E-26
5.00000E-01 1.54835E-26
5.04363E-01 1.48843E-26
5.08726E-01 1.43098E-26
5.13088E-01 1.37587E-26
5.17450E-01 1.32302E-26
5.21810E-01 1.27232E-26
5.26168E-01 1.22370E-26
5.30524E-01 1.17705E-26
5.34878E-01 1.13229E-26
5.39230E-01 1.08935E-26
5.43578E-01 1.04815E-26
5.47923E-01 1.00861E-26
5.52264E-01 9.70675E-27
5.56602E-01 9.34265E-27
5.60935E-01 8.99320E-27
5.65263E-01 8.65778E-27
5.69587E-01 8.33581E-27
5.73905E-01 8.02672E-27
5.78217E-01 7.72999E-27
5.82524E-01 7.44509E-27
5.86824E-01 7.17153E-27
5.91118E-01 6.90884E-27
5.95404E-01 6.65656E-27
5.99684E-01 6.41427E-27
6.03956E-01 6.18155E-27
6.08220E-01 5.95800E-27
6.12476E-01 5.74325E-27
6.16723E-01 5.53693E-27
6.20961E-01 5.33868E-27
6.25190E-01 5.14819E-27
6.29410E-01 4.96512E-27
6.33619E-01 4.78917E-27
6.37819E-01 4.62005E-27
6.42008E-01 4.45747E-27
6.46186E-01 4.30117E-27
6.50353E-01 4.15089E-27
6.54508E-01 4.00639E-27
6.58652E-01 3.86741E-27
6.62784E-01 3.73375E-27
6.66903E-01 3.60518E-27
6.71010E-01 3.48148E-27
6.75104E-01 3.36248E-27
6.79184E-01 3.24796E-27
6.83251E-01 3.13775E-27
6.87303E-01 3.03167E-27
6.91342E-01 2.92956E-27
6.95366E-01 2.83126E-27
6.99375E-01 2.73660E-27
7.03368E-01 2.64544E-27
7.07347E-01 2.55764E-27
7.11309E-01 2.47306E-27
7.15256E-01 2.39158E-27
7.19186E-01 2.31306E-27
7.23099E-01 2.23739E-27
7.26995E-01 2.16446E-27
7.30874E-01 2.09415E-27
7.34736E-01 2.02635E-27
7.38579E-01 1.96098E-27
7.42405E-01 1.89792E-27
7.46212E-01 1.83709E-27
7.50000E-01 1.77840E-27
7.53769E-01 1.72176E-27
7.57519E-01 1.66710E-27
7.61249E-01 1.61432E-27
7.64960E-01 1.56337E-27
7.68650E-01 1.51416E-27
7.72320E-01 1.46663E-27
7.75968E-01 1.42071E-27
7.79596E-01 1.37634E-27
7.83203E-01 1.33346E-27
7.86788E-01 1.29201E-27
7.90351E-01 1.25193E-27
7.93893E-01 1.21318E-27
7.97411E-01 1.17569E-27
8.00908E-01 1.13942E-27
8.04381E-01 1.10432E-27
8.07831E-01 1.07036E-27
8.11257E-01 1.03748E-27
8.14660E-01 1.00564E-27
8.18039E-01 9.74809E-28
8.21394E-01 9.44943E-28
8.24724E-01 9.16007E-28
8.28030E-01 8.87966E-28
8.31310E-01 8.60787E-28
8.34565E-01 8.34437E-28
8.37795E-01 8.08886E-28
8.40999E-01 7.84105E-28
8.44177E-01 7.60066E-28
8.47329E-01 7.36741E-28
8.50455E-01 7.14104E-28
8.53553E-01 6.92132E-28
8.56625E-01 6.70799E-28
8.59670E-01 6.50084E-28
8.62687E-01 6.29965E-28
8.65677E-01 6.10421E-28
8.68639E-01 5.91431E-28
8.71572E-01 5.72977E-28
8.74478E-01 5.55040E-28
8.77355E-01 5.37603E-28
8.80203E-01 5.20649E-28
8.83022E-01 5.04162E-28
8.85812E-01 4.88127E-28
8.88573E-01 4.72528E-28
8.91304E-01 4.57351E-28
8.94005E-01 4.42583E-28
8.96677E-01 4.28211E-28
8.99318E-01 4.14223E-28
9.01928E-01 4.00606E-28
9.04508E-01 3.87350E-28
9.07058E-01 3.74443E-28
9.09576E-01 3.61874E-28
9.12063E-01 3.49635E-28
9.14519E-01 3.37714E-28
9.16943E-01 3.26104E-28
9.19335E-01 3.14795E-28
9.21696E-01 3.03779E-28
9.24024E-01 2.93048E-28
9.26320E-01 2.82594E-28
9.28584E-01 2.72409E-28
9.30815E-01 2.62488E-28
9.33013E-01 2.52822E-28
9.35178E-01 2.43406E-28
9.37310E-01 2.34233E-28
9.39409E-01 2.25298E-28
9.41474E-01 2.16595E-28
9.43505E-01 2.08118E-28
9.45503E-01 1.99862E-28
9.47467E-01 1.91822E-28
9.49397E-01 1.83994E-28
9.51293E-01 1.76373E-28
9.53154E-01 1.68955E-28
9.54981E-01 1.61735E-28
9.56773E-01 1.54710E-28
9.58530E-01 1.47876E-28
9.60252E-01 1.41229E-28
9.61940E-01 1.34766E-28
9.63592E-01 1.28483E-28
9.65209E-01 1.22378E-28
9.66790E-01 1.16447E-28
9.68336E-01 1.10687E-28
9.69846E-01 1.05096E-28
9.71321E-01 9.96717E-29
9.72759E-01 9.44107E-29
9.74162E-01 8.93110E-29
9.75528E-01 8.43702E-29
9.76858E-01 7.95863E-29
9.78152E-01 7.49572E-29
9.79410E-01 7.04809E-29
9.80631E-01 6.61556E-29
9.81815E-01 6.19794E-29
9.82963E-01 5.79508E-29
9.84074E-01 5.40680E-29
9.85148E-01 5.03296E-29
9.86185E-01 4.67340E-29
9.87185E-01 4.32801E-29
9.88148E-01 3.99663E-29
9.89074E-01 3.67916E-29
9.89962E-01 3.37547E-29
9.90814E-01 3.08546E-29
9.91627E-01 2.80901E-29
9.92404E-01 2.54604E-29
9.93143E-01 2.29644E-29
9.93844E-01 2.06014E-29
9.94508E-01 1.83705E-29
9.95134E-01 1.62710E-29
9.95722E-01 1.43021E-29
9.96273E-01 1.24632E-29
9.96786E-01 1.07537E-29
9.97261E-01 9.17302E-30
9.97698E-01 7.72065E-30
9.98097E-01 6.39611E-30
9.98459E-01 5.19899E-30
9.98782E-01 4.12890E-30
9.99067E-01 3.18549E-30
9.99315E-01 2.36847E-30
9.99524E-01 1.67757E-30
9.99695E-01 1.11259E-30
9.99829E-01 6.73346E-31
9.99924E-01 3.59697E-31
9.99981E-01 1.71547E-31
1.00000E+00 1.08837E-31
