 #
 # Subroutine ELSEPA. Elastic scattering of electrons and positrons
 #                    by neutral atoms and positive ions
 #
 # Projectile: electron
 # Kinetic energy = 1.00000E+08 eV = 3.67493E+06 a.u.
 #
 # WARNING: High-energy factorization with free-atom DF screening.
 #          Absorption, polarization and exchange corrections are
 #          switched off.
 #          Phase shifts are calculated for the bare nucleus.
 #          Scattering amplitudes are not evaluated.
 #
 # Element: Bi,  Z =  83,  atomic weight = 2.08980E+02 g/mol
 #
 # Nuclear model: Fermi distribution
 #                Average radius = 6.34969E-13 cm
 #                Skin thickness = 5.46000E-14 cm
 #
 # Number of electrons = 83
 #
 # Total elastic cross section = 8.89082E-18 cm**2 = 3.17497E-01 a0**2
 # 1st transport cross section = 1.29467E-24 cm**2 = 4.62334E-08 a0**2
 # 2nd transport cross section = 3.85289E-24 cm**2 = 1.37589E-07 a0**2
 #
 #
 # Differential cross section:                       MU=(1-COS(THETA))/2
 #
 #  THETA        MU          DCS          DCS        Sherman      error
 #  (deg)                 (cm**2/sr)   (a0**2/sr)    function
 #----------------------------------------------------------------------
0.00000E+00 6.48597E-10
7.61557E-13 6.47096E-10
1.18994E-12 6.46257E-10
1.71346E-12 6.45235E-10
2.33225E-12 6.44030E-10
3.04617E-12 6.42646E-10
3.85530E-12 6.41083E-10
4.75964E-12 6.39344E-10
5.75917E-12 6.37431E-10
6.85391E-12 6.35348E-10
8.04379E-12 6.33097E-10
9.32893E-12 6.30681E-10
1.07092E-11 6.28103E-10
1.21847E-11 6.25368E-10
1.37554E-11 6.22479E-10
1.54213E-11 6.19439E-10
1.71823E-11 6.16253E-10
1.90386E-11 6.12925E-10
2.09900E-11 6.09459E-10
2.30367E-11 6.05854E-10
2.51785E-11 6.02091E-10
2.74156E-11 5.98219E-10
2.97478E-11 5.94246E-10
3.21752E-11 5.90176E-10
3.46979E-11 5.86016E-10
3.73157E-11 5.81694E-10
4.00286E-11 5.77259E-10
4.28368E-11 5.72752E-10
4.57402E-11 5.68179E-10
4.87388E-11 5.63545E-10
5.18325E-11 5.58823E-10
5.50215E-11 5.53946E-10
5.83057E-11 5.49026E-10
6.16850E-11 5.44069E-10
6.51595E-11 5.39080E-10
6.87293E-11 5.34066E-10
7.23943E-11 5.28903E-10
7.61544E-11 5.23690E-10
1.18991E-10 4.70510E-10
1.71347E-10 4.17215E-10
2.33223E-10 3.66507E-10
3.04617E-10 3.20238E-10
3.85531E-10 2.79140E-10
4.75965E-10 2.43283E-10
5.75917E-10 2.12350E-10
6.85389E-10 1.85825E-10
8.04380E-10 1.63108E-10
9.32891E-10 1.43698E-10
1.07092E-09 1.27082E-10
1.21847E-09 1.12816E-10
1.37554E-09 1.00520E-10
1.54213E-09 8.98728E-11
1.71823E-09 8.06027E-11
1.90386E-09 7.25106E-11
2.09900E-09 6.54167E-11
2.30367E-09 5.90888E-11
2.51785E-09 5.31917E-11
2.74156E-09 4.81698E-11
2.97478E-09 4.38676E-11
3.21752E-09 4.01607E-11
3.46978E-09 3.69493E-11
3.73156E-09 3.37752E-11
4.00286E-09 3.08674E-11
4.28368E-09 2.83307E-11
4.57402E-09 2.61077E-11
4.87388E-09 2.41511E-11
5.18326E-09 2.23607E-11
5.50215E-09 2.05986E-11
5.83057E-09 1.90382E-11
6.16850E-09 1.76514E-11
6.51596E-09 1.64148E-11
6.87293E-09 1.53084E-11
7.23942E-09 1.42289E-11
7.61544E-09 1.32381E-11
1.18991E-08 6.99608E-12
1.71347E-08 4.06931E-12
2.33223E-08 2.53100E-12
3.04617E-08 1.65364E-12
3.85531E-08 1.12134E-12
4.75965E-08 7.84261E-13
5.75917E-08 5.64059E-13
6.85389E-08 4.15209E-13
8.04380E-08 3.12869E-13
9.32891E-08 2.40654E-13
1.07092E-07 1.88322E-13
1.21847E-07 1.49561E-13
1.37554E-07 1.20350E-13
1.54213E-07 9.79960E-14
1.71823E-07 8.06295E-14
1.90386E-07 6.69573E-14
2.09900E-07 5.60653E-14
2.30367E-07 4.72924E-14
2.51785E-07 4.01547E-14
2.74156E-07 3.43699E-14
2.97478E-07 2.95466E-14
3.21752E-07 2.55716E-14
3.46978E-07 2.22269E-14
3.73156E-07 1.94221E-14
4.00286E-07 1.70426E-14
4.28368E-07 1.50183E-14
4.57402E-07 1.32871E-14
4.87388E-07 1.17958E-14
5.18325E-07 1.05114E-14
5.50215E-07 9.39302E-15
5.83057E-07 8.42359E-15
6.16850E-07 7.57156E-15
6.51596E-07 6.82775E-15
6.87293E-07 6.17036E-15
7.23942E-07 5.59171E-15
7.61543E-07 5.07825E-15
1.18991E-06 2.16235E-15
1.71347E-06 1.07060E-15
2.33223E-06 5.89424E-16
3.04617E-06 3.50765E-16
3.85531E-06 2.21545E-16
4.75964E-06 1.46673E-16
5.75916E-06 1.00894E-16
6.85388E-06 7.16488E-17
8.04378E-06 5.22662E-17
9.32888E-06 3.90150E-17
1.07092E-05 2.97093E-17
1.21846E-05 2.30203E-17
1.37553E-05 1.81128E-17
1.54212E-05 1.44466E-17
1.71822E-05 1.16633E-17
1.90385E-05 9.51356E-18
2.09899E-05 7.84768E-18
2.30365E-05 6.52985E-18
2.51783E-05 5.47578E-18
2.74153E-05 4.62482E-18
2.97475E-05 3.93234E-18
3.21749E-05 3.36477E-18
3.46974E-05 2.89635E-18
3.73152E-05 2.50709E-18
4.00281E-05 2.18139E-18
4.28362E-05 1.90704E-18
4.57395E-05 1.67449E-18
4.87380E-05 1.47625E-18
5.18317E-05 1.30642E-18
5.50205E-05 1.16026E-18
5.83045E-05 1.03396E-18
6.16838E-05 9.24402E-19
6.51582E-05 8.29010E-19
6.87277E-05 7.45642E-19
7.23925E-05 6.72516E-19
7.61524E-05 6.08063E-19
9.21439E-05 4.16312E-19
1.09658E-04 2.94556E-19
1.28695E-04 2.14272E-19
1.49255E-04 1.59586E-19
1.71338E-04 1.21304E-19
1.94942E-04 9.38561E-20
2.20070E-04 7.37612E-20
2.46720E-04 5.87759E-20
2.74892E-04 4.74170E-20
3.04586E-04 3.86794E-20
3.35803E-04 3.18695E-20
3.68542E-04 2.64979E-20
4.02802E-04 2.22148E-20
4.38585E-04 1.87658E-20
4.75889E-04 1.59628E-20
5.14715E-04 1.36659E-20
5.55063E-04 1.17691E-20
5.96931E-04 1.01915E-20
6.40321E-04 8.87067E-21
6.85233E-04 7.75789E-21
7.31665E-04 6.81505E-21
7.79618E-04 6.01180E-21
8.29092E-04 5.32406E-21
8.80086E-04 4.73239E-21
9.32601E-04 4.22108E-21
9.86636E-04 3.77737E-21
1.04219E-03 3.39078E-21
1.09927E-03 3.05268E-21
1.15786E-03 2.75591E-21
1.21797E-03 2.49457E-21
1.27961E-03 2.26366E-21
1.34276E-03 2.05903E-21
1.40743E-03 1.87715E-21
1.47362E-03 1.71504E-21
1.54133E-03 1.57016E-21
1.61056E-03 1.44037E-21
1.68131E-03 1.32380E-21
1.75357E-03 1.21886E-21
1.82735E-03 1.12419E-21
1.90265E-03 1.03859E-21
1.97947E-03 9.61044E-22
2.05780E-03 8.90648E-22
2.13765E-03 8.26624E-22
2.21902E-03 7.68289E-22
2.30190E-03 7.15045E-22
2.38630E-03 6.66366E-22
2.47222E-03 6.21790E-22
2.55965E-03 5.80908E-22
2.64859E-03 5.43360E-22
2.73905E-03 5.08812E-22
2.83103E-03 4.76963E-22
2.92452E-03 4.47582E-22
3.01952E-03 4.20441E-22
3.11604E-03 3.95338E-22
3.21407E-03 3.72090E-22
3.31362E-03 3.50535E-22
3.41468E-03 3.30526E-22
3.51725E-03 3.11931E-22
3.62133E-03 2.94632E-22
3.72692E-03 2.78520E-22
3.83403E-03 2.63499E-22
3.94265E-03 2.49480E-22
4.05278E-03 2.36385E-22
4.16442E-03 2.24141E-22
4.27757E-03 2.12681E-22
4.39223E-03 2.01946E-22
4.50840E-03 1.91882E-22
4.62608E-03 1.82438E-22
4.74527E-03 1.73569E-22
4.86597E-03 1.65232E-22
4.98817E-03 1.57391E-22
5.11188E-03 1.50010E-22
5.23711E-03 1.43056E-22
5.36383E-03 1.36500E-22
5.49207E-03 1.30316E-22
5.62181E-03 1.24477E-22
5.75306E-03 1.18961E-22
5.88581E-03 1.13746E-22
6.02007E-03 1.08814E-22
6.15583E-03 1.04145E-22
6.29310E-03 9.97229E-23
6.43187E-03 9.55321E-23
6.57214E-03 9.15582E-23
6.71392E-03 8.77878E-23
6.85720E-03 8.42084E-23
7.00198E-03 8.08085E-23
7.14827E-03 7.75774E-23
7.29605E-03 7.45050E-23
7.44534E-03 7.15820E-23
7.59612E-03 6.87998E-23
7.97965E-03 6.24085E-23
8.37255E-03 5.67354E-23
8.77480E-03 5.16857E-23
9.18641E-03 4.71786E-23
9.60736E-03 4.31456E-23
1.00376E-02 3.95279E-23
1.04773E-02 3.62753E-23
1.09262E-02 3.33443E-23
1.13844E-02 3.06976E-23
1.18520E-02 2.83027E-23
1.23288E-02 2.61314E-23
1.28150E-02 2.41592E-23
1.33104E-02 2.23646E-23
1.38150E-02 2.07289E-23
1.43290E-02 1.92355E-23
1.48521E-02 1.78699E-23
1.53845E-02 1.66192E-23
1.59262E-02 1.54721E-23
1.64770E-02 1.44186E-23
1.70371E-02 1.34498E-23
1.76063E-02 1.25575E-23
1.81848E-02 1.17349E-23
1.87724E-02 1.09755E-23
1.93692E-02 1.02736E-23
1.99751E-02 9.62423E-24
2.05901E-02 9.02274E-24
2.12143E-02 8.46502E-24
2.18476E-02 7.94737E-24
2.24900E-02 7.46645E-24
2.31415E-02 7.01923E-24
2.38021E-02 6.60296E-24
2.44717E-02 6.21517E-24
2.51504E-02 5.85360E-24
2.58382E-02 5.51619E-24
2.65349E-02 5.20108E-24
2.72407E-02 4.90658E-24
2.79555E-02 4.63112E-24
2.86793E-02 4.37329E-24
2.94120E-02 4.13179E-24
3.01537E-02 3.90543E-24
3.09043E-02 3.69313E-24
3.16639E-02 3.49388E-24
3.24324E-02 3.30676E-24
3.32098E-02 3.13093E-24
3.39961E-02 2.96562E-24
3.47912E-02 2.81010E-24
3.55952E-02 2.66371E-24
3.64081E-02 2.52585E-24
3.72297E-02 2.39594E-24
3.80602E-02 2.27348E-24
3.88995E-02 2.15797E-24
3.97476E-02 2.04898E-24
4.06044E-02 1.94608E-24
4.14700E-02 1.84889E-24
4.23443E-02 1.75705E-24
4.32273E-02 1.67023E-24
4.41190E-02 1.58813E-24
4.50194E-02 1.51046E-24
4.59284E-02 1.43694E-24
4.68461E-02 1.36734E-24
4.87074E-02 1.23895E-24
5.06030E-02 1.12361E-24
5.25328E-02 1.01985E-24
5.44967E-02 9.26397E-25
5.64946E-02 8.42125E-25
5.85262E-02 7.66045E-25
6.05914E-02 6.97289E-25
6.26901E-02 6.35088E-25
6.48222E-02 5.78763E-25
6.69873E-02 5.27714E-25
6.91854E-02 4.81408E-25
7.14163E-02 4.39369E-25
7.36799E-02 4.01175E-25
7.59760E-02 3.66451E-25
7.83043E-02 3.34859E-25
8.06647E-02 3.06100E-25
8.30571E-02 2.79902E-25
8.54812E-02 2.56025E-25
8.79369E-02 2.34252E-25
9.04240E-02 2.14387E-25
9.29422E-02 1.96255E-25
9.54915E-02 1.79698E-25
9.80716E-02 1.64572E-25
1.00682E-01 1.50749E-25
1.03323E-01 1.38111E-25
1.05995E-01 1.26555E-25
1.08696E-01 1.15983E-25
1.11427E-01 1.06310E-25
1.14188E-01 9.74563E-26
1.16978E-01 8.93511E-26
1.19797E-01 8.19296E-26
1.22645E-01 7.51326E-26
1.25522E-01 6.89066E-26
1.28428E-01 6.32027E-26
1.31361E-01 5.79764E-26
1.34323E-01 5.31872E-26
1.37313E-01 4.87980E-26
1.40330E-01 4.47750E-26
1.43375E-01 4.10874E-26
1.46447E-01 3.77070E-26
1.49545E-01 3.46081E-26
1.52671E-01 3.17671E-26
1.55823E-01 2.91625E-26
1.59001E-01 2.67746E-26
1.62205E-01 2.45853E-26
1.65435E-01 2.25782E-26
1.68690E-01 2.07380E-26
1.71970E-01 1.90509E-26
1.75276E-01 1.75042E-26
1.78606E-01 1.60863E-26
1.81961E-01 1.47864E-26
1.85340E-01 1.35949E-26
1.88743E-01 1.25026E-26
1.92169E-01 1.15014E-26
1.95619E-01 1.05837E-26
1.99092E-01 9.74255E-27
2.02589E-01 8.97161E-27
2.06107E-01 8.26501E-27
2.09649E-01 7.61742E-27
2.13212E-01 7.02389E-27
2.16797E-01 6.47992E-27
2.20404E-01 5.98137E-27
2.24032E-01 5.52443E-27
2.27680E-01 5.10560E-27
2.31350E-01 4.72170E-27
2.35040E-01 4.36977E-27
2.38751E-01 4.04712E-27
2.42481E-01 3.75127E-27
2.46231E-01 3.47997E-27
2.50000E-01 3.23112E-27
2.53788E-01 3.00282E-27
2.57595E-01 2.79331E-27
2.61421E-01 2.60100E-27
2.65264E-01 2.42442E-27
2.69126E-01 2.26221E-27
2.73005E-01 2.11314E-27
2.76901E-01 1.97609E-27
2.80814E-01 1.85002E-27
2.84744E-01 1.73397E-27
2.88691E-01 1.62710E-27
2.92653E-01 1.52860E-27
2.96632E-01 1.43774E-27
3.00625E-01 1.35387E-27
3.04634E-01 1.27638E-27
3.08658E-01 1.20472E-27
3.12697E-01 1.13838E-27
3.16749E-01 1.07690E-27
3.20816E-01 1.01986E-27
3.24896E-01 9.66881E-28
3.28990E-01 9.17605E-28
3.33097E-01 8.71716E-28
3.37216E-01 8.28925E-28
3.41348E-01 7.88966E-28
3.45492E-01 7.51598E-28
3.49647E-01 7.16604E-28
3.53814E-01 6.83782E-28
3.57992E-01 6.52952E-28
3.62181E-01 6.23950E-28
3.66381E-01 5.96625E-28
3.70590E-01 5.70843E-28
3.74810E-01 5.46478E-28
3.79039E-01 5.23420E-28
3.83277E-01 5.01567E-28
3.87524E-01 4.80827E-28
3.91780E-01 4.61116E-28
3.96044E-01 4.42358E-28
4.00316E-01 4.24485E-28
4.04596E-01 4.07434E-28
4.08882E-01 3.91148E-28
4.13176E-01 3.75577E-28
4.17476E-01 3.60674E-28
4.21783E-01 3.46396E-28
4.26095E-01 3.32706E-28
4.30413E-01 3.19569E-28
4.34737E-01 3.06952E-28
4.39065E-01 2.94827E-28
4.43398E-01 2.83168E-28
4.47736E-01 2.71950E-28
4.52077E-01 2.61152E-28
4.56422E-01 2.50755E-28
4.60770E-01 2.40738E-28
4.65122E-01 2.31086E-28
4.69476E-01 2.21784E-28
4.73832E-01 2.12815E-28
4.78190E-01 2.04168E-28
4.82550E-01 1.95831E-28
4.86912E-01 1.87790E-28
4.91274E-01 1.80037E-28
4.95637E-01 1.72560E-28
5.00000E-01 1.65350E-28
5.04363E-01 1.58399E-28
5.08726E-01 1.51698E-28
5.13088E-01 1.45238E-28
5.17450E-01 1.39013E-28
5.21810E-01 1.33015E-28
5.26168E-01 1.27237E-28
5.30524E-01 1.21673E-28
5.34878E-01 1.16315E-28
5.39230E-01 1.11158E-28
5.43578E-01 1.06196E-28
5.47923E-01 1.01422E-28
5.52264E-01 9.68321E-29
5.56602E-01 9.24194E-29
5.60935E-01 8.81789E-29
5.65263E-01 8.41054E-29
5.69587E-01 8.01937E-29
5.73905E-01 7.64389E-29
5.78217E-01 7.28361E-29
5.82524E-01 6.93805E-29
5.86824E-01 6.60673E-29
5.91118E-01 6.28921E-29
5.95404E-01 5.98503E-29
5.99684E-01 5.69375E-29
6.03956E-01 5.41494E-29
6.08220E-01 5.14818E-29
6.12476E-01 4.89306E-29
6.16723E-01 4.64918E-29
6.20961E-01 4.41614E-29
6.25190E-01 4.19355E-29
6.29410E-01 3.98104E-29
6.33619E-01 3.77824E-29
6.37819E-01 3.58480E-29
6.42008E-01 3.40035E-29
6.46186E-01 3.22456E-29
6.50353E-01 3.05709E-29
6.54508E-01 2.89763E-29
6.58652E-01 2.74585E-29
6.62784E-01 2.60145E-29
6.66903E-01 2.46412E-29
6.71010E-01 2.33358E-29
6.75104E-01 2.20955E-29
6.79184E-01 2.09175E-29
6.83251E-01 1.97992E-29
6.87303E-01 1.87380E-29
6.91342E-01 1.77313E-29
6.95366E-01 1.67769E-29
6.99375E-01 1.58724E-29
7.03368E-01 1.50154E-29
7.07347E-01 1.42039E-29
7.11309E-01 1.34358E-29
7.15256E-01 1.27090E-29
7.19186E-01 1.20215E-29
7.23099E-01 1.13715E-29
7.26995E-01 1.07572E-29
7.30874E-01 1.01768E-29
7.34736E-01 9.62874E-30
7.38579E-01 9.11130E-30
7.42405E-01 8.62296E-30
7.46212E-01 8.16225E-30
7.50000E-01 7.72775E-30
7.53769E-01 7.31810E-30
7.57519E-01 6.93199E-30
7.61249E-01 6.56817E-30
7.64960E-01 6.22546E-30
7.68650E-01 5.90271E-30
7.72320E-01 5.59882E-30
7.75968E-01 5.31277E-30
7.79596E-01 5.04355E-30
7.83203E-01 4.79023E-30
7.86788E-01 4.55190E-30
7.90351E-01 4.32769E-30
7.93893E-01 4.11680E-30
7.97411E-01 3.91845E-30
8.00908E-01 3.73190E-30
8.04381E-01 3.55644E-30
8.07831E-01 3.39141E-30
8.11257E-01 3.23619E-30
8.14660E-01 3.09016E-30
8.18039E-01 2.95277E-30
8.21394E-01 2.82348E-30
8.24724E-01 2.70177E-30
8.28030E-01 2.58718E-30
8.31310E-01 2.47923E-30
8.34565E-01 2.37752E-30
8.37795E-01 2.28163E-30
8.40999E-01 2.19118E-30
8.44177E-01 2.10581E-30
8.47329E-01 2.02519E-30
8.50455E-01 1.94900E-30
8.53553E-01 1.87693E-30
8.56625E-01 1.80871E-30
8.59670E-01 1.74408E-30
8.62687E-01 1.68278E-30
8.65677E-01 1.62459E-30
8.68639E-01 1.56929E-30
8.71572E-01 1.51668E-30
8.74478E-01 1.46656E-30
8.77355E-01 1.41876E-30
8.80203E-01 1.37312E-30
8.83022E-01 1.32947E-30
8.85812E-01 1.28769E-30
8.88573E-01 1.24763E-30
8.91304E-01 1.20917E-30
8.94005E-01 1.17219E-30
8.96677E-01 1.13660E-30
8.99318E-01 1.10228E-30
9.01928E-01 1.06915E-30
9.04508E-01 1.03713E-30
9.07058E-01 1.00614E-30
9.09576E-01 9.76099E-31
9.12063E-01 9.46950E-31
9.14519E-01 9.18630E-31
9.16943E-01 8.91085E-31
9.19335E-01 8.64263E-31
9.21696E-01 8.38119E-31
9.24024E-01 8.12610E-31
9.26320E-01 7.87698E-31
9.28584E-01 7.63349E-31
9.30815E-01 7.39531E-31
9.33013E-01 7.16216E-31
9.35178E-01 6.93380E-31
9.37310E-01 6.70998E-31
9.39409E-01 6.49052E-31
9.41474E-01 6.27523E-31
9.43505E-01 6.06395E-31
9.45503E-01 5.85656E-31
9.47467E-01 5.65292E-31
9.49397E-01 5.45294E-31
9.51293E-01 5.25653E-31
9.53154E-01 5.06362E-31
9.54981E-01 4.87413E-31
9.56773E-01 4.68804E-31
9.58530E-01 4.50529E-31
9.60252E-01 4.32586E-31
9.61940E-01 4.14973E-31
9.63592E-01 3.97688E-31
9.65209E-01 3.80732E-31
9.66790E-01 3.64104E-31
9.68336E-01 3.47805E-31
9.69846E-01 3.31836E-31
9.71321E-01 3.16200E-31
9.72759E-01 3.00898E-31
9.74162E-01 2.85932E-31
9.75528E-01 2.71306E-31
9.76858E-01 2.57023E-31
9.78152E-01 2.43085E-31
9.79410E-01 2.29496E-31
9.80631E-01 2.16260E-31
9.81815E-01 2.03381E-31
9.82963E-01 1.90861E-31
9.84074E-01 1.78706E-31
9.85148E-01 1.66919E-31
9.86185E-01 1.55504E-31
9.87185E-01 1.44465E-31
9.88148E-01 1.33805E-31
9.89074E-01 1.23529E-31
9.89962E-01 1.13640E-31
9.90814E-01 1.04142E-31
9.91627E-01 9.50389E-32
9.92404E-01 8.63339E-32
9.93143E-01 7.80304E-32
9.93844E-01 7.01319E-32
9.94508E-01 6.26414E-32
9.95134E-01 5.55620E-32
9.95722E-01 4.88966E-32
9.96273E-01 4.26480E-32
9.96786E-01 3.68188E-32
9.97261E-01 3.14113E-32
9.97698E-01 2.64279E-32
9.98097E-01 2.18707E-32
9.98459E-01 1.77416E-32
9.98782E-01 1.40424E-32
9.99067E-01 1.07746E-32
9.99315E-01 7.93966E-33
9.99524E-01 5.53881E-33
9.99695E-01 3.57305E-33
9.99829E-01 2.04325E-33
9.99924E-01 9.50069E-34
9.99981E-01 2.93965E-34
1.00000E+00 7.52338E-35
