 #
 # Subroutine ELSEPA. Elastic scattering of electrons and positrons
 #                    by neutral atoms and positive ions
 #
 # Projectile: positron
 # Kinetic energy = 8.00000E+07 eV = 2.93995E+06 a.u.
 #
 # WARNING: High-energy factorization with free-atom DF screening.
 #          Absorption, polarization and exchange corrections are
 #          switched off.
 #          Phase shifts are calculated for the bare nucleus.
 #          Scattering amplitudes are not evaluated.
 #
 # Element: Hg,  Z =  80,  atomic weight = 2.00590E+02 g/mol
 #
 # Nuclear model: Fermi distribution
 #                Average radius = 6.26355E-13 cm
 #                Skin thickness = 5.46000E-14 cm
 #
 # Number of electrons = 80
 #
 # Total elastic cross section = 7.89312E-18 cm**2 = 2.81868E-01 a0**2
 # 1st transport cross section = 1.77303E-24 cm**2 = 6.33160E-08 a0**2
 # 2nd transport cross section = 5.24807E-24 cm**2 = 1.87412E-07 a0**2
 #
 #
 # Differential cross section:                       MU=(1-COS(THETA))/2
 #
 #  THETA        MU          DCS          DCS        Sherman      error
 #  (deg)                 (cm**2/sr)   (a0**2/sr)    function
 #----------------------------------------------------------------------
0.00000E+00 2.75562E-10
7.61557E-13 2.75271E-10
1.18994E-12 2.75109E-10
1.71346E-12 2.74911E-10
2.33225E-12 2.74678E-10
3.04617E-12 2.74409E-10
3.85530E-12 2.74106E-10
4.75964E-12 2.73767E-10
5.75917E-12 2.73394E-10
6.85391E-12 2.72986E-10
8.04379E-12 2.72544E-10
9.32893E-12 2.72068E-10
1.07092E-11 2.71559E-10
1.21847E-11 2.71017E-10
1.37554E-11 2.70441E-10
1.54213E-11 2.69834E-10
1.71823E-11 2.69194E-10
1.90386E-11 2.68523E-10
2.09900E-11 2.67820E-10
2.30367E-11 2.67087E-10
2.51785E-11 2.66324E-10
2.74156E-11 2.65530E-10
2.97478E-11 2.64708E-10
3.21752E-11 2.63857E-10
3.46979E-11 2.62978E-10
3.73157E-11 2.62061E-10
4.00286E-11 2.61116E-10
4.28368E-11 2.60150E-10
4.57402E-11 2.59162E-10
4.87388E-11 2.58154E-10
5.18325E-11 2.57127E-10
5.50215E-11 2.56082E-10
5.83057E-11 2.54982E-10
6.16850E-11 2.53863E-10
6.51595E-11 2.52727E-10
6.87293E-11 2.51576E-10
7.23943E-11 2.50412E-10
7.61544E-11 2.49234E-10
1.18991E-10 2.36322E-10
1.71347E-10 2.22142E-10
2.33223E-10 2.07234E-10
3.04617E-10 1.92163E-10
3.85531E-10 1.77338E-10
4.75965E-10 1.63038E-10
5.75917E-10 1.49530E-10
6.85389E-10 1.36848E-10
8.04380E-10 1.25157E-10
9.32891E-10 1.14345E-10
1.07092E-09 1.04516E-10
1.21847E-09 9.54931E-11
1.37554E-09 8.73405E-11
1.54213E-09 7.99014E-11
1.71823E-09 7.31828E-11
1.90386E-09 6.70724E-11
2.09900E-09 6.15451E-11
2.30367E-09 5.65253E-11
2.51785E-09 5.19733E-11
2.74156E-09 4.78405E-11
2.97478E-09 4.40823E-11
3.21752E-09 4.06690E-11
3.46978E-09 3.75562E-11
3.73156E-09 3.45318E-11
4.00286E-09 3.17952E-11
4.28368E-09 2.93862E-11
4.57402E-09 2.72575E-11
4.87388E-09 2.53695E-11
5.18326E-09 2.36891E-11
5.50215E-09 2.21883E-11
5.83057E-09 2.05931E-11
6.16850E-09 1.91482E-11
6.51596E-09 1.78539E-11
6.87293E-09 1.66913E-11
7.23942E-09 1.56439E-11
7.61544E-09 1.46978E-11
1.18991E-08 8.05819E-12
1.71347E-08 4.81853E-12
2.33223E-08 3.07050E-12
3.04617E-08 2.05212E-12
3.85531E-08 1.42068E-12
4.75965E-08 1.01015E-12
5.75917E-08 7.35612E-13
6.85389E-08 5.46477E-13
8.04380E-08 4.14175E-13
9.32891E-08 3.19391E-13
1.07092E-07 2.50270E-13
1.21847E-07 1.99114E-13
1.37554E-07 1.60675E-13
1.54213E-07 1.31177E-13
1.71823E-07 1.08227E-13
1.90386E-07 9.00985E-14
2.09900E-07 7.56442E-14
2.30367E-07 6.39959E-14
2.51785E-07 5.45240E-14
2.74156E-07 4.67495E-14
2.97478E-07 4.03122E-14
3.21752E-07 3.49458E-14
3.46978E-07 3.04401E-14
3.73156E-07 2.66205E-14
4.00286E-07 2.33952E-14
4.28368E-07 2.06644E-14
4.57402E-07 1.82933E-14
4.87388E-07 1.62657E-14
5.18325E-07 1.45146E-14
5.50215E-07 1.29838E-14
5.83057E-07 1.16569E-14
6.16850E-07 1.04926E-14
6.51596E-07 9.46875E-15
6.87293E-07 8.57113E-15
7.23942E-07 7.77270E-15
7.61543E-07 7.06656E-15
1.18991E-06 3.03320E-15
1.71347E-06 1.50861E-15
2.33223E-06 8.32689E-16
3.04617E-06 4.96651E-16
3.85531E-06 3.14340E-16
4.75964E-06 2.08480E-16
5.75916E-06 1.43625E-16
6.85388E-06 1.02112E-16
8.04378E-06 7.45507E-17
9.32888E-06 5.56822E-17
1.07092E-05 4.24176E-17
1.21846E-05 3.28749E-17
1.37553E-05 2.58697E-17
1.54212E-05 2.06343E-17
1.71822E-05 1.66585E-17
1.90385E-05 1.35872E-17
2.09899E-05 1.12066E-17
2.30365E-05 9.32352E-18
2.51783E-05 7.81742E-18
2.74153E-05 6.60161E-18
2.97475E-05 5.61230E-18
3.21749E-05 4.80146E-18
3.46974E-05 4.13230E-18
3.73152E-05 3.57625E-18
4.00281E-05 3.11102E-18
4.28362E-05 2.71922E-18
4.57395E-05 2.38713E-18
4.87380E-05 2.10410E-18
5.18317E-05 1.86163E-18
5.50205E-05 1.65298E-18
5.83045E-05 1.47270E-18
6.16838E-05 1.31634E-18
6.51582E-05 1.18021E-18
6.87277E-05 1.06127E-18
7.23925E-05 9.56947E-19
7.61524E-05 8.65196E-19
9.21439E-05 5.91667E-19
1.09658E-04 4.18093E-19
1.28695E-04 3.03730E-19
1.49255E-04 2.25888E-19
1.71338E-04 1.71445E-19
1.94942E-04 1.32444E-19
2.20070E-04 1.03919E-19
2.46720E-04 8.26689E-20
2.74892E-04 6.65780E-20
3.04586E-04 5.42141E-20
3.35803E-04 4.45887E-20
3.68542E-04 3.70052E-20
4.02802E-04 3.09656E-20
4.38585E-04 2.61080E-20
4.75889E-04 2.21654E-20
5.14715E-04 1.89388E-20
5.55063E-04 1.62776E-20
5.96931E-04 1.40673E-20
6.40321E-04 1.22192E-20
6.85233E-04 1.06643E-20
7.31665E-04 9.34877E-21
7.79618E-04 8.22960E-21
8.29092E-04 7.27275E-21
8.80086E-04 6.45076E-21
9.32601E-04 5.74147E-21
9.86636E-04 5.12688E-21
1.04219E-03 4.59219E-21
1.09927E-03 4.12531E-21
1.15786E-03 3.71615E-21
1.21797E-03 3.35638E-21
1.27961E-03 3.03901E-21
1.34276E-03 2.75820E-21
1.40743E-03 2.50901E-21
1.47362E-03 2.28728E-21
1.54133E-03 2.08944E-21
1.61056E-03 1.91249E-21
1.68131E-03 1.75382E-21
1.75357E-03 1.61123E-21
1.82735E-03 1.48280E-21
1.90265E-03 1.36688E-21
1.97947E-03 1.26203E-21
2.05780E-03 1.16702E-21
2.13765E-03 1.08075E-21
2.21902E-03 1.00228E-21
2.30190E-03 9.30786E-22
2.38630E-03 8.65528E-22
2.47222E-03 8.05872E-22
2.55965E-03 7.51248E-22
2.64859E-03 7.01158E-22
2.73905E-03 6.55158E-22
2.83103E-03 6.12853E-22
2.92452E-03 5.73895E-22
3.01952E-03 5.37971E-22
3.11604E-03 5.04803E-22
3.21407E-03 4.74140E-22
3.31362E-03 4.45761E-22
3.41468E-03 4.19463E-22
3.51725E-03 3.95068E-22
3.62133E-03 3.72412E-22
3.72692E-03 3.51350E-22
3.83403E-03 3.31750E-22
3.94265E-03 3.13491E-22
4.05278E-03 2.96467E-22
4.16442E-03 2.80579E-22
4.27757E-03 2.65724E-22
4.39223E-03 2.51834E-22
4.50840E-03 2.38834E-22
4.62608E-03 2.26657E-22
4.74527E-03 2.15241E-22
4.86597E-03 2.04530E-22
4.98817E-03 1.94473E-22
5.11188E-03 1.85022E-22
5.23711E-03 1.76134E-22
5.36383E-03 1.67770E-22
5.49207E-03 1.59893E-22
5.62181E-03 1.52469E-22
5.75306E-03 1.45468E-22
5.88581E-03 1.38861E-22
6.02007E-03 1.32622E-22
6.15583E-03 1.26726E-22
6.29310E-03 1.21152E-22
6.43187E-03 1.15879E-22
6.57214E-03 1.10886E-22
6.71392E-03 1.06157E-22
6.85720E-03 1.01676E-22
7.00198E-03 9.74260E-23
7.14827E-03 9.33938E-23
7.29605E-03 8.95661E-23
7.44534E-03 8.59306E-23
7.59612E-03 8.24758E-23
7.97965E-03 7.45617E-23
8.37255E-03 6.75652E-23
8.77480E-03 6.13621E-23
9.18641E-03 5.58471E-23
9.60736E-03 5.09312E-23
1.00376E-02 4.65381E-23
1.04773E-02 4.26028E-23
1.09262E-02 3.90696E-23
1.13844E-02 3.58903E-23
1.18520E-02 3.30235E-23
1.23288E-02 3.04332E-23
1.28150E-02 2.80882E-23
1.33104E-02 2.59613E-23
1.38150E-02 2.40287E-23
1.43290E-02 2.22697E-23
1.48521E-02 2.06660E-23
1.53845E-02 1.92015E-23
1.59262E-02 1.78621E-23
1.64770E-02 1.66353E-23
1.70371E-02 1.55099E-23
1.76063E-02 1.44762E-23
1.81848E-02 1.35255E-23
1.87724E-02 1.26498E-23
1.93692E-02 1.18423E-23
1.99751E-02 1.10968E-23
2.05901E-02 1.04077E-23
2.12143E-02 9.76997E-24
2.18476E-02 9.17914E-24
2.24900E-02 8.63119E-24
2.31415E-02 8.12246E-24
2.38021E-02 7.64967E-24
2.44717E-02 7.20986E-24
2.51504E-02 6.80032E-24
2.58382E-02 6.41862E-24
2.65349E-02 6.06255E-24
2.72407E-02 5.73010E-24
2.79555E-02 5.41943E-24
2.86793E-02 5.12887E-24
2.94120E-02 4.85691E-24
3.01537E-02 4.60214E-24
3.09043E-02 4.36331E-24
3.16639E-02 4.13925E-24
3.24324E-02 3.92888E-24
3.32098E-02 3.73124E-24
3.39961E-02 3.54543E-24
3.47912E-02 3.37061E-24
3.55952E-02 3.20603E-24
3.64081E-02 3.05099E-24
3.72297E-02 2.90485E-24
3.80602E-02 2.76701E-24
3.88995E-02 2.63691E-24
3.97476E-02 2.51406E-24
4.06044E-02 2.39798E-24
4.14700E-02 2.28824E-24
4.23443E-02 2.18444E-24
4.32273E-02 2.08620E-24
4.41190E-02 1.99317E-24
4.50194E-02 1.90503E-24
4.59284E-02 1.82149E-24
4.68461E-02 1.74226E-24
4.87074E-02 1.59574E-24
5.06030E-02 1.46359E-24
5.25328E-02 1.34420E-24
5.44967E-02 1.23614E-24
5.64946E-02 1.13818E-24
5.85262E-02 1.04923E-24
6.05914E-02 9.68348E-25
6.26901E-02 8.94685E-25
6.48222E-02 8.27505E-25
6.69873E-02 7.66154E-25
6.91854E-02 7.10052E-25
7.14163E-02 6.58685E-25
7.36799E-02 6.11595E-25
7.59760E-02 5.68376E-25
7.83043E-02 5.28663E-25
8.06647E-02 4.92133E-25
8.30571E-02 4.58494E-25
8.54812E-02 4.27485E-25
8.79369E-02 3.98872E-25
9.04240E-02 3.72444E-25
9.29422E-02 3.48012E-25
9.54915E-02 3.25404E-25
9.80716E-02 3.04466E-25
1.00682E-01 2.85057E-25
1.03323E-01 2.67051E-25
1.05995E-01 2.50333E-25
1.08696E-01 2.34800E-25
1.11427E-01 2.20355E-25
1.14188E-01 2.06913E-25
1.16978E-01 1.94395E-25
1.19797E-01 1.82729E-25
1.22645E-01 1.71851E-25
1.25522E-01 1.61700E-25
1.28428E-01 1.52222E-25
1.31361E-01 1.43366E-25
1.34323E-01 1.35086E-25
1.37313E-01 1.27341E-25
1.40330E-01 1.20092E-25
1.43375E-01 1.13303E-25
1.46447E-01 1.06942E-25
1.49545E-01 1.00978E-25
1.52671E-01 9.53841E-26
1.55823E-01 9.01341E-26
1.59001E-01 8.52046E-26
1.62205E-01 8.05738E-26
1.65435E-01 7.62215E-26
1.68690E-01 7.21292E-26
1.71970E-01 6.82796E-26
1.75276E-01 6.46567E-26
1.78606E-01 6.12457E-26
1.81961E-01 5.80328E-26
1.85340E-01 5.50054E-26
1.88743E-01 5.21516E-26
1.92169E-01 4.94603E-26
1.95619E-01 4.69214E-26
1.99092E-01 4.45253E-26
2.02589E-01 4.22631E-26
2.06107E-01 4.01267E-26
2.09649E-01 3.81084E-26
2.13212E-01 3.62009E-26
2.16797E-01 3.43975E-26
2.20404E-01 3.26921E-26
2.24032E-01 3.10788E-26
2.27680E-01 2.95521E-26
2.31350E-01 2.81070E-26
2.35040E-01 2.67386E-26
2.38751E-01 2.54425E-26
2.42481E-01 2.42146E-26
2.46231E-01 2.30510E-26
2.50000E-01 2.19478E-26
2.53788E-01 2.09019E-26
2.57595E-01 1.99098E-26
2.61421E-01 1.89686E-26
2.65264E-01 1.80754E-26
2.69126E-01 1.72276E-26
2.73005E-01 1.64227E-26
2.76901E-01 1.56583E-26
2.80814E-01 1.49323E-26
2.84744E-01 1.42424E-26
2.88691E-01 1.35868E-26
2.92653E-01 1.29637E-26
2.96632E-01 1.23712E-26
3.00625E-01 1.18078E-26
3.04634E-01 1.12719E-26
3.08658E-01 1.07621E-26
3.12697E-01 1.02770E-26
3.16749E-01 9.81530E-27
3.20816E-01 9.37579E-27
3.24896E-01 8.95732E-27
3.28990E-01 8.55882E-27
3.33097E-01 8.17925E-27
3.37216E-01 7.81765E-27
3.41348E-01 7.47311E-27
3.45492E-01 7.14476E-27
3.49647E-01 6.83179E-27
3.53814E-01 6.53342E-27
3.57992E-01 6.24893E-27
3.62181E-01 5.97761E-27
3.66381E-01 5.71883E-27
3.70590E-01 5.47196E-27
3.74810E-01 5.23641E-27
3.79039E-01 5.01163E-27
3.83277E-01 4.79709E-27
3.87524E-01 4.59229E-27
3.91780E-01 4.39677E-27
3.96044E-01 4.21007E-27
4.00316E-01 4.03178E-27
4.04596E-01 3.86148E-27
4.08882E-01 3.69879E-27
4.13176E-01 3.54336E-27
4.17476E-01 3.39483E-27
4.21783E-01 3.25289E-27
4.26095E-01 3.11722E-27
4.30413E-01 2.98752E-27
4.34737E-01 2.86353E-27
4.39065E-01 2.74496E-27
4.43398E-01 2.63157E-27
4.47736E-01 2.52313E-27
4.52077E-01 2.41939E-27
4.56422E-01 2.32015E-27
4.60770E-01 2.22519E-27
4.65122E-01 2.13433E-27
4.69476E-01 2.04737E-27
4.73832E-01 1.96414E-27
4.78190E-01 1.88446E-27
4.82550E-01 1.80819E-27
4.86912E-01 1.73515E-27
4.91274E-01 1.66522E-27
4.95637E-01 1.59824E-27
5.00000E-01 1.53409E-27
5.04363E-01 1.47264E-27
5.08726E-01 1.41378E-27
5.13088E-01 1.35737E-27
5.17450E-01 1.30333E-27
5.21810E-01 1.25154E-27
5.26168E-01 1.20190E-27
5.30524E-01 1.15433E-27
5.34878E-01 1.10872E-27
5.39230E-01 1.06500E-27
5.43578E-01 1.02308E-27
5.47923E-01 9.82879E-28
5.52264E-01 9.44331E-28
5.56602E-01 9.07361E-28
5.60935E-01 8.71900E-28
5.65263E-01 8.37885E-28
5.69587E-01 8.05253E-28
5.73905E-01 7.73945E-28
5.78217E-01 7.43904E-28
5.82524E-01 7.15077E-28
5.86824E-01 6.87412E-28
5.91118E-01 6.60860E-28
5.95404E-01 6.35374E-28
5.99684E-01 6.10909E-28
6.03956E-01 5.87422E-28
6.08220E-01 5.64871E-28
6.12476E-01 5.43219E-28
6.16723E-01 5.22427E-28
6.20961E-01 5.02460E-28
6.25190E-01 4.83282E-28
6.29410E-01 4.64862E-28
6.33619E-01 4.47168E-28
6.37819E-01 4.30170E-28
6.42008E-01 4.13840E-28
6.46186E-01 3.98150E-28
6.50353E-01 3.83073E-28
6.54508E-01 3.68585E-28
6.58652E-01 3.54661E-28
6.62784E-01 3.41279E-28
6.66903E-01 3.28416E-28
6.71010E-01 3.16052E-28
6.75104E-01 3.04166E-28
6.79184E-01 2.92739E-28
6.83251E-01 2.81752E-28
6.87303E-01 2.71187E-28
6.91342E-01 2.61029E-28
6.95366E-01 2.51259E-28
6.99375E-01 2.41864E-28
7.03368E-01 2.32827E-28
7.07347E-01 2.24135E-28
7.11309E-01 2.15774E-28
7.15256E-01 2.07730E-28
7.19186E-01 1.99991E-28
7.23099E-01 1.92546E-28
7.26995E-01 1.85382E-28
7.30874E-01 1.78488E-28
7.34736E-01 1.71854E-28
7.38579E-01 1.65469E-28
7.42405E-01 1.59325E-28
7.46212E-01 1.53410E-28
7.50000E-01 1.47717E-28
7.53769E-01 1.42237E-28
7.57519E-01 1.36961E-28
7.61249E-01 1.31882E-28
7.64960E-01 1.26992E-28
7.68650E-01 1.22283E-28
7.72320E-01 1.17749E-28
7.75968E-01 1.13382E-28
7.79596E-01 1.09178E-28
7.83203E-01 1.05128E-28
7.86788E-01 1.01227E-28
7.90351E-01 9.74705E-29
7.93893E-01 9.38517E-29
7.97411E-01 9.03656E-29
8.00908E-01 8.70073E-29
8.04381E-01 8.37719E-29
8.07831E-01 8.06547E-29
8.11257E-01 7.76512E-29
8.14660E-01 7.47572E-29
8.18039E-01 7.19685E-29
8.21394E-01 6.92811E-29
8.24724E-01 6.66913E-29
8.28030E-01 6.41953E-29
8.31310E-01 6.17898E-29
8.34565E-01 5.94712E-29
8.37795E-01 5.72363E-29
8.40999E-01 5.50820E-29
8.44177E-01 5.30053E-29
8.47329E-01 5.10034E-29
8.50455E-01 4.90734E-29
8.53553E-01 4.72128E-29
8.56625E-01 4.54188E-29
8.59670E-01 4.36891E-29
8.62687E-01 4.20214E-29
8.65677E-01 4.04133E-29
8.68639E-01 3.88626E-29
8.71572E-01 3.73672E-29
8.74478E-01 3.59252E-29
8.77355E-01 3.45346E-29
8.80203E-01 3.31935E-29
8.83022E-01 3.19000E-29
8.85812E-01 3.06526E-29
8.88573E-01 2.94495E-29
8.91304E-01 2.82891E-29
8.94005E-01 2.71698E-29
8.96677E-01 2.60903E-29
8.99318E-01 2.50490E-29
9.01928E-01 2.40447E-29
9.04508E-01 2.30759E-29
9.07058E-01 2.21415E-29
9.09576E-01 2.12401E-29
9.12063E-01 2.03707E-29
9.14519E-01 1.95320E-29
9.16943E-01 1.87231E-29
9.19335E-01 1.79428E-29
9.21696E-01 1.71902E-29
9.24024E-01 1.64642E-29
9.26320E-01 1.57641E-29
9.28584E-01 1.50888E-29
9.30815E-01 1.44374E-29
9.33013E-01 1.38093E-29
9.35178E-01 1.32035E-29
9.37310E-01 1.26193E-29
9.39409E-01 1.20560E-29
9.41474E-01 1.15128E-29
9.43505E-01 1.09891E-29
9.45503E-01 1.04842E-29
9.47467E-01 9.99751E-30
9.49397E-01 9.52836E-30
9.51293E-01 9.07619E-30
9.53154E-01 8.64044E-30
9.54981E-01 8.22056E-30
9.56773E-01 7.81604E-30
9.58530E-01 7.42638E-30
9.60252E-01 7.05108E-30
9.61940E-01 6.68970E-30
9.63592E-01 6.34178E-30
9.65209E-01 6.00690E-30
9.66790E-01 5.68464E-30
9.68336E-01 5.37462E-30
9.69846E-01 5.07645E-30
9.71321E-01 4.78977E-30
9.72759E-01 4.51424E-30
9.74162E-01 4.24950E-30
9.75528E-01 3.99525E-30
9.76858E-01 3.75118E-30
9.78152E-01 3.51699E-30
9.79410E-01 3.29240E-30
9.80631E-01 3.07714E-30
9.81815E-01 2.87094E-30
9.82963E-01 2.67357E-30
9.84074E-01 2.48478E-30
9.85148E-01 2.30435E-30
9.86185E-01 2.13205E-30
9.87185E-01 1.96770E-30
9.88148E-01 1.81108E-30
9.89074E-01 1.66202E-30
9.89962E-01 1.52033E-30
9.90814E-01 1.38585E-30
9.91627E-01 1.25841E-30
9.92404E-01 1.13787E-30
9.93143E-01 1.02408E-30
9.93844E-01 9.16906E-31
9.94508E-01 8.16225E-31
9.95134E-01 7.21915E-31
9.95722E-01 6.33865E-31
9.96273E-01 5.51971E-31
9.96786E-01 4.76137E-31
9.97261E-01 4.06272E-31
9.97698E-01 3.42295E-31
9.98097E-01 2.84130E-31
9.98459E-01 2.31708E-31
9.98782E-01 1.84969E-31
9.99067E-01 1.43857E-31
9.99315E-01 1.08323E-31
9.99524E-01 7.83271E-32
9.99695E-01 5.38325E-32
9.99829E-01 3.48109E-32
9.99924E-01 2.12400E-32
9.99981E-01 1.31038E-32
1.00000E+00 1.03928E-32
