 #
 # Subroutine ELSEPA. Elastic scattering of electrons and positrons
 #                    by neutral atoms and positive ions
 #
 # Projectile: positron
 # Kinetic energy = 2.00000E+08 eV = 7.34987E+06 a.u.
 #
 # WARNING: High-energy factorization with free-atom DF screening.
 #          Absorption, polarization and exchange corrections are
 #          switched off.
 #          Phase shifts are calculated for the bare nucleus.
 #          Scattering amplitudes are not evaluated.
 #
 # Element: Hg,  Z =  80,  atomic weight = 2.00590E+02 g/mol
 #
 # Nuclear model: Fermi distribution
 #                Average radius = 6.26355E-13 cm
 #                Skin thickness = 5.46000E-14 cm
 #
 # Number of electrons = 80
 #
 # Total elastic cross section = 7.89049E-18 cm**2 = 2.81775E-01 a0**2
 # 1st transport cross section = 2.94673E-25 cm**2 = 1.05230E-08 a0**2
 # 2nd transport cross section = 8.81800E-25 cm**2 = 3.14896E-08 a0**2
 #
 #
 # Differential cross section:                       MU=(1-COS(THETA))/2
 #
 #  THETA        MU          DCS          DCS        Sherman      error
 #  (deg)                 (cm**2/sr)   (a0**2/sr)    function
 #----------------------------------------------------------------------
0.00000E+00 1.70917E-09
7.61557E-13 1.69812E-09
1.18994E-12 1.69198E-09
1.71346E-12 1.68453E-09
2.33225E-12 1.67580E-09
3.04617E-12 1.66583E-09
3.85530E-12 1.65467E-09
4.75964E-12 1.64234E-09
5.75917E-12 1.62891E-09
6.85391E-12 1.61427E-09
8.04379E-12 1.59882E-09
9.32893E-12 1.58245E-09
1.07092E-11 1.56500E-09
1.21847E-11 1.54699E-09
1.37554E-11 1.52805E-09
1.54213E-11 1.50838E-09
1.71823E-11 1.48841E-09
1.90386E-11 1.46741E-09
2.09900E-11 1.44612E-09
2.30367E-11 1.42465E-09
2.51785E-11 1.40222E-09
2.74156E-11 1.37988E-09
2.97478E-11 1.35725E-09
3.21752E-11 1.33410E-09
3.46979E-11 1.31122E-09
3.73157E-11 1.28789E-09
4.00286E-11 1.26450E-09
4.28368E-11 1.24153E-09
4.57402E-11 1.21792E-09
4.87388E-11 1.19469E-09
5.18325E-11 1.17181E-09
5.50215E-11 1.14846E-09
5.83057E-11 1.12572E-09
6.16850E-11 1.10309E-09
6.51595E-11 1.08043E-09
6.87293E-11 1.05842E-09
7.23943E-11 1.03630E-09
7.61544E-11 1.01451E-09
1.18991E-10 8.15226E-10
1.71347E-10 6.51546E-10
2.33223E-10 5.21107E-10
3.04617E-10 4.18787E-10
3.85531E-10 3.38594E-10
4.75965E-10 2.75535E-10
5.75917E-10 2.25578E-10
6.85389E-10 1.83880E-10
8.04380E-10 1.53291E-10
9.32891E-10 1.29000E-10
1.07092E-09 1.08075E-10
1.21847E-09 9.20194E-11
1.37554E-09 7.85127E-11
1.54213E-09 6.72716E-11
1.71823E-09 5.83348E-11
1.90386E-09 5.05211E-11
2.09900E-09 4.40938E-11
2.30367E-09 3.87948E-11
2.51785E-09 3.41017E-11
2.74156E-09 3.02104E-11
2.97478E-09 2.68741E-11
3.21752E-09 2.39417E-11
3.46978E-09 2.14620E-11
3.73156E-09 1.92656E-11
4.00286E-09 1.73432E-11
4.28368E-09 1.56918E-11
4.57402E-09 1.41877E-11
4.87388E-09 1.28768E-11
5.18326E-09 1.17261E-11
5.50215E-09 1.06727E-11
5.83057E-09 9.75017E-12
6.16850E-09 8.92142E-12
6.51596E-09 8.16863E-12
6.87293E-09 7.50297E-12
7.23942E-09 6.89380E-12
7.61544E-09 6.34433E-12
1.18991E-08 2.98325E-12
1.71347E-08 1.57349E-12
2.33223E-08 9.11534E-13
3.04617E-08 5.66623E-13
3.85531E-08 3.71229E-13
4.75965E-08 2.53579E-13
5.75917E-08 1.79033E-13
6.85389E-08 1.30007E-13
8.04380E-08 9.66592E-14
9.32891E-08 7.33569E-14
1.07092E-07 5.66773E-14
1.21847E-07 4.44798E-14
1.37554E-07 3.53920E-14
1.54213E-07 2.85088E-14
1.71823E-07 2.32185E-14
1.90386E-07 1.90989E-14
2.09900E-07 1.58529E-14
2.30367E-07 1.32678E-14
2.51785E-07 1.11886E-14
2.74156E-07 9.50078E-15
2.97478E-07 8.11979E-15
3.21752E-07 6.98116E-15
3.46978E-07 6.03560E-15
3.73156E-07 5.24507E-15
4.00286E-07 4.58003E-15
4.28368E-07 4.01726E-15
4.57402E-07 3.53844E-15
4.87388E-07 3.12894E-15
5.18325E-07 2.77704E-15
5.50215E-07 2.47327E-15
5.83057E-07 2.20991E-15
6.16850E-07 1.98064E-15
6.51596E-07 1.78035E-15
6.87293E-07 1.60472E-15
7.23942E-07 1.45021E-15
7.61543E-07 1.31384E-15
1.18991E-06 5.48371E-16
1.71347E-06 2.67506E-16
2.33223E-06 1.45520E-16
3.04617E-06 8.57930E-17
3.85531E-06 5.38021E-17
4.75964E-06 3.54286E-17
5.75916E-06 2.42709E-17
6.85388E-06 1.71798E-17
8.04378E-06 1.24990E-17
9.32888E-06 9.30895E-18
1.07092E-05 7.07444E-18
1.21846E-05 5.47168E-18
1.37553E-05 4.29799E-18
1.54212E-05 3.42265E-18
1.71822E-05 2.75912E-18
1.90385E-05 2.24738E-18
2.09899E-05 1.85129E-18
2.30365E-05 1.53840E-18
2.51783E-05 1.28847E-18
2.74153E-05 1.08695E-18
2.97475E-05 9.23157E-19
3.21749E-05 7.89055E-19
3.46974E-05 6.78495E-19
3.73152E-05 5.86712E-19
4.00281E-05 5.09993E-19
4.28362E-05 4.45434E-19
4.57395E-05 3.90765E-19
4.87380E-05 3.44206E-19
5.18317E-05 3.04351E-19
5.50205E-05 2.70081E-19
5.83045E-05 2.40491E-19
6.16838E-05 2.14843E-19
6.51582E-05 1.92529E-19
6.87277E-05 1.73043E-19
7.23925E-05 1.55964E-19
7.61524E-05 1.41163E-19
9.21439E-05 9.64288E-20
1.09658E-04 6.80856E-20
1.28695E-04 4.94342E-20
1.49255E-04 3.67512E-20
1.71338E-04 2.78874E-20
1.94942E-04 2.15413E-20
2.20070E-04 1.69017E-20
2.46720E-04 1.34463E-20
2.74892E-04 1.08304E-20
3.04586E-04 8.82056E-21
3.35803E-04 7.25591E-21
3.68542E-04 6.02315E-21
4.02802E-04 5.04128E-21
4.38585E-04 4.25145E-21
4.75889E-04 3.61029E-21
5.14715E-04 3.08547E-21
5.55063E-04 2.65253E-21
5.96931E-04 2.29286E-21
6.40321E-04 1.99208E-21
6.85233E-04 1.73897E-21
7.31665E-04 1.52464E-21
7.79618E-04 1.34225E-21
8.29092E-04 1.18627E-21
8.80086E-04 1.05224E-21
9.32601E-04 9.36551E-22
9.86636E-04 8.36277E-22
1.04219E-03 7.49016E-22
1.09927E-03 6.72797E-22
1.15786E-03 6.05984E-22
1.21797E-03 5.47220E-22
1.27961E-03 4.95369E-22
1.34276E-03 4.49478E-22
1.40743E-03 4.08747E-22
1.47362E-03 3.72493E-22
1.54133E-03 3.40141E-22
1.61056E-03 3.11198E-22
1.68131E-03 2.85242E-22
1.75357E-03 2.61912E-22
1.82735E-03 2.40895E-22
1.90265E-03 2.21923E-22
1.97947E-03 2.04762E-22
2.05780E-03 1.89209E-22
2.13765E-03 1.75087E-22
2.21902E-03 1.62242E-22
2.30190E-03 1.50537E-22
2.38630E-03 1.39854E-22
2.47222E-03 1.30088E-22
2.55965E-03 1.21146E-22
2.64859E-03 1.12947E-22
2.73905E-03 1.05418E-22
2.83103E-03 9.84955E-23
2.92452E-03 9.21212E-23
3.01952E-03 8.62443E-23
3.11604E-03 8.08193E-23
3.21407E-03 7.58053E-23
3.31362E-03 7.11658E-23
3.41468E-03 6.68680E-23
3.51725E-03 6.28821E-23
3.62133E-03 5.91818E-23
3.72692E-03 5.57429E-23
3.83403E-03 5.25438E-23
3.94265E-03 4.95648E-23
4.05278E-03 4.67882E-23
4.16442E-03 4.41979E-23
4.27757E-03 4.17791E-23
4.39223E-03 3.95186E-23
4.50840E-03 3.74042E-23
4.62608E-03 3.54248E-23
4.74527E-03 3.35704E-23
4.86597E-03 3.18316E-23
4.98817E-03 3.02002E-23
5.11188E-03 2.86682E-23
5.23711E-03 2.72286E-23
5.36383E-03 2.58748E-23
5.49207E-03 2.46010E-23
5.62181E-03 2.34015E-23
5.75306E-03 2.22713E-23
5.88581E-03 2.12057E-23
6.02007E-03 2.02005E-23
6.15583E-03 1.92515E-23
6.29310E-03 1.83552E-23
6.43187E-03 1.75081E-23
6.57214E-03 1.67070E-23
6.71392E-03 1.59491E-23
6.85720E-03 1.52317E-23
7.00198E-03 1.45522E-23
7.14827E-03 1.39082E-23
7.29605E-03 1.32977E-23
7.44534E-03 1.27186E-23
7.59612E-03 1.21690E-23
7.97965E-03 1.09130E-23
8.37255E-03 9.80670E-24
8.77480E-03 8.82956E-24
9.18641E-03 7.96434E-24
9.60736E-03 7.19636E-24
1.00376E-02 6.51314E-24
1.04773E-02 5.90399E-24
1.09262E-02 5.35975E-24
1.13844E-02 4.87255E-24
1.18520E-02 4.43557E-24
1.23288E-02 4.04294E-24
1.28150E-02 3.68954E-24
1.33104E-02 3.37094E-24
1.38150E-02 3.08325E-24
1.43290E-02 2.82308E-24
1.48521E-02 2.58747E-24
1.53845E-02 2.37380E-24
1.59262E-02 2.17976E-24
1.64770E-02 2.00334E-24
1.70371E-02 1.84274E-24
1.76063E-02 1.69637E-24
1.81848E-02 1.56282E-24
1.87724E-02 1.44084E-24
1.93692E-02 1.32931E-24
1.99751E-02 1.22723E-24
2.05901E-02 1.13371E-24
2.12143E-02 1.04796E-24
2.18476E-02 9.69270E-25
2.24900E-02 8.96988E-25
2.31415E-02 8.30541E-25
2.38021E-02 7.69412E-25
2.44717E-02 7.13133E-25
2.51504E-02 6.61281E-25
2.58382E-02 6.13475E-25
2.65349E-02 5.69371E-25
2.72407E-02 5.28655E-25
2.79555E-02 4.91044E-25
2.86793E-02 4.56280E-25
2.94120E-02 4.24131E-25
3.01537E-02 3.94382E-25
3.09043E-02 3.66841E-25
3.16639E-02 3.41330E-25
3.24324E-02 3.17688E-25
3.32098E-02 2.95769E-25
3.39961E-02 2.75437E-25
3.47912E-02 2.56570E-25
3.55952E-02 2.39054E-25
3.64081E-02 2.22787E-25
3.72297E-02 2.07673E-25
3.80602E-02 1.93627E-25
3.88995E-02 1.80567E-25
3.97476E-02 1.68420E-25
4.06044E-02 1.57120E-25
4.14700E-02 1.46603E-25
4.23443E-02 1.36813E-25
4.32273E-02 1.27696E-25
4.41190E-02 1.19205E-25
4.50194E-02 1.11294E-25
4.59284E-02 1.03921E-25
4.68461E-02 9.70490E-26
4.87074E-02 8.46674E-26
5.06030E-02 7.38961E-26
5.25328E-02 6.45186E-26
5.44967E-02 5.63492E-26
5.64946E-02 4.92278E-26
5.85262E-02 4.30168E-26
6.05914E-02 3.75973E-26
6.26901E-02 3.28665E-26
6.48222E-02 2.87354E-26
6.69873E-02 2.51270E-26
6.91854E-02 2.19744E-26
7.14163E-02 1.92194E-26
7.36799E-02 1.68116E-26
7.59760E-02 1.47070E-26
7.83043E-02 1.28672E-26
8.06647E-02 1.12589E-26
8.30571E-02 9.85302E-27
8.54812E-02 8.62402E-27
8.79369E-02 7.54971E-27
9.04240E-02 6.61070E-27
9.29422E-02 5.79001E-27
9.54915E-02 5.07280E-27
9.80716E-02 4.44609E-27
1.00682E-01 3.89850E-27
1.03323E-01 3.42010E-27
1.05995E-01 3.00218E-27
1.08696E-01 2.63712E-27
1.11427E-01 2.31825E-27
1.14188E-01 2.03973E-27
1.16978E-01 1.79644E-27
1.19797E-01 1.58392E-27
1.22645E-01 1.39825E-27
1.25522E-01 1.23601E-27
1.28428E-01 1.09420E-27
1.31361E-01 9.70204E-28
1.34323E-01 8.61737E-28
1.37313E-01 7.66798E-28
1.40330E-01 6.83644E-28
1.43375E-01 6.10752E-28
1.46447E-01 5.46793E-28
1.49545E-01 4.90610E-28
1.52671E-01 4.41194E-28
1.55823E-01 3.97667E-28
1.59001E-01 3.59264E-28
1.62205E-01 3.25321E-28
1.65435E-01 2.95261E-28
1.68690E-01 2.68582E-28
1.71970E-01 2.44848E-28
1.75276E-01 2.23682E-28
1.78606E-01 2.04758E-28
1.81961E-01 1.87790E-28
1.85340E-01 1.72535E-28
1.88743E-01 1.58780E-28
1.92169E-01 1.46342E-28
1.95619E-01 1.35060E-28
1.99092E-01 1.24799E-28
2.02589E-01 1.15440E-28
2.06107E-01 1.06879E-28
2.09649E-01 9.90284E-29
2.13212E-01 9.18113E-29
2.16797E-01 8.51610E-29
2.20404E-01 7.90199E-29
2.24032E-01 7.33381E-29
2.27680E-01 6.80718E-29
2.31350E-01 6.31832E-29
2.35040E-01 5.86390E-29
2.38751E-01 5.44101E-29
2.42481E-01 5.04710E-29
2.46231E-01 4.67989E-29
2.50000E-01 4.33739E-29
2.53788E-01 4.01779E-29
2.57595E-01 3.71950E-29
2.61421E-01 3.44107E-29
2.65264E-01 3.18119E-29
2.69126E-01 2.93867E-29
2.73005E-01 2.71241E-29
2.76901E-01 2.50142E-29
2.80814E-01 2.30476E-29
2.84744E-01 2.12156E-29
2.88691E-01 1.95104E-29
2.92653E-01 1.79242E-29
2.96632E-01 1.64500E-29
3.00625E-01 1.50812E-29
3.04634E-01 1.38115E-29
3.08658E-01 1.26348E-29
3.12697E-01 1.15455E-29
3.16749E-01 1.05382E-29
3.20816E-01 9.60785E-30
3.24896E-01 8.74961E-30
3.28990E-01 7.95885E-30
3.33097E-01 7.23119E-30
3.37216E-01 6.56249E-30
3.41348E-01 5.94879E-30
3.45492E-01 5.38634E-30
3.49647E-01 4.87161E-30
3.53814E-01 4.40122E-30
3.57992E-01 3.97199E-30
3.62181E-01 3.58093E-30
3.66381E-01 3.22518E-30
3.70590E-01 2.90208E-30
3.74810E-01 2.60911E-30
3.79039E-01 2.34390E-30
3.83277E-01 2.10423E-30
3.87524E-01 1.88802E-30
3.91780E-01 1.69332E-30
3.96044E-01 1.51832E-30
4.00316E-01 1.36131E-30
4.04596E-01 1.22072E-30
4.08882E-01 1.09507E-30
4.13176E-01 9.83002E-31
4.17476E-01 8.83253E-31
4.21783E-01 7.94654E-31
4.26095E-01 7.16125E-31
4.30413E-01 6.46670E-31
4.34737E-01 5.85377E-31
4.39065E-01 5.31403E-31
4.43398E-01 4.83980E-31
4.47736E-01 4.42403E-31
4.52077E-01 4.06030E-31
4.56422E-01 3.74276E-31
4.60770E-01 3.46607E-31
4.65122E-01 3.22542E-31
4.69476E-01 3.01644E-31
4.73832E-01 2.83520E-31
4.78190E-01 2.67814E-31
4.82550E-01 2.54207E-31
4.86912E-01 2.42416E-31
4.91274E-01 2.32185E-31
4.95637E-01 2.23288E-31
5.00000E-01 2.15523E-31
5.04363E-01 2.08713E-31
5.08726E-01 2.02702E-31
5.13088E-01 1.97353E-31
5.17450E-01 1.92546E-31
5.21810E-01 1.88178E-31
5.26168E-01 1.84158E-31
5.30524E-01 1.80410E-31
5.34878E-01 1.76869E-31
5.39230E-01 1.73478E-31
5.43578E-01 1.70194E-31
5.47923E-01 1.66976E-31
5.52264E-01 1.63794E-31
5.56602E-01 1.60624E-31
5.60935E-01 1.57445E-31
5.65263E-01 1.54244E-31
5.69587E-01 1.51010E-31
5.73905E-01 1.47735E-31
5.78217E-01 1.44417E-31
5.82524E-01 1.41053E-31
5.86824E-01 1.37644E-31
5.91118E-01 1.34193E-31
5.95404E-01 1.30704E-31
5.99684E-01 1.27181E-31
6.03956E-01 1.23630E-31
6.08220E-01 1.20059E-31
6.12476E-01 1.16473E-31
6.16723E-01 1.12880E-31
6.20961E-01 1.09287E-31
6.25190E-01 1.05702E-31
6.29410E-01 1.02132E-31
6.33619E-01 9.85843E-32
6.37819E-01 9.50655E-32
6.42008E-01 9.15821E-32
6.46186E-01 8.81404E-32
6.50353E-01 8.47462E-32
6.54508E-01 8.14049E-32
6.58652E-01 7.81214E-32
6.62784E-01 7.49001E-32
6.66903E-01 7.17452E-32
6.71010E-01 6.86603E-32
6.75104E-01 6.56486E-32
6.79184E-01 6.27128E-32
6.83251E-01 5.98551E-32
6.87303E-01 5.70776E-32
6.91342E-01 5.43818E-32
6.95366E-01 5.17688E-32
6.99375E-01 4.92394E-32
7.03368E-01 4.67942E-32
7.07347E-01 4.44334E-32
7.11309E-01 4.21567E-32
7.15256E-01 3.99639E-32
7.19186E-01 3.78544E-32
7.23099E-01 3.58273E-32
7.26995E-01 3.38817E-32
7.30874E-01 3.20162E-32
7.34736E-01 3.02296E-32
7.38579E-01 2.85203E-32
7.42405E-01 2.68867E-32
7.46212E-01 2.53269E-32
7.50000E-01 2.38393E-32
7.53769E-01 2.24219E-32
7.57519E-01 2.10726E-32
7.61249E-01 1.97895E-32
7.64960E-01 1.85704E-32
7.68650E-01 1.74133E-32
7.72320E-01 1.63159E-32
7.75968E-01 1.52763E-32
7.79596E-01 1.42923E-32
7.83203E-01 1.33616E-32
7.86788E-01 1.24823E-32
7.90351E-01 1.16522E-32
7.93893E-01 1.08693E-32
7.97411E-01 1.01315E-32
8.00908E-01 9.43687E-33
8.04381E-01 8.78342E-33
8.07831E-01 8.16924E-33
8.11257E-01 7.59248E-33
8.14660E-01 7.05133E-33
8.18039E-01 6.54404E-33
8.21394E-01 6.06888E-33
8.24724E-01 5.62422E-33
8.28030E-01 5.20845E-33
8.31310E-01 4.82003E-33
8.34565E-01 4.45748E-33
8.37795E-01 4.11937E-33
8.40999E-01 3.80433E-33
8.44177E-01 3.51104E-33
8.47329E-01 3.23825E-33
8.50455E-01 2.98474E-33
8.53553E-01 2.74935E-33
8.56625E-01 2.53100E-33
8.59670E-01 2.32862E-33
8.62687E-01 2.14122E-33
8.65677E-01 1.96785E-33
8.68639E-01 1.80760E-33
8.71572E-01 1.65963E-33
8.74478E-01 1.52310E-33
8.77355E-01 1.39726E-33
8.80203E-01 1.28137E-33
8.83022E-01 1.17475E-33
8.85812E-01 1.07675E-33
8.88573E-01 9.86762E-34
8.91304E-01 9.04198E-34
8.94005E-01 8.28520E-34
8.96677E-01 7.59219E-34
8.99318E-01 6.95816E-34
9.01928E-01 6.37861E-34
9.04508E-01 5.84933E-34
9.07058E-01 5.36639E-34
9.09576E-01 4.92610E-34
9.12063E-01 4.52502E-34
9.14519E-01 4.15994E-34
9.16943E-01 3.82788E-34
9.19335E-01 3.52605E-34
9.21696E-01 3.25187E-34
9.24024E-01 3.00293E-34
9.26320E-01 2.77701E-34
9.28584E-01 2.57204E-34
9.30815E-01 2.38612E-34
9.33013E-01 2.21749E-34
9.35178E-01 2.06451E-34
9.37310E-01 1.92569E-34
9.39409E-01 1.79967E-34
9.41474E-01 1.68516E-34
9.43505E-01 1.58101E-34
9.45503E-01 1.48616E-34
9.47467E-01 1.39965E-34
9.49397E-01 1.32058E-34
9.51293E-01 1.24816E-34
9.53154E-01 1.18164E-34
9.54981E-01 1.12038E-34
9.56773E-01 1.06378E-34
9.58530E-01 1.01128E-34
9.60252E-01 9.62420E-35
9.61940E-01 9.16754E-35
9.63592E-01 8.73898E-35
9.65209E-01 8.33505E-35
9.66790E-01 7.95281E-35
9.68336E-01 7.58935E-35
9.69846E-01 7.24250E-35
9.71321E-01 6.91017E-35
9.72759E-01 6.59059E-35
9.74162E-01 6.28216E-35
9.75528E-01 5.98361E-35
9.76858E-01 5.69391E-35
9.78152E-01 5.41207E-35
9.79410E-01 5.13742E-35
9.80631E-01 4.86931E-35
9.81815E-01 4.60744E-35
9.82963E-01 4.35133E-35
9.84074E-01 4.10073E-35
9.85148E-01 3.85568E-35
9.86185E-01 3.61613E-35
9.87185E-01 3.38196E-35
9.88148E-01 3.15328E-35
9.89074E-01 2.93041E-35
9.89962E-01 2.71335E-35
9.90814E-01 2.50245E-35
9.91627E-01 2.29793E-35
9.92404E-01 2.10006E-35
9.93143E-01 1.90920E-35
9.93844E-01 1.72557E-35
9.94508E-01 1.54959E-35
9.95134E-01 1.38150E-35
9.95722E-01 1.22173E-35
9.96273E-01 1.07051E-35
9.96786E-01 9.28189E-36
9.97261E-01 7.95064E-36
9.97698E-01 6.71407E-36
9.98097E-01 5.57576E-36
9.98459E-01 4.53690E-36
9.98782E-01 3.60135E-36
9.99067E-01 2.76987E-36
9.99315E-01 2.04582E-36
9.99524E-01 1.43018E-36
9.99695E-01 9.24270E-37
9.99829E-01 5.29366E-37
9.99924E-01 2.46823E-37
9.99981E-01 7.69043E-38
1.00000E+00 2.03714E-38
