 #
 # Subroutine ELSEPA. Elastic scattering of electrons and positrons
 #                    by neutral atoms and positive ions
 #
 # Projectile: positron
 # Kinetic energy = 4.00000E+06 eV = 1.46997E+05 a.u.
 #
 # WARNING: High-energy factorization with free-atom DF screening.
 #          Absorption, polarization and exchange corrections are
 #          switched off.
 #          Phase shifts are calculated for the bare nucleus.
 #          Scattering amplitudes are not evaluated.
 #
 # Element: Hg,  Z =  80,  atomic weight = 2.00590E+02 g/mol
 #
 # Nuclear model: Fermi distribution
 #                Average radius = 6.26355E-13 cm
 #                Skin thickness = 5.46000E-14 cm
 #
 # Number of electrons = 80
 #
 # Total elastic cross section = 7.98187E-18 cm**2 = 2.85038E-01 a0**2
 # 1st transport cross section = 3.65705E-22 cm**2 = 1.30596E-05 a0**2
 # 2nd transport cross section = 1.04880E-21 cm**2 = 3.74532E-05 a0**2
 #
 #
 # Differential cross section:                       MU=(1-COS(THETA))/2
 #
 #  THETA        MU          DCS          DCS        Sherman      error
 #  (deg)                 (cm**2/sr)   (a0**2/sr)    function
 #----------------------------------------------------------------------
0.00000E+00 8.65075E-13
7.61557E-13 8.65071E-13
1.18994E-12 8.65069E-13
1.71346E-12 8.65067E-13
2.33225E-12 8.65064E-13
3.04617E-12 8.65061E-13
3.85530E-12 8.65058E-13
4.75964E-12 8.65054E-13
5.75917E-12 8.65051E-13
6.85391E-12 8.65046E-13
8.04379E-12 8.65041E-13
9.32893E-12 8.65036E-13
1.07092E-11 8.65031E-13
1.21847E-11 8.65025E-13
1.37554E-11 8.65019E-13
1.54213E-11 8.65013E-13
1.71823E-11 8.65006E-13
1.90386E-11 8.64999E-13
2.09900E-11 8.64992E-13
2.30367E-11 8.64984E-13
2.51785E-11 8.64976E-13
2.74156E-11 8.64967E-13
2.97478E-11 8.64958E-13
3.21752E-11 8.64949E-13
3.46979E-11 8.64940E-13
3.73157E-11 8.64930E-13
4.00286E-11 8.64919E-13
4.28368E-11 8.64909E-13
4.57402E-11 8.64898E-13
4.87388E-11 8.64887E-13
5.18325E-11 8.64875E-13
5.50215E-11 8.64863E-13
5.83057E-11 8.64851E-13
6.16850E-11 8.64838E-13
6.51595E-11 8.64825E-13
6.87293E-11 8.64811E-13
7.23943E-11 8.64798E-13
7.61544E-11 8.64784E-13
1.18991E-10 8.64624E-13
1.71347E-10 8.64429E-13
2.33223E-10 8.64199E-13
3.04617E-10 8.63934E-13
3.85531E-10 8.63635E-13
4.75965E-10 8.63301E-13
5.75917E-10 8.62933E-13
6.85389E-10 8.62530E-13
8.04380E-10 8.62092E-13
9.32891E-10 8.61620E-13
1.07092E-09 8.61114E-13
1.21847E-09 8.60574E-13
1.37554E-09 8.60000E-13
1.54213E-09 8.59392E-13
1.71823E-09 8.58750E-13
1.90386E-09 8.58075E-13
2.09900E-09 8.57366E-13
2.30367E-09 8.56624E-13
2.51785E-09 8.55849E-13
2.74156E-09 8.55040E-13
2.97478E-09 8.54199E-13
3.21752E-09 8.53326E-13
3.46978E-09 8.52420E-13
3.73156E-09 8.51481E-13
4.00286E-09 8.50510E-13
4.28368E-09 8.49508E-13
4.57402E-09 8.48474E-13
4.87388E-09 8.47409E-13
5.18326E-09 8.46312E-13
5.50215E-09 8.45184E-13
5.83057E-09 8.44025E-13
6.16850E-09 8.42836E-13
6.51596E-09 8.41617E-13
6.87293E-09 8.40368E-13
7.23942E-09 8.39089E-13
7.61544E-09 8.37780E-13
1.18991E-08 8.23104E-13
1.71347E-08 8.05809E-13
2.33223E-08 7.86142E-13
3.04617E-08 7.64523E-13
3.85531E-08 7.41331E-13
4.75965E-08 7.16933E-13
5.75917E-08 6.91656E-13
6.85389E-08 6.65551E-13
8.04380E-08 6.39176E-13
9.32891E-08 6.12801E-13
1.07092E-07 5.86650E-13
1.21847E-07 5.60911E-13
1.37554E-07 5.35550E-13
1.54213E-07 5.10779E-13
1.71823E-07 4.86806E-13
1.90386E-07 4.63699E-13
2.09900E-07 4.41501E-13
2.30367E-07 4.20199E-13
2.51785E-07 3.99668E-13
2.74156E-07 3.80104E-13
2.97478E-07 3.61492E-13
3.21752E-07 3.43809E-13
3.46978E-07 3.27025E-13
3.73156E-07 3.11004E-13
4.00286E-07 2.95792E-13
4.28368E-07 2.81394E-13
4.57402E-07 2.67772E-13
4.87388E-07 2.54885E-13
5.18325E-07 2.42670E-13
5.50215E-07 2.31049E-13
5.83057E-07 2.20064E-13
6.16850E-07 2.09679E-13
6.51596E-07 1.99859E-13
6.87293E-07 1.90570E-13
7.23942E-07 1.81732E-13
7.61543E-07 1.73361E-13
1.18991E-06 1.09840E-13
1.71347E-06 7.23357E-14
2.33223E-06 4.91490E-14
3.04617E-06 3.46026E-14
3.85531E-06 2.51124E-14
4.75964E-06 1.87118E-14
5.75916E-06 1.42596E-14
6.85388E-06 1.10463E-14
8.04378E-06 8.70548E-15
9.32888E-06 6.95880E-15
1.07092E-05 5.62900E-15
1.21846E-05 4.59935E-15
1.37553E-05 3.78621E-15
1.54212E-05 3.14026E-15
1.71822E-05 2.62426E-15
1.90385E-05 2.20694E-15
2.09899E-05 1.87059E-15
2.30365E-05 1.59461E-15
2.51783E-05 1.36615E-15
2.74153E-05 1.17736E-15
2.97475E-05 1.01967E-15
3.21749E-05 8.87289E-16
3.46974E-05 7.76120E-16
3.73152E-05 6.82179E-16
4.00281E-05 6.02411E-16
4.28362E-05 5.34268E-16
4.57395E-05 4.75683E-16
4.87380E-05 4.25018E-16
5.18317E-05 3.80953E-16
5.50205E-05 3.42424E-16
5.83045E-05 3.08680E-16
6.16838E-05 2.79032E-16
6.51582E-05 2.52899E-16
6.87277E-05 2.29796E-16
7.23925E-05 2.09279E-16
7.61524E-05 1.91023E-16
9.21439E-05 1.35285E-16
1.09658E-04 9.84469E-17
1.28695E-04 7.32744E-17
1.49255E-04 5.57058E-17
1.71338E-04 4.31065E-17
1.94942E-04 3.38756E-17
2.20070E-04 2.69777E-17
2.46720E-04 2.17449E-17
2.74892E-04 1.77215E-17
3.04586E-04 1.45861E-17
3.35803E-04 1.21135E-17
3.68542E-04 1.01417E-17
4.02802E-04 8.55268E-18
4.38585E-04 7.26294E-18
4.75889E-04 6.20724E-18
5.14715E-04 5.33649E-18
5.55063E-04 4.61313E-18
5.96931E-04 4.00786E-18
6.40321E-04 3.49859E-18
6.85233E-04 3.06775E-18
7.31665E-04 2.70126E-18
7.79618E-04 2.38790E-18
8.29092E-04 2.11865E-18
8.80086E-04 1.88618E-18
9.32601E-04 1.68473E-18
9.86636E-04 1.50946E-18
1.04219E-03 1.35638E-18
1.09927E-03 1.22219E-18
1.15786E-03 1.10412E-18
1.21797E-03 9.99933E-19
1.27961E-03 9.07723E-19
1.34276E-03 8.25876E-19
1.40743E-03 7.53025E-19
1.47362E-03 6.87995E-19
1.54133E-03 6.29798E-19
1.61056E-03 5.77606E-19
1.68131E-03 5.30690E-19
1.75357E-03 4.88426E-19
1.82735E-03 4.50269E-19
1.90265E-03 4.15740E-19
1.97947E-03 3.84444E-19
2.05780E-03 3.56025E-19
2.13765E-03 3.30174E-19
2.21902E-03 3.06617E-19
2.30190E-03 2.85112E-19
2.38630E-03 2.65447E-19
2.47222E-03 2.47442E-19
2.55965E-03 2.30932E-19
2.64859E-03 2.15769E-19
2.73905E-03 2.01825E-19
2.83103E-03 1.88981E-19
2.92452E-03 1.77139E-19
3.01952E-03 1.66205E-19
3.11604E-03 1.56099E-19
3.21407E-03 1.46746E-19
3.31362E-03 1.38078E-19
3.41468E-03 1.30038E-19
3.51725E-03 1.22572E-19
3.62133E-03 1.15632E-19
3.72692E-03 1.09174E-19
3.83403E-03 1.03158E-19
3.94265E-03 9.75490E-20
4.05278E-03 9.23139E-20
4.16442E-03 8.74238E-20
4.27757E-03 8.28518E-20
4.39223E-03 7.85735E-20
4.50840E-03 7.45661E-20
4.62608E-03 7.08097E-20
4.74527E-03 6.72859E-20
4.86597E-03 6.39775E-20
4.98817E-03 6.08690E-20
5.11188E-03 5.79461E-20
5.23711E-03 5.51956E-20
5.36383E-03 5.26055E-20
5.49207E-03 5.01649E-20
5.62181E-03 4.78635E-20
5.75306E-03 4.56919E-20
5.88581E-03 4.36414E-20
6.02007E-03 4.17040E-20
6.15583E-03 3.98724E-20
6.29310E-03 3.81397E-20
6.43187E-03 3.64997E-20
6.57214E-03 3.49464E-20
6.71392E-03 3.34744E-20
6.85720E-03 3.20786E-20
7.00198E-03 3.07545E-20
7.14827E-03 2.94976E-20
7.29605E-03 2.83039E-20
7.44534E-03 2.71696E-20
7.59612E-03 2.60913E-20
7.97965E-03 2.36192E-20
8.37255E-03 2.14315E-20
8.77480E-03 1.94899E-20
9.18641E-03 1.77621E-20
9.60736E-03 1.62204E-20
1.00376E-02 1.48414E-20
1.04773E-02 1.36049E-20
1.09262E-02 1.24938E-20
1.13844E-02 1.14931E-20
1.18520E-02 1.05898E-20
1.23288E-02 9.77302E-21
1.28150E-02 9.03294E-21
1.33104E-02 8.36111E-21
1.38150E-02 7.75015E-21
1.43290E-02 7.19354E-21
1.48521E-02 6.68563E-21
1.53845E-02 6.22142E-21
1.59262E-02 5.79649E-21
1.64770E-02 5.40695E-21
1.70371E-02 5.04931E-21
1.76063E-02 4.72049E-21
1.81848E-02 4.41779E-21
1.87724E-02 4.13875E-21
1.93692E-02 3.88122E-21
1.99751E-02 3.64322E-21
2.05901E-02 3.42302E-21
2.12143E-02 3.21905E-21
2.18476E-02 3.02991E-21
2.24900E-02 2.85433E-21
2.31415E-02 2.69116E-21
2.38021E-02 2.53937E-21
2.44717E-02 2.39802E-21
2.51504E-02 2.26627E-21
2.58382E-02 2.14336E-21
2.65349E-02 2.02858E-21
2.72407E-02 1.92130E-21
2.79555E-02 1.82094E-21
2.86793E-02 1.72698E-21
2.94120E-02 1.63894E-21
3.01537E-02 1.55637E-21
3.09043E-02 1.47889E-21
3.16639E-02 1.40611E-21
3.24324E-02 1.33770E-21
3.32098E-02 1.27335E-21
3.39961E-02 1.21278E-21
3.47912E-02 1.15573E-21
3.55952E-02 1.10195E-21
3.64081E-02 1.05123E-21
3.72297E-02 1.00335E-21
3.80602E-02 9.58142E-22
3.88995E-02 9.15417E-22
3.97476E-02 8.75016E-22
4.06044E-02 8.36791E-22
4.14700E-02 8.00604E-22
4.23443E-02 7.66327E-22
4.32273E-02 7.33841E-22
4.41190E-02 7.03036E-22
4.50194E-02 6.73809E-22
4.59284E-02 6.46064E-22
4.68461E-02 6.19714E-22
4.87074E-02 5.70870E-22
5.06030E-02 5.26682E-22
5.25328E-02 4.86631E-22
5.44967E-02 4.50264E-22
5.64946E-02 4.17183E-22
5.85262E-02 3.87044E-22
6.05914E-02 3.59538E-22
6.26901E-02 3.34397E-22
6.48222E-02 3.11383E-22
6.69873E-02 2.90286E-22
6.91854E-02 2.70918E-22
7.14163E-02 2.53113E-22
7.36799E-02 2.36724E-22
7.59760E-02 2.21619E-22
7.83043E-02 2.07679E-22
8.06647E-02 1.94801E-22
8.30571E-02 1.82888E-22
8.54812E-02 1.71857E-22
8.79369E-02 1.61631E-22
9.04240E-02 1.52140E-22
9.29422E-02 1.43323E-22
9.54915E-02 1.35124E-22
9.80716E-02 1.27493E-22
1.00682E-01 1.20382E-22
1.03323E-01 1.13751E-22
1.05995E-01 1.07561E-22
1.08696E-01 1.01778E-22
1.11427E-01 9.63713E-23
1.14188E-01 9.13113E-23
1.16978E-01 8.65722E-23
1.19797E-01 8.21302E-23
1.22645E-01 7.79633E-23
1.25522E-01 7.40518E-23
1.28428E-01 7.03771E-23
1.31361E-01 6.69225E-23
1.34323E-01 6.36725E-23
1.37313E-01 6.06129E-23
1.40330E-01 5.77306E-23
1.43375E-01 5.50137E-23
1.46447E-01 5.24507E-23
1.49545E-01 5.00318E-23
1.52671E-01 4.77473E-23
1.55823E-01 4.55884E-23
1.59001E-01 4.35471E-23
1.62205E-01 4.16158E-23
1.65435E-01 3.97876E-23
1.68690E-01 3.80561E-23
1.71970E-01 3.64152E-23
1.75276E-01 3.48594E-23
1.78606E-01 3.33835E-23
1.81961E-01 3.19827E-23
1.85340E-01 3.06525E-23
1.88743E-01 2.93888E-23
1.92169E-01 2.81876E-23
1.95619E-01 2.70453E-23
1.99092E-01 2.59585E-23
2.02589E-01 2.49242E-23
2.06107E-01 2.39392E-23
2.09649E-01 2.30009E-23
2.13212E-01 2.21066E-23
2.16797E-01 2.12540E-23
2.20404E-01 2.04407E-23
2.24032E-01 1.96646E-23
2.27680E-01 1.89238E-23
2.31350E-01 1.82163E-23
2.35040E-01 1.75405E-23
2.38751E-01 1.68945E-23
2.42481E-01 1.62770E-23
2.46231E-01 1.56864E-23
2.50000E-01 1.51213E-23
2.53788E-01 1.45805E-23
2.57595E-01 1.40627E-23
2.61421E-01 1.35668E-23
2.65264E-01 1.30917E-23
2.69126E-01 1.26364E-23
2.73005E-01 1.22000E-23
2.76901E-01 1.17814E-23
2.80814E-01 1.13799E-23
2.84744E-01 1.09945E-23
2.88691E-01 1.06247E-23
2.92653E-01 1.02696E-23
2.96632E-01 9.92856E-24
3.00625E-01 9.60092E-24
3.04634E-01 9.28606E-24
3.08658E-01 8.98340E-24
3.12697E-01 8.69239E-24
3.16749E-01 8.41250E-24
3.20816E-01 8.14323E-24
3.24896E-01 7.88412E-24
3.28990E-01 7.63471E-24
3.33097E-01 7.39459E-24
3.37216E-01 7.16334E-24
3.41348E-01 6.94058E-24
3.45492E-01 6.72596E-24
3.49647E-01 6.51912E-24
3.53814E-01 6.31973E-24
3.57992E-01 6.12748E-24
3.62181E-01 5.94206E-24
3.66381E-01 5.76321E-24
3.70590E-01 5.59063E-24
3.74810E-01 5.42409E-24
3.79039E-01 5.26332E-24
3.83277E-01 5.10811E-24
3.87524E-01 4.95822E-24
3.91780E-01 4.81344E-24
3.96044E-01 4.67356E-24
4.00316E-01 4.53840E-24
4.04596E-01 4.40776E-24
4.08882E-01 4.28148E-24
4.13176E-01 4.15937E-24
4.17476E-01 4.04129E-24
4.21783E-01 3.92707E-24
4.26095E-01 3.81658E-24
4.30413E-01 3.70966E-24
4.34737E-01 3.60619E-24
4.39065E-01 3.50602E-24
4.43398E-01 3.40905E-24
4.47736E-01 3.31514E-24
4.52077E-01 3.22420E-24
4.56422E-01 3.13610E-24
4.60770E-01 3.05075E-24
4.65122E-01 2.96805E-24
4.69476E-01 2.88790E-24
4.73832E-01 2.81021E-24
4.78190E-01 2.73490E-24
4.82550E-01 2.66186E-24
4.86912E-01 2.59104E-24
4.91274E-01 2.52234E-24
4.95637E-01 2.45569E-24
5.00000E-01 2.39103E-24
5.04363E-01 2.32829E-24
5.08726E-01 2.26740E-24
5.13088E-01 2.20830E-24
5.17450E-01 2.15092E-24
5.21810E-01 2.09520E-24
5.26168E-01 2.04109E-24
5.30524E-01 1.98854E-24
5.34878E-01 1.93750E-24
5.39230E-01 1.88791E-24
5.43578E-01 1.83973E-24
5.47923E-01 1.79291E-24
5.52264E-01 1.74741E-24
5.56602E-01 1.70318E-24
5.60935E-01 1.66018E-24
5.65263E-01 1.61838E-24
5.69587E-01 1.57773E-24
5.73905E-01 1.53819E-24
5.78217E-01 1.49974E-24
5.82524E-01 1.46234E-24
5.86824E-01 1.42596E-24
5.91118E-01 1.39055E-24
5.95404E-01 1.35610E-24
5.99684E-01 1.32258E-24
6.03956E-01 1.28994E-24
6.08220E-01 1.25818E-24
6.12476E-01 1.22725E-24
6.16723E-01 1.19714E-24
6.20961E-01 1.16783E-24
6.25190E-01 1.13927E-24
6.29410E-01 1.11147E-24
6.33619E-01 1.08438E-24
6.37819E-01 1.05800E-24
6.42008E-01 1.03229E-24
6.46186E-01 1.00724E-24
6.50353E-01 9.82838E-25
6.54508E-01 9.59053E-25
6.58652E-01 9.35871E-25
6.62784E-01 9.13275E-25
6.66903E-01 8.91249E-25
6.71010E-01 8.69775E-25
6.75104E-01 8.48839E-25
6.79184E-01 8.28424E-25
6.83251E-01 8.08517E-25
6.87303E-01 7.89102E-25
6.91342E-01 7.70166E-25
6.95366E-01 7.51696E-25
6.99375E-01 7.33678E-25
7.03368E-01 7.16101E-25
7.07347E-01 6.98951E-25
7.11309E-01 6.82217E-25
7.15256E-01 6.65889E-25
7.19186E-01 6.49954E-25
7.23099E-01 6.34403E-25
7.26995E-01 6.19225E-25
7.30874E-01 6.04410E-25
7.34736E-01 5.89948E-25
7.38579E-01 5.75829E-25
7.42405E-01 5.62046E-25
7.46212E-01 5.48588E-25
7.50000E-01 5.35448E-25
7.53769E-01 5.22616E-25
7.57519E-01 5.10086E-25
7.61249E-01 4.97849E-25
7.64960E-01 4.85897E-25
7.68650E-01 4.74224E-25
7.72320E-01 4.62822E-25
7.75968E-01 4.51685E-25
7.79596E-01 4.40805E-25
7.83203E-01 4.30176E-25
7.86788E-01 4.19792E-25
7.90351E-01 4.09647E-25
7.93893E-01 3.99734E-25
7.97411E-01 3.90049E-25
8.00908E-01 3.80585E-25
8.04381E-01 3.71336E-25
8.07831E-01 3.62299E-25
8.11257E-01 3.53467E-25
8.14660E-01 3.44836E-25
8.18039E-01 3.36400E-25
8.21394E-01 3.28156E-25
8.24724E-01 3.20098E-25
8.28030E-01 3.12222E-25
8.31310E-01 3.04524E-25
8.34565E-01 2.97000E-25
8.37795E-01 2.89645E-25
8.40999E-01 2.82456E-25
8.44177E-01 2.75428E-25
8.47329E-01 2.68559E-25
8.50455E-01 2.61844E-25
8.53553E-01 2.55280E-25
8.56625E-01 2.48864E-25
8.59670E-01 2.42591E-25
8.62687E-01 2.36460E-25
8.65677E-01 2.30466E-25
8.68639E-01 2.24608E-25
8.71572E-01 2.18881E-25
8.74478E-01 2.13283E-25
8.77355E-01 2.07811E-25
8.80203E-01 2.02462E-25
8.83022E-01 1.97234E-25
8.85812E-01 1.92124E-25
8.88573E-01 1.87130E-25
8.91304E-01 1.82249E-25
8.94005E-01 1.77479E-25
8.96677E-01 1.72817E-25
8.99318E-01 1.68261E-25
9.01928E-01 1.63810E-25
9.04508E-01 1.59461E-25
9.07058E-01 1.55211E-25
9.09576E-01 1.51059E-25
9.12063E-01 1.47003E-25
9.14519E-01 1.43042E-25
9.16943E-01 1.39172E-25
9.19335E-01 1.35393E-25
9.21696E-01 1.31702E-25
9.24024E-01 1.28099E-25
9.26320E-01 1.24581E-25
9.28584E-01 1.21146E-25
9.30815E-01 1.17793E-25
9.33013E-01 1.14522E-25
9.35178E-01 1.11329E-25
9.37310E-01 1.08214E-25
9.39409E-01 1.05175E-25
9.41474E-01 1.02211E-25
9.43505E-01 9.93214E-26
9.45503E-01 9.65037E-26
9.47467E-01 9.37572E-26
9.49397E-01 9.10805E-26
9.51293E-01 8.84727E-26
9.53154E-01 8.59325E-26
9.54981E-01 8.34588E-26
9.56773E-01 8.10506E-26
9.58530E-01 7.87068E-26
9.60252E-01 7.64265E-26
9.61940E-01 7.42086E-26
9.63592E-01 7.20522E-26
9.65209E-01 6.99563E-26
9.66790E-01 6.79202E-26
9.68336E-01 6.59429E-26
9.69846E-01 6.40236E-26
9.71321E-01 6.21614E-26
9.72759E-01 6.03557E-26
9.74162E-01 5.86057E-26
9.75528E-01 5.69105E-26
9.76858E-01 5.52696E-26
9.78152E-01 5.36823E-26
9.79410E-01 5.21478E-26
9.80631E-01 5.06656E-26
9.81815E-01 4.92350E-26
9.82963E-01 4.78555E-26
9.84074E-01 4.65264E-26
9.85148E-01 4.52473E-26
9.86185E-01 4.40176E-26
9.87185E-01 4.28369E-26
9.88148E-01 4.17046E-26
9.89074E-01 4.06203E-26
9.89962E-01 3.95835E-26
9.90814E-01 3.85938E-26
9.91627E-01 3.76509E-26
9.92404E-01 3.67543E-26
9.93143E-01 3.59037E-26
9.93844E-01 3.50987E-26
9.94508E-01 3.43391E-26
9.95134E-01 3.36244E-26
9.95722E-01 3.29545E-26
9.96273E-01 3.23291E-26
9.96786E-01 3.17478E-26
9.97261E-01 3.12106E-26
9.97698E-01 3.07171E-26
9.98097E-01 3.02672E-26
9.98459E-01 2.98606E-26
9.98782E-01 2.94973E-26
9.99067E-01 2.91771E-26
9.99315E-01 2.88998E-26
9.99524E-01 2.86654E-26
9.99695E-01 2.84737E-26
9.99829E-01 2.83247E-26
9.99924E-01 2.82183E-26
9.99981E-01 2.81544E-26
1.00000E+00 2.81332E-26
