 #
 # Subroutine ELSEPA. Elastic scattering of electrons and positrons
 #                    by neutral atoms and positive ions
 #
 # Projectile: positron
 # Kinetic energy = 9.00000E+08 eV = 3.30744E+07 a.u.
 #
 # WARNING: High-energy factorization with free-atom DF screening.
 #          Absorption, polarization and exchange corrections are
 #          switched off.
 #          Phase shifts are calculated for the bare nucleus.
 #          Scattering amplitudes are not evaluated.
 #
 # Element: Hg,  Z =  80,  atomic weight = 2.00590E+02 g/mol
 #
 # Nuclear model: Fermi distribution
 #                Average radius = 6.26355E-13 cm
 #                Skin thickness = 5.46000E-14 cm
 #
 # Number of electrons = 80
 #
 # Total elastic cross section = 7.87538E-18 cm**2 = 2.81235E-01 a0**2
 # 1st transport cross section = 1.47340E-26 cm**2 = 5.26160E-10 a0**2
 # 2nd transport cross section = 4.41965E-26 cm**2 = 1.57828E-09 a0**2
 #
 #
 # Differential cross section:                       MU=(1-COS(THETA))/2
 #
 #  THETA        MU          DCS          DCS        Sherman      error
 #  (deg)                 (cm**2/sr)   (a0**2/sr)    function
 #----------------------------------------------------------------------
0.00000E+00 3.44736E-08
7.61557E-13 3.04380E-08
1.18994E-12 2.85287E-08
1.71346E-12 2.64717E-08
2.33225E-12 2.43589E-08
3.04617E-12 2.22824E-08
3.85530E-12 2.02823E-08
4.75964E-12 1.84018E-08
5.75917E-12 1.66672E-08
6.85391E-12 1.50709E-08
8.04379E-12 1.36246E-08
9.32893E-12 1.23217E-08
1.07092E-11 1.11433E-08
1.21847E-11 1.00889E-08
1.37554E-11 9.14400E-09
1.54213E-11 8.29482E-09
1.71823E-11 7.53592E-09
1.90386E-11 6.85469E-09
2.09900E-11 6.24293E-09
2.30367E-11 5.69481E-09
2.51785E-11 5.20096E-09
2.74156E-11 4.75677E-09
2.97478E-11 4.33380E-09
3.21752E-11 3.95187E-09
3.46979E-11 3.62059E-09
3.73157E-11 3.33189E-09
4.00286E-11 3.07913E-09
4.28368E-11 2.85687E-09
4.57402E-11 2.63987E-09
4.87388E-11 2.43150E-09
5.18325E-11 2.24742E-09
5.50215E-11 2.08419E-09
5.83057E-11 1.93894E-09
6.16850E-11 1.80924E-09
6.51595E-11 1.68593E-09
6.87293E-11 1.56690E-09
7.23943E-11 1.46013E-09
7.61544E-11 1.36409E-09
1.18991E-10 7.37136E-10
1.71347E-10 4.35372E-10
2.33223E-10 2.74141E-10
3.04617E-10 1.81109E-10
3.85531E-10 1.23686E-10
4.75965E-10 8.69536E-11
5.75917E-10 6.27562E-11
6.85389E-10 4.63509E-11
8.04380E-10 3.49558E-11
9.32891E-10 2.68933E-11
1.07092E-09 2.10631E-11
1.21847E-09 1.67565E-11
1.37554E-09 1.35064E-11
1.54213E-09 1.10102E-11
1.71823E-09 9.07006E-12
1.90386E-09 7.54205E-12
2.09900E-09 6.32451E-12
2.30367E-09 5.34418E-12
2.51785E-09 4.54604E-12
2.74156E-09 3.89135E-12
2.97478E-09 3.34819E-12
3.21752E-09 2.89825E-12
3.46978E-09 2.52329E-12
3.73156E-09 2.20463E-12
4.00286E-09 1.93666E-12
4.28368E-09 1.70698E-12
4.57402E-09 1.51076E-12
4.87388E-09 1.34226E-12
5.18326E-09 1.19602E-12
5.50215E-09 1.06985E-12
5.83057E-09 9.59234E-13
6.16850E-09 8.62851E-13
6.51596E-09 7.78257E-13
6.87293E-09 7.03628E-13
7.23942E-09 6.38004E-13
7.61544E-09 5.79503E-13
1.18991E-08 2.47448E-13
1.71347E-08 1.22718E-13
2.33223E-08 6.76281E-14
3.04617E-08 4.02786E-14
3.85531E-08 2.54570E-14
4.75965E-08 1.68625E-14
5.75917E-08 1.16040E-14
6.85389E-08 8.24259E-15
8.04380E-08 6.01383E-15
9.32891E-08 4.48952E-15
1.07092E-07 3.41881E-15
1.21847E-07 2.64904E-15
1.37554E-07 2.08423E-15
1.54213E-07 1.66226E-15
1.71823E-07 1.34189E-15
1.90386E-07 1.09514E-15
2.09900E-07 9.02594E-16
2.30367E-07 7.50577E-16
2.51785E-07 6.29264E-16
2.74156E-07 5.31504E-16
2.97478E-07 4.52013E-16
3.21752E-07 3.86844E-16
3.46978E-07 3.33007E-16
3.73156E-07 2.88220E-16
4.00286E-07 2.50713E-16
4.28368E-07 2.19114E-16
4.57402E-07 1.92339E-16
4.87388E-07 1.69530E-16
5.18325E-07 1.50004E-16
5.50215E-07 1.33210E-16
5.83057E-07 1.18700E-16
6.16850E-07 1.06113E-16
6.51596E-07 9.51501E-17
6.87293E-07 8.55666E-17
7.23942E-07 7.71596E-17
7.61543E-07 6.97597E-17
1.18991E-06 2.86678E-17
1.71347E-06 1.38511E-17
2.33223E-06 7.48483E-18
3.04617E-06 4.39047E-18
3.85531E-06 2.74210E-18
4.75964E-06 1.79954E-18
5.75916E-06 1.22928E-18
6.85388E-06 8.68007E-19
8.04378E-06 6.30198E-19
9.32888E-06 4.68514E-19
1.07092E-05 3.55502E-19
1.21846E-05 2.74592E-19
1.37553E-05 2.15441E-19
1.54212E-05 1.71389E-19
1.71822E-05 1.38039E-19
1.90385E-05 1.12349E-19
2.09899E-05 9.24836E-20
2.30365E-05 7.68060E-20
2.51783E-05 6.42932E-20
2.74153E-05 5.42118E-20
2.97475E-05 4.60235E-20
3.21749E-05 3.93245E-20
3.46974E-05 3.38035E-20
3.73152E-05 2.92208E-20
4.00281E-05 2.53921E-20
4.28362E-05 2.21716E-20
4.57395E-05 1.94455E-20
4.87380E-05 1.71246E-20
5.18317E-05 1.51386E-20
5.50205E-05 1.34313E-20
5.83045E-05 1.19576E-20
6.16838E-05 1.06806E-20
6.51582E-05 9.56988E-21
6.87277E-05 8.60009E-21
7.23925E-05 7.75025E-21
7.61524E-05 7.14275E-21
9.21439E-05 4.86875E-21
1.09658E-04 3.42614E-21
1.28695E-04 2.47604E-21
1.49255E-04 1.82979E-21
1.71338E-04 1.37830E-21
1.94942E-04 1.05538E-21
2.20070E-04 8.19721E-22
2.46720E-04 6.44662E-22
2.74892E-04 5.12572E-22
3.04586E-04 4.11517E-22
3.35803E-04 3.33244E-22
3.68542E-04 2.71941E-22
4.02802E-04 2.23451E-22
4.38585E-04 1.84748E-22
4.75889E-04 1.53604E-22
5.14715E-04 1.28357E-22
5.55063E-04 1.07751E-22
5.96931E-04 9.08298E-23
6.40321E-04 7.68555E-23
6.85233E-04 6.52549E-23
7.31665E-04 5.55792E-23
7.79618E-04 4.74734E-23
8.29092E-04 4.06556E-23
8.80086E-04 3.48997E-23
9.32601E-04 3.00238E-23
9.86636E-04 2.58803E-23
1.04219E-03 2.23488E-23
1.09927E-03 1.93309E-23
1.15786E-03 1.67455E-23
1.21797E-03 1.45256E-23
1.27961E-03 1.26154E-23
1.34276E-03 1.09686E-23
1.40743E-03 9.54633E-24
1.47362E-03 8.31590E-24
1.54133E-03 7.24990E-24
1.61056E-03 6.32506E-24
1.68131E-03 5.52168E-24
1.75357E-03 4.82303E-24
1.82735E-03 4.21481E-24
1.90265E-03 3.68485E-24
1.97947E-03 3.22266E-24
2.05780E-03 2.81931E-24
2.13765E-03 2.46706E-24
2.21902E-03 2.15926E-24
2.30190E-03 1.89018E-24
2.38630E-03 1.65484E-24
2.47222E-03 1.44894E-24
2.55965E-03 1.26875E-24
2.64859E-03 1.11102E-24
2.73905E-03 9.72931E-25
2.83103E-03 8.52026E-25
2.92452E-03 7.46164E-25
3.01952E-03 6.53470E-25
3.11604E-03 5.72313E-25
3.21407E-03 5.01262E-25
3.31362E-03 4.39067E-25
3.41468E-03 3.84634E-25
3.51725E-03 3.37003E-25
3.62133E-03 2.95334E-25
3.72692E-03 2.58890E-25
3.83403E-03 2.27023E-25
3.94265E-03 1.99168E-25
4.05278E-03 1.74824E-25
4.16442E-03 1.53556E-25
4.27757E-03 1.34979E-25
4.39223E-03 1.18756E-25
4.50840E-03 1.04593E-25
4.62608E-03 9.22289E-26
4.74527E-03 8.14370E-26
4.86597E-03 7.20173E-26
4.98817E-03 6.37948E-26
5.11188E-03 5.66162E-26
5.23711E-03 5.03471E-26
5.36383E-03 4.48699E-26
5.49207E-03 4.00817E-26
5.62181E-03 3.58926E-26
5.75306E-03 3.22241E-26
5.88581E-03 2.90076E-26
6.02007E-03 2.61834E-26
6.15583E-03 2.36993E-26
6.29310E-03 2.15103E-26
6.43187E-03 1.95769E-26
6.57214E-03 1.78649E-26
6.71392E-03 1.63449E-26
6.85720E-03 1.49911E-26
7.00198E-03 1.37814E-26
7.14827E-03 1.26967E-26
7.29605E-03 1.17205E-26
7.44534E-03 1.08387E-26
7.59612E-03 1.00390E-26
7.97965E-03 8.33432E-27
8.37255E-03 6.95541E-27
8.77480E-03 5.81693E-27
9.18641E-03 4.86152E-27
9.60736E-03 4.05062E-27
1.00376E-02 3.35795E-27
1.04773E-02 2.76515E-27
1.09262E-02 2.25876E-27
1.13844E-02 1.82832E-27
1.18520E-02 1.46517E-27
1.23288E-02 1.16163E-27
1.28150E-02 9.10728E-28
1.33104E-02 7.05892E-28
1.38150E-02 5.40954E-28
1.43290E-02 4.10128E-28
1.48521E-02 3.08045E-28
1.53845E-02 2.29797E-28
1.59262E-02 1.70971E-28
1.64770E-02 1.27671E-28
1.70371E-02 9.65209E-29
1.76063E-02 7.46541E-29
1.81848E-02 5.96872E-29
1.87724E-02 4.96831E-29
1.93692E-02 4.31069E-29
1.99751E-02 3.87759E-29
2.05901E-02 3.58093E-29
2.12143E-02 3.35776E-29
2.18476E-02 3.16553E-29
2.24900E-02 2.97767E-29
2.31415E-02 2.77978E-29
2.38021E-02 2.56625E-29
2.44717E-02 2.33749E-29
2.51504E-02 2.09763E-29
2.58382E-02 1.85280E-29
2.65349E-02 1.60980E-29
2.72407E-02 1.37512E-29
2.79555E-02 1.15441E-29
2.86793E-02 9.52065E-30
2.94120E-02 7.71136E-30
3.01537E-02 6.13309E-30
3.09043E-02 4.79042E-30
3.16639E-02 3.67743E-30
3.24324E-02 2.77986E-30
3.32098E-02 2.07747E-30
3.39961E-02 1.54614E-30
3.47912E-02 1.15985E-30
3.55952E-02 8.92383E-31
3.64081E-02 7.18591E-31
3.72297E-02 6.15419E-31
3.80602E-02 5.62548E-31
3.88995E-02 5.42762E-31
3.97476E-02 5.42075E-31
4.06044E-02 5.49645E-31
4.14700E-02 5.57556E-31
4.23443E-02 5.60480E-31
4.32273E-02 5.55289E-31
4.41190E-02 5.40641E-31
4.50194E-02 5.16563E-31
4.59284E-02 4.84062E-31
4.68461E-02 4.44785E-31
4.87074E-02 3.53941E-31
5.06030E-02 2.60042E-31
5.25328E-02 1.76000E-31
5.44967E-02 1.09471E-31
5.64946E-02 6.28486E-32
5.85262E-02 3.44919E-32
6.05914E-02 2.03921E-32
6.26901E-02 1.57438E-32
6.48222E-02 1.61115E-32
6.69873E-02 1.80999E-32
6.91854E-02 1.95746E-32
7.14163E-02 1.95569E-32
7.36799E-02 1.79356E-32
7.59760E-02 1.51207E-32
7.83043E-02 1.17311E-32
8.06647E-02 8.36353E-33
8.30571E-02 5.45864E-33
8.54812E-02 3.25284E-33
8.79369E-02 1.79347E-33
9.04240E-02 9.89284E-34
9.29422E-02 6.72704E-34
9.54915E-02 6.56285E-34
9.80716E-02 7.73899E-34
1.00682E-01 9.03588E-34
1.03323E-01 9.73988E-34
1.05995E-01 9.58792E-34
1.08696E-01 8.64559E-34
1.11427E-01 7.16587E-34
1.14188E-01 5.46283E-34
1.16978E-01 3.81958E-34
1.19797E-01 2.43614E-34
1.22645E-01 1.41329E-34
1.25522E-01 7.62529E-35
1.28428E-01 4.31168E-35
1.31361E-01 3.31926E-35
1.34323E-01 3.69759E-35
1.37313E-01 4.61432E-35
1.40330E-01 5.46471E-35
1.43375E-01 5.90250E-35
1.46447E-01 5.81239E-35
1.49545E-01 5.24884E-35
1.52671E-01 4.36393E-35
1.55823E-01 3.34165E-35
1.59001E-01 2.34862E-35
1.62205E-01 1.50508E-35
1.65435E-01 8.74793E-36
1.68690E-01 4.69355E-36
1.71970E-01 2.61294E-36
1.75276E-01 2.00544E-36
1.78606E-01 2.30056E-36
1.81961E-01 2.97820E-36
1.85340E-01 3.64250E-36
1.88743E-01 4.05010E-36
1.92169E-01 4.10215E-36
1.95619E-01 3.81322E-36
1.99092E-01 3.26999E-36
2.02589E-01 2.59056E-36
2.06107E-01 1.89113E-36
2.09649E-01 1.26395E-36
2.13212E-01 7.66811E-37
2.16797E-01 4.22102E-37
2.20404E-01 2.22763E-37
2.24032E-01 1.41801E-37
2.27680E-01 1.42506E-37
2.31350E-01 1.87398E-37
2.35040E-01 2.44620E-37
2.38751E-01 2.91443E-37
2.42481E-01 3.15190E-37
2.46231E-01 3.12137E-37
2.50000E-01 2.85278E-37
2.53788E-01 2.41634E-37
2.57595E-01 1.89734E-37
2.61421E-01 1.37598E-37
2.65264E-01 9.14557E-38
2.69126E-01 5.51377E-38
2.73005E-01 1.00000E-45
2.76901E-01 1.00000E-45
2.80814E-01 1.00000E-45
2.84744E-01 1.00000E-45
2.88691E-01 1.00000E-45
2.92653E-01 1.00000E-45
2.96632E-01 1.00000E-45
3.00625E-01 1.00000E-45
3.04634E-01 1.00000E-45
3.08658E-01 1.00000E-45
3.12697E-01 1.00000E-45
3.16749E-01 1.00000E-45
3.20816E-01 1.00000E-45
3.24896E-01 1.00000E-45
3.28990E-01 1.00000E-45
3.33097E-01 1.00000E-45
3.37216E-01 1.00000E-45
3.41348E-01 1.00000E-45
3.45492E-01 1.00000E-45
3.49647E-01 1.00000E-45
3.53814E-01 1.00000E-45
3.57992E-01 1.00000E-45
3.62181E-01 1.00000E-45
3.66381E-01 1.00000E-45
3.70590E-01 1.00000E-45
3.74810E-01 1.00000E-45
3.79039E-01 1.00000E-45
3.83277E-01 1.00000E-45
3.87524E-01 1.00000E-45
3.91780E-01 1.00000E-45
3.96044E-01 1.00000E-45
4.00316E-01 1.00000E-45
4.04596E-01 1.00000E-45
4.08882E-01 1.00000E-45
4.13176E-01 1.00000E-45
4.17476E-01 1.00000E-45
4.21783E-01 1.00000E-45
4.26095E-01 1.00000E-45
4.30413E-01 1.00000E-45
4.34737E-01 1.00000E-45
4.39065E-01 1.00000E-45
4.43398E-01 1.00000E-45
4.47736E-01 1.00000E-45
4.52077E-01 1.00000E-45
4.56422E-01 1.00000E-45
4.60770E-01 1.00000E-45
4.65122E-01 1.00000E-45
4.69476E-01 1.00000E-45
4.73832E-01 1.00000E-45
4.78190E-01 1.00000E-45
4.82550E-01 1.00000E-45
4.86912E-01 1.00000E-45
4.91274E-01 1.00000E-45
4.95637E-01 1.00000E-45
5.00000E-01 1.00000E-45
5.04363E-01 1.00000E-45
5.08726E-01 1.00000E-45
5.13088E-01 1.00000E-45
5.17450E-01 1.00000E-45
5.21810E-01 1.00000E-45
5.26168E-01 1.00000E-45
5.30524E-01 1.00000E-45
5.34878E-01 1.00000E-45
5.39230E-01 1.00000E-45
5.43578E-01 1.00000E-45
5.47923E-01 1.00000E-45
5.52264E-01 1.00000E-45
5.56602E-01 1.00000E-45
5.60935E-01 1.00000E-45
5.65263E-01 1.00000E-45
5.69587E-01 1.00000E-45
5.73905E-01 1.00000E-45
5.78217E-01 1.00000E-45
5.82524E-01 1.00000E-45
5.86824E-01 1.00000E-45
5.91118E-01 1.00000E-45
5.95404E-01 1.00000E-45
5.99684E-01 1.00000E-45
6.03956E-01 1.00000E-45
6.08220E-01 1.00000E-45
6.12476E-01 1.00000E-45
6.16723E-01 1.00000E-45
6.20961E-01 1.00000E-45
6.25190E-01 1.00000E-45
6.29410E-01 1.00000E-45
6.33619E-01 1.00000E-45
6.37819E-01 1.00000E-45
6.42008E-01 1.00000E-45
6.46186E-01 1.00000E-45
6.50353E-01 1.00000E-45
6.54508E-01 1.00000E-45
6.58652E-01 1.00000E-45
6.62784E-01 1.00000E-45
6.66903E-01 1.00000E-45
6.71010E-01 1.00000E-45
6.75104E-01 1.00000E-45
6.79184E-01 1.00000E-45
6.83251E-01 1.00000E-45
6.87303E-01 1.00000E-45
6.91342E-01 1.00000E-45
6.95366E-01 1.00000E-45
6.99375E-01 1.00000E-45
7.03368E-01 1.00000E-45
7.07347E-01 1.00000E-45
7.11309E-01 1.00000E-45
7.15256E-01 1.00000E-45
7.19186E-01 1.00000E-45
7.23099E-01 1.00000E-45
7.26995E-01 1.00000E-45
7.30874E-01 1.00000E-45
7.34736E-01 1.00000E-45
7.38579E-01 1.00000E-45
7.42405E-01 1.00000E-45
7.46212E-01 1.00000E-45
7.50000E-01 1.00000E-45
7.53769E-01 1.00000E-45
7.57519E-01 1.00000E-45
7.61249E-01 1.00000E-45
7.64960E-01 1.00000E-45
7.68650E-01 1.00000E-45
7.72320E-01 1.00000E-45
7.75968E-01 1.00000E-45
7.79596E-01 1.00000E-45
7.83203E-01 1.00000E-45
7.86788E-01 1.00000E-45
7.90351E-01 1.00000E-45
7.93893E-01 1.00000E-45
7.97411E-01 1.00000E-45
8.00908E-01 1.00000E-45
8.04381E-01 1.00000E-45
8.07831E-01 1.00000E-45
8.11257E-01 1.00000E-45
8.14660E-01 1.00000E-45
8.18039E-01 1.00000E-45
8.21394E-01 1.00000E-45
8.24724E-01 1.00000E-45
8.28030E-01 1.00000E-45
8.31310E-01 1.00000E-45
8.34565E-01 1.00000E-45
8.37795E-01 1.00000E-45
8.40999E-01 1.00000E-45
8.44177E-01 1.00000E-45
8.47329E-01 1.00000E-45
8.50455E-01 1.00000E-45
8.53553E-01 1.00000E-45
8.56625E-01 1.00000E-45
8.59670E-01 1.00000E-45
8.62687E-01 1.00000E-45
8.65677E-01 1.00000E-45
8.68639E-01 1.00000E-45
8.71572E-01 1.00000E-45
8.74478E-01 1.00000E-45
8.77355E-01 1.00000E-45
8.80203E-01 1.00000E-45
8.83022E-01 1.00000E-45
8.85812E-01 1.00000E-45
8.88573E-01 1.00000E-45
8.91304E-01 1.00000E-45
8.94005E-01 1.00000E-45
8.96677E-01 1.00000E-45
8.99318E-01 1.00000E-45
9.01928E-01 1.00000E-45
9.04508E-01 1.00000E-45
9.07058E-01 1.00000E-45
9.09576E-01 1.00000E-45
9.12063E-01 1.00000E-45
9.14519E-01 1.00000E-45
9.16943E-01 1.00000E-45
9.19335E-01 1.00000E-45
9.21696E-01 1.00000E-45
9.24024E-01 1.00000E-45
9.26320E-01 1.00000E-45
9.28584E-01 1.00000E-45
9.30815E-01 1.00000E-45
9.33013E-01 1.00000E-45
9.35178E-01 1.00000E-45
9.37310E-01 1.00000E-45
9.39409E-01 1.00000E-45
9.41474E-01 1.00000E-45
9.43505E-01 1.00000E-45
9.45503E-01 1.00000E-45
9.47467E-01 1.00000E-45
9.49397E-01 1.00000E-45
9.51293E-01 1.00000E-45
9.53154E-01 1.00000E-45
9.54981E-01 1.00000E-45
9.56773E-01 1.00000E-45
9.58530E-01 1.00000E-45
9.60252E-01 1.00000E-45
9.61940E-01 1.00000E-45
9.63592E-01 1.00000E-45
9.65209E-01 1.00000E-45
9.66790E-01 1.00000E-45
9.68336E-01 1.00000E-45
9.69846E-01 1.00000E-45
9.71321E-01 1.00000E-45
9.72759E-01 1.00000E-45
9.74162E-01 1.00000E-45
9.75528E-01 1.00000E-45
9.76858E-01 1.00000E-45
9.78152E-01 1.00000E-45
9.79410E-01 1.00000E-45
9.80631E-01 1.00000E-45
9.81815E-01 1.00000E-45
9.82963E-01 1.00000E-45
9.84074E-01 1.00000E-45
9.85148E-01 1.00000E-45
9.86185E-01 1.00000E-45
9.87185E-01 1.00000E-45
9.88148E-01 1.00000E-45
9.89074E-01 1.00000E-45
9.89962E-01 1.00000E-45
9.90814E-01 1.00000E-45
9.91627E-01 1.00000E-45
9.92404E-01 1.00000E-45
9.93143E-01 1.00000E-45
9.93844E-01 1.00000E-45
9.94508E-01 1.00000E-45
9.95134E-01 1.00000E-45
9.95722E-01 1.00000E-45
9.96273E-01 1.00000E-45
9.96786E-01 1.00000E-45
9.97261E-01 1.00000E-45
9.97698E-01 1.00000E-45
9.98097E-01 1.00000E-45
9.98459E-01 1.00000E-45
9.98782E-01 1.00000E-45
9.99067E-01 1.00000E-45
9.99315E-01 1.00000E-45
9.99524E-01 1.00000E-45
9.99695E-01 1.00000E-45
9.99829E-01 1.00000E-45
9.99924E-01 1.00000E-45
9.99981E-01 1.00000E-45
1.00000E+00 1.00000E-45
