 #
 # Subroutine ELSEPA. Elastic scattering of electrons and positrons
 #                    by neutral atoms and positive ions
 #
 # Projectile: positron
 # Kinetic energy = 4.50000E+07 eV = 1.65372E+06 a.u.
 #
 # WARNING: High-energy factorization with free-atom DF screening.
 #          Absorption, polarization and exchange corrections are
 #          switched off.
 #          Phase shifts are calculated for the bare nucleus.
 #          Scattering amplitudes are not evaluated.
 #
 # Element: Hg,  Z =  80,  atomic weight = 2.00590E+02 g/mol
 #
 # Nuclear model: Fermi distribution
 #                Average radius = 6.26355E-13 cm
 #                Skin thickness = 5.46000E-14 cm
 #
 # Number of electrons = 80
 #
 # Total elastic cross section = 7.89249E-18 cm**2 = 2.81846E-01 a0**2
 # 1st transport cross section = 5.26329E-24 cm**2 = 1.87955E-07 a0**2
 # 2nd transport cross section = 1.54267E-23 cm**2 = 5.50899E-07 a0**2
 #
 #
 # Differential cross section:                       MU=(1-COS(THETA))/2
 #
 #  THETA        MU          DCS          DCS        Sherman      error
 #  (deg)                 (cm**2/sr)   (a0**2/sr)    function
 #----------------------------------------------------------------------
0.00000E+00 8.80523E-11
7.61557E-13 8.80224E-11
1.18994E-12 8.80058E-11
1.71346E-12 8.79854E-11
2.33225E-12 8.79615E-11
3.04617E-12 8.79339E-11
3.85530E-12 8.79026E-11
4.75964E-12 8.78677E-11
5.75917E-12 8.78292E-11
6.85391E-12 8.77871E-11
8.04379E-12 8.77413E-11
9.32893E-12 8.76920E-11
1.07092E-11 8.76390E-11
1.21847E-11 8.75825E-11
1.37554E-11 8.75224E-11
1.54213E-11 8.74588E-11
1.71823E-11 8.73917E-11
1.90386E-11 8.73210E-11
2.09900E-11 8.72468E-11
2.30367E-11 8.71691E-11
2.51785E-11 8.70879E-11
2.74156E-11 8.70033E-11
2.97478E-11 8.69152E-11
3.21752E-11 8.68238E-11
3.46979E-11 8.67289E-11
3.73157E-11 8.66306E-11
4.00286E-11 8.65290E-11
4.28368E-11 8.64241E-11
4.57402E-11 8.63158E-11
4.87388E-11 8.62043E-11
5.18325E-11 8.60894E-11
5.50215E-11 8.59714E-11
5.83057E-11 8.58501E-11
6.16850E-11 8.57257E-11
6.51595E-11 8.55980E-11
6.87293E-11 8.54673E-11
7.23943E-11 8.53334E-11
7.61544E-11 8.51964E-11
1.18991E-10 8.36595E-11
1.71347E-10 8.18561E-11
2.33223E-10 7.98025E-11
3.04617E-10 7.75470E-11
3.85531E-10 7.51294E-11
4.75965E-10 7.25888E-11
5.75917E-10 6.99621E-11
6.85389E-10 6.72747E-11
8.04380E-10 6.45425E-11
9.32891E-10 6.18139E-11
1.07092E-09 5.91124E-11
1.21847E-09 5.64574E-11
1.37554E-09 5.38646E-11
1.54213E-09 5.13346E-11
1.71823E-09 4.88744E-11
1.90386E-09 4.65064E-11
2.09900E-09 4.42349E-11
2.30367E-09 4.20622E-11
2.51785E-09 3.99886E-11
2.74156E-09 3.80034E-11
2.97478E-09 3.61090E-11
3.21752E-09 3.43115E-11
3.46978E-09 3.26075E-11
3.73156E-09 3.09936E-11
4.00286E-09 2.94657E-11
4.28368E-09 2.80120E-11
4.57402E-09 2.66344E-11
4.87388E-09 2.53327E-11
5.18326E-09 2.41026E-11
5.50215E-09 2.29401E-11
5.83057E-09 2.18415E-11
6.16850E-09 2.07969E-11
6.51596E-09 1.98089E-11
6.87293E-09 1.88753E-11
7.23942E-09 1.79927E-11
7.61544E-09 1.71581E-11
1.18991E-08 1.07930E-11
1.71347E-08 7.12833E-12
2.33223E-08 4.82321E-12
3.04617E-08 3.38605E-12
3.85531E-08 2.45278E-12
4.75965E-08 1.82522E-12
5.75917E-08 1.38992E-12
6.85389E-08 1.07832E-12
8.04380E-08 8.48780E-13
9.32891E-08 6.77649E-13
1.07092E-07 5.47482E-13
1.21847E-07 4.46812E-13
1.37554E-07 3.67870E-13
1.54213E-07 3.05061E-13
1.71823E-07 2.54670E-13
1.90386E-07 2.14125E-13
2.09900E-07 1.81241E-13
2.30367E-07 1.54378E-13
2.51785E-07 1.32291E-13
2.74156E-07 1.14035E-13
2.97478E-07 9.87313E-14
3.21752E-07 8.59368E-14
3.46978E-07 7.51889E-14
3.73156E-07 6.61081E-14
4.00286E-07 5.83905E-14
4.28368E-07 5.17837E-14
4.57402E-07 4.60992E-14
4.87388E-07 4.11846E-14
5.18325E-07 3.69151E-14
5.50215E-07 3.31897E-14
5.83057E-07 2.99263E-14
6.16850E-07 2.70535E-14
6.51596E-07 2.45204E-14
6.87293E-07 2.22804E-14
7.23942E-07 2.02932E-14
7.61543E-07 1.85251E-14
1.18991E-06 8.21510E-15
1.71347E-06 4.18562E-15
2.33223E-06 2.35086E-15
3.04617E-06 1.41954E-15
3.85531E-06 9.06621E-16
4.75964E-06 6.05672E-16
5.75916E-06 4.19866E-16
6.85388E-06 3.00198E-16
8.04378E-06 2.20322E-16
9.32888E-06 1.65349E-16
1.07092E-05 1.26506E-16
1.21846E-05 9.84264E-17
1.37553E-05 7.77184E-17
1.54212E-05 6.21754E-17
1.71822E-05 5.03256E-17
1.90385E-05 4.11390E-17
2.09899E-05 3.39966E-17
2.30365E-05 2.83312E-17
2.51783E-05 2.37890E-17
2.74153E-05 2.01146E-17
2.97475E-05 1.71192E-17
3.21749E-05 1.46603E-17
3.46974E-05 1.26282E-17
3.73152E-05 1.09376E-17
4.00281E-05 9.52167E-18
4.28362E-05 8.32802E-18
4.57395E-05 7.31553E-18
4.87380E-05 6.45189E-18
5.18317E-05 5.71153E-18
5.50205E-05 5.07404E-18
5.83045E-05 4.52291E-18
6.16838E-05 4.04462E-18
6.51582E-05 3.62803E-18
6.87277E-05 3.26383E-18
7.23925E-05 2.94428E-18
7.61524E-05 2.66293E-18
9.21439E-05 1.82383E-18
1.09658E-04 1.29053E-18
1.28695E-04 9.38660E-19
1.49255E-04 6.98844E-19
1.71338E-04 5.30920E-19
1.94942E-04 4.10492E-19
2.20070E-04 3.22323E-19
2.46720E-04 2.56581E-19
2.74892E-04 2.06759E-19
3.04586E-04 1.68449E-19
3.35803E-04 1.38604E-19
3.68542E-04 1.15076E-19
4.02802E-04 9.63281E-20
4.38585E-04 8.12417E-20
4.75889E-04 6.89915E-20
5.14715E-04 5.89622E-20
5.55063E-04 5.06876E-20
5.96931E-04 4.38125E-20
6.40321E-04 3.80624E-20
6.85233E-04 3.32235E-20
7.31665E-04 2.91284E-20
7.79618E-04 2.56439E-20
8.29092E-04 2.26642E-20
8.80086E-04 2.01041E-20
9.32601E-04 1.78946E-20
9.86636E-04 1.59799E-20
1.04219E-03 1.43139E-20
1.09927E-03 1.28590E-20
1.15786E-03 1.15839E-20
1.21797E-03 1.04626E-20
1.27961E-03 9.47346E-21
1.34276E-03 8.59816E-21
1.40743E-03 7.82141E-21
1.47362E-03 7.13018E-21
1.54133E-03 6.51344E-21
1.61056E-03 5.96178E-21
1.68131E-03 5.46713E-21
1.75357E-03 5.02260E-21
1.82735E-03 4.62220E-21
1.90265E-03 4.26079E-21
1.97947E-03 3.93392E-21
2.05780E-03 3.63770E-21
2.13765E-03 3.36875E-21
2.21902E-03 3.12412E-21
2.30190E-03 2.90123E-21
2.38630E-03 2.69780E-21
2.47222E-03 2.51182E-21
2.55965E-03 2.34154E-21
2.64859E-03 2.18540E-21
2.73905E-03 2.04200E-21
2.83103E-03 1.91014E-21
2.92452E-03 1.78870E-21
3.01952E-03 1.67673E-21
3.11604E-03 1.57335E-21
3.21407E-03 1.47778E-21
3.31362E-03 1.38933E-21
3.41468E-03 1.30737E-21
3.51725E-03 1.23134E-21
3.62133E-03 1.16073E-21
3.72692E-03 1.09509E-21
3.83403E-03 1.03401E-21
3.94265E-03 9.77105E-22
4.05278E-03 9.24042E-22
4.16442E-03 8.74518E-22
4.27757E-03 8.28251E-22
4.39223E-03 7.84987E-22
4.50840E-03 7.44498E-22
4.62608E-03 7.06575E-22
4.74527E-03 6.71022E-22
4.86597E-03 6.37663E-22
4.98817E-03 6.06346E-22
5.11188E-03 5.76915E-22
5.23711E-03 5.49237E-22
5.36383E-03 5.23193E-22
5.49207E-03 4.98664E-22
5.62181E-03 4.75548E-22
5.75306E-03 4.53749E-22
5.88581E-03 4.33177E-22
6.02007E-03 4.13750E-22
6.15583E-03 3.95394E-22
6.29310E-03 3.78039E-22
6.43187E-03 3.61620E-22
6.57214E-03 3.46077E-22
6.71392E-03 3.31355E-22
6.85720E-03 3.17402E-22
7.00198E-03 3.04171E-22
7.14827E-03 2.91618E-22
7.29605E-03 2.79702E-22
7.44534E-03 2.68383E-22
7.59612E-03 2.57628E-22
7.97965E-03 2.32990E-22
8.37255E-03 2.11209E-22
8.77480E-03 1.91898E-22
9.18641E-03 1.74728E-22
9.60736E-03 1.59423E-22
1.00376E-02 1.45745E-22
1.04773E-02 1.33492E-22
1.09262E-02 1.22490E-22
1.13844E-02 1.12589E-22
1.18520E-02 1.03661E-22
1.23288E-02 9.55941E-23
1.28150E-02 8.82910E-23
1.33104E-02 8.16639E-23
1.38150E-02 7.56394E-23
1.43290E-02 7.01550E-23
1.48521E-02 6.51539E-23
1.53845E-02 6.05860E-23
1.59262E-02 5.64073E-23
1.64770E-02 5.25789E-23
1.70371E-02 4.90663E-23
1.76063E-02 4.58389E-23
1.81848E-02 4.28695E-23
1.87724E-02 4.01338E-23
1.93692E-02 3.76103E-23
1.99751E-02 3.52796E-23
2.05901E-02 3.31244E-23
2.12143E-02 3.11292E-23
2.18476E-02 2.92800E-23
2.24900E-02 2.75643E-23
2.31415E-02 2.59707E-23
2.38021E-02 2.44889E-23
2.44717E-02 2.31099E-23
2.51504E-02 2.18252E-23
2.58382E-02 2.06272E-23
2.65349E-02 1.95090E-23
2.72407E-02 1.84644E-23
2.79555E-02 1.74877E-23
2.86793E-02 1.65737E-23
2.94120E-02 1.57177E-23
3.01537E-02 1.49153E-23
3.09043E-02 1.41626E-23
3.16639E-02 1.34559E-23
3.24324E-02 1.27921E-23
3.32098E-02 1.21679E-23
3.39961E-02 1.15806E-23
3.47912E-02 1.10277E-23
3.55952E-02 1.05068E-23
3.64081E-02 1.00157E-23
3.72297E-02 9.55243E-24
3.80602E-02 9.11509E-24
3.88995E-02 8.70200E-24
3.97476E-02 8.31157E-24
4.06044E-02 7.94233E-24
4.14700E-02 7.59295E-24
4.23443E-02 7.26216E-24
4.32273E-02 6.94881E-24
4.41190E-02 6.65180E-24
4.50194E-02 6.37014E-24
4.59284E-02 6.10290E-24
4.68461E-02 5.84920E-24
4.87074E-02 5.37928E-24
5.06030E-02 4.95456E-24
5.25328E-02 4.56998E-24
5.44967E-02 4.22111E-24
5.64946E-02 3.90410E-24
5.85262E-02 3.61555E-24
6.05914E-02 3.35249E-24
6.26901E-02 3.11230E-24
6.48222E-02 2.89265E-24
6.69873E-02 2.69151E-24
6.91854E-02 2.50706E-24
7.14163E-02 2.33769E-24
7.36799E-02 2.18196E-24
7.59760E-02 2.03859E-24
7.83043E-02 1.90643E-24
8.06647E-02 1.78448E-24
8.30571E-02 1.67181E-24
8.54812E-02 1.56760E-24
8.79369E-02 1.47111E-24
9.04240E-02 1.38168E-24
9.29422E-02 1.29870E-24
9.54915E-02 1.22164E-24
9.80716E-02 1.15000E-24
1.00682E-01 1.08334E-24
1.03323E-01 1.02126E-24
1.05995E-01 9.63397E-25
1.08696E-01 9.09410E-25
1.11427E-01 8.59002E-25
1.14188E-01 8.11897E-25
1.16978E-01 7.67844E-25
1.19797E-01 7.26614E-25
1.22645E-01 6.87996E-25
1.25522E-01 6.51799E-25
1.28428E-01 6.17847E-25
1.31361E-01 5.85978E-25
1.34323E-01 5.56044E-25
1.37313E-01 5.27910E-25
1.40330E-01 5.01449E-25
1.43375E-01 4.76547E-25
1.46447E-01 4.53097E-25
1.49545E-01 4.31002E-25
1.52671E-01 4.10170E-25
1.55823E-01 3.90519E-25
1.59001E-01 3.71971E-25
1.62205E-01 3.54454E-25
1.65435E-01 3.37902E-25
1.68690E-01 3.22253E-25
1.71970E-01 3.07452E-25
1.75276E-01 2.93444E-25
1.78606E-01 2.80181E-25
1.81961E-01 2.67617E-25
1.85340E-01 2.55710E-25
1.88743E-01 2.44419E-25
1.92169E-01 2.33709E-25
1.95619E-01 2.23545E-25
1.99092E-01 2.13894E-25
2.02589E-01 2.04727E-25
2.06107E-01 1.96017E-25
2.09649E-01 1.87736E-25
2.13212E-01 1.79861E-25
2.16797E-01 1.72368E-25
2.20404E-01 1.65236E-25
2.24032E-01 1.58446E-25
2.27680E-01 1.51979E-25
2.31350E-01 1.45816E-25
2.35040E-01 1.39942E-25
2.38751E-01 1.34341E-25
2.42481E-01 1.28998E-25
2.46231E-01 1.23900E-25
2.50000E-01 1.19034E-25
2.53788E-01 1.14387E-25
2.57595E-01 1.09949E-25
2.61421E-01 1.05709E-25
2.65264E-01 1.01657E-25
2.69126E-01 9.77826E-26
2.73005E-01 9.40775E-26
2.76901E-01 9.05332E-26
2.80814E-01 8.71417E-26
2.84744E-01 8.38955E-26
2.88691E-01 8.07875E-26
2.92653E-01 7.78109E-26
2.96632E-01 7.49595E-26
3.00625E-01 7.22272E-26
3.04634E-01 6.96083E-26
3.08658E-01 6.70976E-26
3.12697E-01 6.46898E-26
3.16749E-01 6.23803E-26
3.20816E-01 6.01644E-26
3.24896E-01 5.80378E-26
3.28990E-01 5.59964E-26
3.33097E-01 5.40364E-26
3.37216E-01 5.21541E-26
3.41348E-01 5.03459E-26
3.45492E-01 4.86086E-26
3.49647E-01 4.69390E-26
3.53814E-01 4.53341E-26
3.57992E-01 4.37910E-26
3.62181E-01 4.23071E-26
3.66381E-01 4.08799E-26
3.70590E-01 3.95067E-26
3.74810E-01 3.81854E-26
3.79039E-01 3.69137E-26
3.83277E-01 3.56895E-26
3.87524E-01 3.45108E-26
3.91780E-01 3.33757E-26
3.96044E-01 3.22824E-26
4.00316E-01 3.12290E-26
4.04596E-01 3.02141E-26
4.08882E-01 2.92360E-26
4.13176E-01 2.82931E-26
4.17476E-01 2.73841E-26
4.21783E-01 2.65076E-26
4.26095E-01 2.56623E-26
4.30413E-01 2.48469E-26
4.34737E-01 2.40602E-26
4.39065E-01 2.33012E-26
4.43398E-01 2.25686E-26
4.47736E-01 2.18615E-26
4.52077E-01 2.11789E-26
4.56422E-01 2.05198E-26
4.60770E-01 1.98834E-26
4.65122E-01 1.92686E-26
4.69476E-01 1.86748E-26
4.73832E-01 1.81011E-26
4.78190E-01 1.75467E-26
4.82550E-01 1.70109E-26
4.86912E-01 1.64931E-26
4.91274E-01 1.59925E-26
4.95637E-01 1.55085E-26
5.00000E-01 1.50405E-26
5.04363E-01 1.45879E-26
5.08726E-01 1.41501E-26
5.13088E-01 1.37266E-26
5.17450E-01 1.33168E-26
5.21810E-01 1.29204E-26
5.26168E-01 1.25367E-26
5.30524E-01 1.21653E-26
5.34878E-01 1.18058E-26
5.39230E-01 1.14578E-26
5.43578E-01 1.11209E-26
5.47923E-01 1.07946E-26
5.52264E-01 1.04786E-26
5.56602E-01 1.01725E-26
5.60935E-01 9.87596E-27
5.65263E-01 9.58870E-27
5.69587E-01 9.31037E-27
5.73905E-01 9.04065E-27
5.78217E-01 8.77926E-27
5.82524E-01 8.52590E-27
5.86824E-01 8.28030E-27
5.91118E-01 8.04221E-27
5.95404E-01 7.81135E-27
5.99684E-01 7.58750E-27
6.03956E-01 7.37042E-27
6.08220E-01 7.15987E-27
6.12476E-01 6.95564E-27
6.16723E-01 6.75753E-27
6.20961E-01 6.56532E-27
6.25190E-01 6.37883E-27
6.29410E-01 6.19787E-27
6.33619E-01 6.02225E-27
6.37819E-01 5.85181E-27
6.42008E-01 5.68637E-27
6.46186E-01 5.52577E-27
6.50353E-01 5.36986E-27
6.54508E-01 5.21848E-27
6.58652E-01 5.07150E-27
6.62784E-01 4.92877E-27
6.66903E-01 4.79015E-27
6.71010E-01 4.65551E-27
6.75104E-01 4.52474E-27
6.79184E-01 4.39770E-27
6.83251E-01 4.27429E-27
6.87303E-01 4.15438E-27
6.91342E-01 4.03787E-27
6.95366E-01 3.92466E-27
6.99375E-01 3.81463E-27
7.03368E-01 3.70770E-27
7.07347E-01 3.60377E-27
7.11309E-01 3.50275E-27
7.15256E-01 3.40454E-27
7.19186E-01 3.30906E-27
7.23099E-01 3.21624E-27
7.26995E-01 3.12598E-27
7.30874E-01 3.03822E-27
7.34736E-01 2.95287E-27
7.38579E-01 2.86987E-27
7.42405E-01 2.78915E-27
7.46212E-01 2.71063E-27
7.50000E-01 2.63426E-27
7.53769E-01 2.55996E-27
7.57519E-01 2.48769E-27
7.61249E-01 2.41737E-27
7.64960E-01 2.34895E-27
7.68650E-01 2.28238E-27
7.72320E-01 2.21761E-27
7.75968E-01 2.15457E-27
7.79596E-01 2.09323E-27
7.83203E-01 2.03352E-27
7.86788E-01 1.97542E-27
7.90351E-01 1.91886E-27
7.93893E-01 1.86381E-27
7.97411E-01 1.81022E-27
8.00908E-01 1.75805E-27
8.04381E-01 1.70726E-27
8.07831E-01 1.65782E-27
8.11257E-01 1.60968E-27
8.14660E-01 1.56281E-27
8.18039E-01 1.51718E-27
8.21394E-01 1.47274E-27
8.24724E-01 1.42947E-27
8.28030E-01 1.38733E-27
8.31310E-01 1.34630E-27
8.34565E-01 1.30634E-27
8.37795E-01 1.26742E-27
8.40999E-01 1.22952E-27
8.44177E-01 1.19260E-27
8.47329E-01 1.15665E-27
8.50455E-01 1.12163E-27
8.53553E-01 1.08752E-27
8.56625E-01 1.05430E-27
8.59670E-01 1.02194E-27
8.62687E-01 9.90423E-28
8.65677E-01 9.59722E-28
8.68639E-01 9.29816E-28
8.71572E-01 9.00686E-28
8.74478E-01 8.72311E-28
8.77355E-01 8.44671E-28
8.80203E-01 8.17748E-28
8.83022E-01 7.91523E-28
8.85812E-01 7.65979E-28
8.88573E-01 7.41097E-28
8.91304E-01 7.16862E-28
8.94005E-01 6.93256E-28
8.96677E-01 6.70264E-28
8.99318E-01 6.47870E-28
9.01928E-01 6.26061E-28
9.04508E-01 6.04820E-28
9.07058E-01 5.84135E-28
9.09576E-01 5.63991E-28
9.12063E-01 5.44376E-28
9.14519E-01 5.25276E-28
9.16943E-01 5.06679E-28
9.19335E-01 4.88573E-28
9.21696E-01 4.70947E-28
9.24024E-01 4.53788E-28
9.26320E-01 4.37086E-28
9.28584E-01 4.20831E-28
9.30815E-01 4.05012E-28
9.33013E-01 3.89618E-28
9.35178E-01 3.74640E-28
9.37310E-01 3.60069E-28
9.39409E-01 3.45896E-28
9.41474E-01 3.32111E-28
9.43505E-01 3.18706E-28
9.45503E-01 3.05672E-28
9.47467E-01 2.93002E-28
9.49397E-01 2.80688E-28
9.51293E-01 2.68721E-28
9.53154E-01 2.57095E-28
9.54981E-01 2.45803E-28
9.56773E-01 2.34837E-28
9.58530E-01 2.24191E-28
9.60252E-01 2.13858E-28
9.61940E-01 2.03833E-28
9.63592E-01 1.94108E-28
9.65209E-01 1.84678E-28
9.66790E-01 1.75538E-28
9.68336E-01 1.66682E-28
9.69846E-01 1.58104E-28
9.71321E-01 1.49800E-28
9.72759E-01 1.41764E-28
9.74162E-01 1.33992E-28
9.75528E-01 1.26479E-28
9.76858E-01 1.19220E-28
9.78152E-01 1.12212E-28
9.79410E-01 1.05449E-28
9.80631E-01 9.89293E-29
9.81815E-01 9.26475E-29
9.82963E-01 8.66002E-29
9.84074E-01 8.07840E-29
9.85148E-01 7.51954E-29
9.86185E-01 6.98312E-29
9.87185E-01 6.46881E-29
9.88148E-01 5.97633E-29
9.89074E-01 5.50538E-29
9.89962E-01 5.05569E-29
9.90814E-01 4.62700E-29
9.91627E-01 4.21906E-29
9.92404E-01 3.83164E-29
9.93143E-01 3.46450E-29
9.93844E-01 3.11744E-29
9.94508E-01 2.79026E-29
9.95134E-01 2.48276E-29
9.95722E-01 2.19478E-29
9.96273E-01 1.92614E-29
9.96786E-01 1.67669E-29
9.97261E-01 1.44629E-29
9.97698E-01 1.23481E-29
9.98097E-01 1.04211E-29
9.98459E-01 8.68103E-30
9.98782E-01 7.12676E-30
9.99067E-01 5.75743E-30
9.99315E-01 4.57226E-30
9.99524E-01 3.57057E-30
9.99695E-01 2.75178E-30
9.99829E-01 2.11543E-30
9.99924E-01 1.66116E-30
9.99981E-01 1.38870E-30
1.00000E+00 1.29790E-30
