 #
 # Subroutine ELSEPA. Elastic scattering of electrons and positrons
 #                    by neutral atoms and positive ions
 #
 # Projectile: positron
 # Kinetic energy = 1.00000E+08 eV = 3.67493E+06 a.u.
 #
 # WARNING: High-energy factorization with free-atom DF screening.
 #          Absorption, polarization and exchange corrections are
 #          switched off.
 #          Phase shifts are calculated for the bare nucleus.
 #          Scattering amplitudes are not evaluated.
 #
 # Element: Hg,  Z =  80,  atomic weight = 2.00590E+02 g/mol
 #
 # Nuclear model: Fermi distribution
 #                Average radius = 6.26355E-13 cm
 #                Skin thickness = 5.46000E-14 cm
 #
 # Number of electrons = 80
 #
 # Total elastic cross section = 7.89375E-18 cm**2 = 2.81891E-01 a0**2
 # 1st transport cross section = 1.15116E-24 cm**2 = 4.11086E-08 a0**2
 # 2nd transport cross section = 3.42108E-24 cm**2 = 1.22169E-07 a0**2
 #
 #
 # Differential cross section:                       MU=(1-COS(THETA))/2
 #
 #  THETA        MU          DCS          DCS        Sherman      error
 #  (deg)                 (cm**2/sr)   (a0**2/sr)    function
 #----------------------------------------------------------------------
0.00000E+00 4.29473E-10
7.61557E-13 4.28769E-10
1.18994E-12 4.28376E-10
1.71346E-12 4.27897E-10
2.33225E-12 4.27333E-10
3.04617E-12 4.26683E-10
3.85530E-12 4.25949E-10
4.75964E-12 4.25132E-10
5.75917E-12 4.24232E-10
6.85391E-12 4.23250E-10
8.04379E-12 4.22188E-10
9.32893E-12 4.21046E-10
1.07092E-11 4.19826E-10
1.21847E-11 4.18529E-10
1.37554E-11 4.17157E-10
1.54213E-11 4.15710E-10
1.71823E-11 4.14190E-10
1.90386E-11 4.12598E-10
2.09900E-11 4.10938E-10
2.30367E-11 4.09204E-10
2.51785E-11 4.07385E-10
2.74156E-11 4.05511E-10
2.97478E-11 4.03586E-10
3.21752E-11 4.01612E-10
3.46979E-11 3.99593E-10
3.73157E-11 3.97476E-10
4.00286E-11 3.95295E-10
4.28368E-11 3.93076E-10
4.57402E-11 3.90821E-10
4.87388E-11 3.88534E-10
5.18325E-11 3.86194E-10
5.50215E-11 3.83750E-10
5.83057E-11 3.81281E-10
6.16850E-11 3.78791E-10
6.51595E-11 3.76282E-10
6.87293E-11 3.73757E-10
7.23943E-11 3.71123E-10
7.61544E-11 3.68452E-10
1.18991E-10 3.40671E-10
1.71347E-10 3.11531E-10
2.33223E-10 2.82365E-10
3.04617E-10 2.54374E-10
3.85531E-10 2.28224E-10
4.75965E-10 2.04260E-10
5.75917E-10 1.82592E-10
6.85389E-10 1.63168E-10
8.04380E-10 1.45815E-10
9.32891E-10 1.30428E-10
1.07092E-09 1.16810E-10
1.21847E-09 1.04766E-10
1.37554E-09 9.41123E-11
1.54213E-09 8.46786E-11
1.71823E-09 7.63041E-11
1.90386E-09 6.88800E-11
2.09900E-09 6.22891E-11
2.30367E-09 5.63399E-11
2.51785E-09 5.07197E-11
2.74156E-09 4.59337E-11
2.97478E-09 4.18333E-11
3.21752E-09 3.83003E-11
3.46978E-09 3.52394E-11
3.73156E-09 3.22009E-11
4.00286E-09 2.94135E-11
4.28368E-09 2.69824E-11
4.57402E-09 2.48524E-11
4.87388E-09 2.29783E-11
5.18326E-09 2.12669E-11
5.50215E-09 1.95914E-11
5.83057E-09 1.81078E-11
6.16850E-09 1.67892E-11
6.51596E-09 1.56133E-11
6.87293E-09 1.45613E-11
7.23942E-09 1.35402E-11
7.61544E-09 1.26039E-11
1.18991E-08 6.70188E-12
1.71347E-08 3.91360E-12
2.33223E-08 2.43065E-12
3.04617E-08 1.58091E-12
3.85531E-08 1.06661E-12
4.75965E-08 7.42957E-13
5.75917E-08 5.32958E-13
6.85389E-08 3.91820E-13
8.04380E-08 2.95107E-13
9.32891E-08 2.26970E-13
1.07092E-07 1.77622E-13
1.21847E-07 1.41069E-13
1.37554E-07 1.13514E-13
1.54213E-07 9.24201E-14
1.71823E-07 7.60288E-14
1.90386E-07 6.31226E-14
2.09900E-07 5.28399E-14
2.30367E-07 4.45576E-14
2.51785E-07 3.78194E-14
2.74156E-07 3.23595E-14
2.97478E-07 2.78074E-14
3.21752E-07 2.40566E-14
3.46978E-07 2.09010E-14
3.73156E-07 1.82554E-14
4.00286E-07 1.60117E-14
4.28368E-07 1.41035E-14
4.57402E-07 1.24722E-14
4.87388E-07 1.10675E-14
5.18325E-07 9.85809E-15
5.50215E-07 8.80567E-15
5.83057E-07 7.89363E-15
6.16850E-07 7.09268E-15
6.51596E-07 6.39358E-15
6.87293E-07 5.77618E-15
7.23942E-07 5.23289E-15
7.61543E-07 4.75109E-15
1.18991E-06 2.01960E-15
1.71347E-06 9.99036E-16
2.33223E-06 5.49498E-16
3.04617E-06 3.26648E-16
3.85531E-06 2.06086E-16
4.75964E-06 1.36302E-16
5.75916E-06 9.36797E-17
6.85388E-06 6.64760E-17
8.04378E-06 4.84617E-17
9.32888E-06 3.61545E-17
1.07092E-05 2.75168E-17
1.21846E-05 2.13111E-17
1.37553E-05 1.67603E-17
1.54212E-05 1.33620E-17
1.71822E-05 1.07829E-17
1.90385E-05 8.79167E-18
2.09899E-05 7.24888E-18
2.30365E-05 6.02895E-18
2.51783E-05 5.05361E-18
2.74153E-05 4.26649E-18
2.97475E-05 3.62616E-18
3.21749E-05 3.10149E-18
3.46974E-05 2.66860E-18
3.73152E-05 2.30897E-18
4.00281E-05 2.00816E-18
4.28362E-05 1.75487E-18
4.57395E-05 1.54024E-18
4.87380E-05 1.35734E-18
5.18317E-05 1.20069E-18
5.50205E-05 1.06592E-18
5.83045E-05 9.49500E-19
6.16838E-05 8.48543E-19
6.51582E-05 7.60668E-19
6.87277E-05 6.83896E-19
7.23925E-05 6.16579E-19
7.61524E-05 5.57431E-19
9.21439E-05 3.81016E-19
1.09658E-04 2.69131E-19
1.28695E-04 1.95450E-19
1.49255E-04 1.45320E-19
1.71338E-04 1.10271E-19
1.94942E-04 8.51715E-20
2.20070E-04 6.68183E-20
2.46720E-04 5.31489E-20
2.74892E-04 4.28001E-20
3.04586E-04 3.48496E-20
3.35803E-04 2.86608E-20
3.68542E-04 2.37855E-20
4.02802E-04 1.99031E-20
4.38585E-04 1.67806E-20
4.75889E-04 1.42465E-20
5.14715E-04 1.21727E-20
5.55063E-04 1.04624E-20
5.96931E-04 9.04188E-21
6.40321E-04 7.85416E-21
6.85233E-04 6.85493E-21
7.31665E-04 6.00947E-21
7.79618E-04 5.29023E-21
8.29092E-04 4.67529E-21
8.80086E-04 4.14702E-21
9.32601E-04 3.69117E-21
9.86636E-04 3.29617E-21
1.04219E-03 2.95253E-21
1.09927E-03 2.65244E-21
1.15786E-03 2.38944E-21
1.21797E-03 2.15819E-21
1.27961E-03 1.95419E-21
1.34276E-03 1.77368E-21
1.40743E-03 1.61349E-21
1.47362E-03 1.47094E-21
1.54133E-03 1.34375E-21
1.61056E-03 1.22998E-21
1.68131E-03 1.12797E-21
1.75357E-03 1.03628E-21
1.82735E-03 9.53701E-22
1.90265E-03 8.79159E-22
1.97947E-03 8.11737E-22
2.05780E-03 7.50635E-22
2.13765E-03 6.95156E-22
2.21902E-03 6.44691E-22
2.30190E-03 5.98709E-22
2.38630E-03 5.56739E-22
2.47222E-03 5.18371E-22
2.55965E-03 4.83243E-22
2.64859E-03 4.51034E-22
2.73905E-03 4.21437E-22
2.83103E-03 3.94212E-22
2.92452E-03 3.69141E-22
3.01952E-03 3.46021E-22
3.11604E-03 3.24673E-22
3.21407E-03 3.04938E-22
3.31362E-03 2.86672E-22
3.41468E-03 2.69745E-22
3.51725E-03 2.54042E-22
3.62133E-03 2.39458E-22
3.72692E-03 2.25899E-22
3.83403E-03 2.13280E-22
3.94265E-03 2.01524E-22
4.05278E-03 1.90561E-22
4.16442E-03 1.80328E-22
4.27757E-03 1.70768E-22
4.39223E-03 1.61829E-22
4.50840E-03 1.53462E-22
4.62608E-03 1.45625E-22
4.74527E-03 1.38277E-22
4.86597E-03 1.31383E-22
4.98817E-03 1.24910E-22
5.11188E-03 1.18827E-22
5.23711E-03 1.13107E-22
5.36383E-03 1.07723E-22
5.49207E-03 1.02653E-22
5.62181E-03 9.78743E-23
5.75306E-03 9.33679E-23
5.88581E-03 8.91153E-23
6.02007E-03 8.50994E-23
6.15583E-03 8.13047E-23
6.29310E-03 7.77169E-23
6.43187E-03 7.43225E-23
6.57214E-03 7.11092E-23
6.71392E-03 6.80657E-23
6.85720E-03 6.51812E-23
7.00198E-03 6.24461E-23
7.14827E-03 5.98510E-23
7.29605E-03 5.73876E-23
7.44534E-03 5.50480E-23
7.59612E-03 5.28247E-23
7.97965E-03 4.77321E-23
8.37255E-03 4.32303E-23
8.77480E-03 3.92395E-23
9.18641E-03 3.56919E-23
9.60736E-03 3.25300E-23
1.00376E-02 2.97050E-23
1.04773E-02 2.71748E-23
1.09262E-02 2.49035E-23
1.13844E-02 2.28602E-23
1.18520E-02 2.10182E-23
1.23288E-02 1.93542E-23
1.28150E-02 1.78483E-23
1.33104E-02 1.64827E-23
1.38150E-02 1.52424E-23
1.43290E-02 1.41138E-23
1.48521E-02 1.30851E-23
1.53845E-02 1.21462E-23
1.59262E-02 1.12877E-23
1.64770E-02 1.05017E-23
1.70371E-02 9.78107E-24
1.76063E-02 9.11939E-24
1.81848E-02 8.51105E-24
1.87724E-02 7.95105E-24
1.93692E-02 7.43490E-24
1.99751E-02 6.95859E-24
2.05901E-02 6.51855E-24
2.12143E-02 6.11155E-24
2.18476E-02 5.73470E-24
2.24900E-02 5.38539E-24
2.31415E-02 5.06129E-24
2.38021E-02 4.76028E-24
2.44717E-02 4.48044E-24
2.51504E-02 4.22003E-24
2.58382E-02 3.97749E-24
2.65349E-02 3.75140E-24
2.72407E-02 3.54045E-24
2.79555E-02 3.34348E-24
2.86793E-02 3.15939E-24
2.94120E-02 2.98722E-24
3.01537E-02 2.82606E-24
3.09043E-02 2.67511E-24
3.16639E-02 2.53361E-24
3.24324E-02 2.40088E-24
3.32098E-02 2.27628E-24
3.39961E-02 2.15924E-24
3.47912E-02 2.04923E-24
3.55952E-02 1.94576E-24
3.64081E-02 1.84838E-24
3.72297E-02 1.75668E-24
3.80602E-02 1.67027E-24
3.88995E-02 1.58880E-24
3.97476E-02 1.51195E-24
4.06044E-02 1.43941E-24
4.14700E-02 1.37090E-24
4.23443E-02 1.30617E-24
4.32273E-02 1.24498E-24
4.41190E-02 1.18710E-24
4.50194E-02 1.13233E-24
4.59284E-02 1.08047E-24
4.68461E-02 1.03135E-24
4.87074E-02 9.40665E-25
5.06030E-02 8.59083E-25
5.25328E-02 7.85563E-25
5.44967E-02 7.19200E-25
5.64946E-02 6.59202E-25
5.85262E-02 6.04878E-25
6.05914E-02 5.55619E-25
6.26901E-02 5.10891E-25
6.48222E-02 4.70223E-25
6.69873E-02 4.33198E-25
6.91854E-02 3.99449E-25
7.14163E-02 3.68650E-25
7.36799E-02 3.40509E-25
7.59760E-02 3.14770E-25
7.83043E-02 2.91201E-25
8.06647E-02 2.69599E-25
8.30571E-02 2.49779E-25
8.54812E-02 2.31576E-25
8.79369E-02 2.14844E-25
9.04240E-02 1.99449E-25
9.29422E-02 1.85274E-25
9.54915E-02 1.72209E-25
9.80716E-02 1.60159E-25
1.00682E-01 1.49036E-25
1.03323E-01 1.38761E-25
1.05995E-01 1.29262E-25
1.08696E-01 1.20475E-25
1.11427E-01 1.12341E-25
1.14188E-01 1.04806E-25
1.16978E-01 9.78211E-26
1.19797E-01 9.13429E-26
1.22645E-01 8.53306E-26
1.25522E-01 7.97476E-26
1.28428E-01 7.45602E-26
1.31361E-01 6.97379E-26
1.34323E-01 6.52524E-26
1.37313E-01 6.10781E-26
1.40330E-01 5.71915E-26
1.43375E-01 5.35709E-26
1.46447E-01 5.01967E-26
1.49545E-01 4.70505E-26
1.52671E-01 4.41157E-26
1.55823E-01 4.13768E-26
1.59001E-01 3.88197E-26
1.62205E-01 3.64314E-26
1.65435E-01 3.41998E-26
1.68690E-01 3.21139E-26
1.71970E-01 3.01634E-26
1.75276E-01 2.83388E-26
1.78606E-01 2.66314E-26
1.81961E-01 2.50332E-26
1.85340E-01 2.35366E-26
1.88743E-01 2.21347E-26
1.92169E-01 2.08211E-26
1.95619E-01 1.95899E-26
1.99092E-01 1.84355E-26
2.02589E-01 1.73529E-26
2.06107E-01 1.63373E-26
2.09649E-01 1.53842E-26
2.13212E-01 1.44896E-26
2.16797E-01 1.36497E-26
2.20404E-01 1.28609E-26
2.24032E-01 1.21199E-26
2.27680E-01 1.14237E-26
2.31350E-01 1.07693E-26
2.35040E-01 1.01542E-26
2.38751E-01 9.57587E-27
2.42481E-01 9.03193E-27
2.46231E-01 8.52026E-27
2.50000E-01 8.03884E-27
2.53788E-01 7.58578E-27
2.57595E-01 7.15934E-27
2.61421E-01 6.75787E-27
2.65264E-01 6.37983E-27
2.69126E-01 6.02379E-27
2.73005E-01 5.68841E-27
2.76901E-01 5.37242E-27
2.80814E-01 5.07467E-27
2.84744E-01 4.79404E-27
2.88691E-01 4.52951E-27
2.92653E-01 4.28011E-27
2.96632E-01 4.04494E-27
3.00625E-01 3.82315E-27
3.04634E-01 3.61395E-27
3.08658E-01 3.41660E-27
3.12697E-01 3.23039E-27
3.16749E-01 3.05468E-27
3.20816E-01 2.88884E-27
3.24896E-01 2.73230E-27
3.28990E-01 2.58452E-27
3.33097E-01 2.44499E-27
3.37216E-01 2.31323E-27
3.41348E-01 2.18879E-27
3.45492E-01 2.07125E-27
3.49647E-01 1.96022E-27
3.53814E-01 1.85532E-27
3.57992E-01 1.75620E-27
3.62181E-01 1.66254E-27
3.66381E-01 1.57401E-27
3.70590E-01 1.49034E-27
3.74810E-01 1.41124E-27
3.79039E-01 1.33646E-27
3.83277E-01 1.26575E-27
3.87524E-01 1.19889E-27
3.91780E-01 1.13565E-27
3.96044E-01 1.07585E-27
4.00316E-01 1.01928E-27
4.04596E-01 9.65760E-28
4.08882E-01 9.15128E-28
4.13176E-01 8.67221E-28
4.17476E-01 8.21887E-28
4.21783E-01 7.78985E-28
4.26095E-01 7.38381E-28
4.30413E-01 6.99947E-28
4.34737E-01 6.63565E-28
4.39065E-01 6.29122E-28
4.43398E-01 5.96512E-28
4.47736E-01 5.65635E-28
4.52077E-01 5.36396E-28
4.56422E-01 5.08706E-28
4.60770E-01 4.82480E-28
4.65122E-01 4.57640E-28
4.69476E-01 4.34110E-28
4.73832E-01 4.11819E-28
4.78190E-01 3.90701E-28
4.82550E-01 3.70692E-28
4.86912E-01 3.51732E-28
4.91274E-01 3.33765E-28
4.95637E-01 3.16738E-28
5.00000E-01 3.00601E-28
5.04363E-01 2.85305E-28
5.08726E-01 2.70806E-28
5.13088E-01 2.57061E-28
5.17450E-01 2.44030E-28
5.21810E-01 2.31676E-28
5.26168E-01 2.19961E-28
5.30524E-01 2.08853E-28
5.34878E-01 1.98320E-28
5.39230E-01 1.88330E-28
5.43578E-01 1.78855E-28
5.47923E-01 1.69868E-28
5.52264E-01 1.61343E-28
5.56602E-01 1.53256E-28
5.60935E-01 1.45584E-28
5.65263E-01 1.38305E-28
5.69587E-01 1.31398E-28
5.73905E-01 1.24845E-28
5.78217E-01 1.18626E-28
5.82524E-01 1.12724E-28
5.86824E-01 1.07123E-28
5.91118E-01 1.01807E-28
5.95404E-01 9.67608E-29
5.99684E-01 9.19707E-29
6.03956E-01 8.74235E-29
6.08220E-01 8.31064E-29
6.12476E-01 7.90077E-29
6.16723E-01 7.51160E-29
6.20961E-01 7.14205E-29
6.25190E-01 6.79113E-29
6.29410E-01 6.45787E-29
6.33619E-01 6.14136E-29
6.37819E-01 5.84075E-29
6.42008E-01 5.55521E-29
6.46186E-01 5.28397E-29
6.50353E-01 5.02630E-29
6.54508E-01 4.78150E-29
6.58652E-01 4.54893E-29
6.62784E-01 4.32794E-29
6.66903E-01 4.11796E-29
6.71010E-01 3.91843E-29
6.75104E-01 3.72880E-29
6.79184E-01 3.54858E-29
6.83251E-01 3.37729E-29
6.87303E-01 3.21448E-29
6.91342E-01 3.05972E-29
6.95366E-01 2.91260E-29
6.99375E-01 2.77273E-29
7.03368E-01 2.63975E-29
7.07347E-01 2.51331E-29
7.11309E-01 2.39308E-29
7.15256E-01 2.27875E-29
7.19186E-01 2.17002E-29
7.23099E-01 2.06661E-29
7.26995E-01 1.96826E-29
7.30874E-01 1.87471E-29
7.34736E-01 1.78571E-29
7.38579E-01 1.70105E-29
7.42405E-01 1.62051E-29
7.46212E-01 1.54388E-29
7.50000E-01 1.47096E-29
7.53769E-01 1.40157E-29
7.57519E-01 1.33554E-29
7.61249E-01 1.27269E-29
7.64960E-01 1.21288E-29
7.68650E-01 1.15594E-29
7.72320E-01 1.10175E-29
7.75968E-01 1.05015E-29
7.79596E-01 1.00103E-29
7.83203E-01 9.54262E-30
7.86788E-01 9.09727E-30
7.90351E-01 8.67318E-30
7.93893E-01 8.26930E-30
7.97411E-01 7.88464E-30
8.00908E-01 7.51825E-30
8.04381E-01 7.16923E-30
8.07831E-01 6.83675E-30
8.11257E-01 6.51998E-30
8.14660E-01 6.21816E-30
8.18039E-01 5.93057E-30
8.21394E-01 5.65650E-30
8.24724E-01 5.39531E-30
8.28030E-01 5.14636E-30
8.31310E-01 4.90906E-30
8.34565E-01 4.68285E-30
8.37795E-01 4.46719E-30
8.40999E-01 4.26157E-30
8.44177E-01 4.06550E-30
8.47329E-01 3.87853E-30
8.50455E-01 3.70021E-30
8.53553E-01 3.53014E-30
8.56625E-01 3.36791E-30
8.59670E-01 3.21315E-30
8.62687E-01 3.06550E-30
8.65677E-01 2.92462E-30
8.68639E-01 2.79019E-30
8.71572E-01 2.66190E-30
8.74478E-01 2.53946E-30
8.77355E-01 2.42259E-30
8.80203E-01 2.31103E-30
8.83022E-01 2.20452E-30
8.85812E-01 2.10283E-30
8.88573E-01 2.00573E-30
8.91304E-01 1.91301E-30
8.94005E-01 1.82445E-30
8.96677E-01 1.73987E-30
8.99318E-01 1.65907E-30
9.01928E-01 1.58188E-30
9.04508E-01 1.50814E-30
9.07058E-01 1.43767E-30
9.09576E-01 1.37034E-30
9.12063E-01 1.30599E-30
9.14519E-01 1.24449E-30
9.16943E-01 1.18570E-30
9.19335E-01 1.12951E-30
9.21696E-01 1.07578E-30
9.24024E-01 1.02442E-30
9.26320E-01 9.75309E-31
9.28584E-01 9.28346E-31
9.30815E-01 8.83435E-31
9.33013E-01 8.40484E-31
9.35178E-01 7.99404E-31
9.37310E-01 7.60110E-31
9.39409E-01 7.22525E-31
9.41474E-01 6.86571E-31
9.43505E-01 6.52176E-31
9.45503E-01 6.19271E-31
9.47467E-01 5.87791E-31
9.49397E-01 5.57673E-31
9.51293E-01 5.28858E-31
9.53154E-01 5.01289E-31
9.54981E-01 4.74913E-31
9.56773E-01 4.49678E-31
9.58530E-01 4.25536E-31
9.60252E-01 4.02441E-31
9.61940E-01 3.80347E-31
9.63592E-01 3.59214E-31
9.65209E-01 3.39001E-31
9.66790E-01 3.19671E-31
9.68336E-01 3.01187E-31
9.69846E-01 2.83514E-31
9.71321E-01 2.66621E-31
9.72759E-01 2.50476E-31
9.74162E-01 2.35050E-31
9.75528E-01 2.20313E-31
9.76858E-01 2.06241E-31
9.78152E-01 1.92807E-31
9.79410E-01 1.79987E-31
9.80631E-01 1.67759E-31
9.81815E-01 1.56101E-31
9.82963E-01 1.44991E-31
9.84074E-01 1.34412E-31
9.85148E-01 1.24343E-31
9.86185E-01 1.14769E-31
9.87185E-01 1.05671E-31
9.88148E-01 9.70342E-32
9.89074E-01 8.88443E-32
9.89962E-01 8.10868E-32
9.90814E-01 7.37487E-32
9.91627E-01 6.68175E-32
9.92404E-01 6.02814E-32
9.93143E-01 5.41296E-32
9.93844E-01 4.83515E-32
9.94508E-01 4.29378E-32
9.95134E-01 3.78792E-32
9.95722E-01 3.31675E-32
9.96273E-01 2.87948E-32
9.96786E-01 2.47540E-32
9.97261E-01 2.10383E-32
9.97698E-01 1.76417E-32
9.98097E-01 1.45588E-32
9.98459E-01 1.17842E-32
9.98782E-01 9.31373E-33
9.99067E-01 7.14315E-33
9.99315E-01 5.26910E-33
9.99524E-01 3.68846E-33
9.99695E-01 2.39866E-33
9.99829E-01 1.39762E-33
9.99924E-01 6.83768E-34
9.99981E-01 2.55901E-34
1.00000E+00 1.13377E-34
