 #
 # Subroutine ELSEPA. Elastic scattering of electrons and positrons
 #                    by neutral atoms and positive ions
 #
 # Projectile: positron
 # Kinetic energy = 1.75000E+08 eV = 6.43113E+06 a.u.
 #
 # WARNING: High-energy factorization with free-atom DF screening.
 #          Absorption, polarization and exchange corrections are
 #          switched off.
 #          Phase shifts are calculated for the bare nucleus.
 #          Scattering amplitudes are not evaluated.
 #
 # Element: Hg,  Z =  80,  atomic weight = 2.00590E+02 g/mol
 #
 # Nuclear model: Fermi distribution
 #                Average radius = 6.26355E-13 cm
 #                Skin thickness = 5.46000E-14 cm
 #
 # Number of electrons = 80
 #
 # Total elastic cross section = 7.89064E-18 cm**2 = 2.81780E-01 a0**2
 # 1st transport cross section = 3.83722E-25 cm**2 = 1.37030E-08 a0**2
 # 2nd transport cross section = 1.14741E-24 cm**2 = 4.09746E-08 a0**2
 #
 #
 # Differential cross section:                       MU=(1-COS(THETA))/2
 #
 #  THETA        MU          DCS          DCS        Sherman      error
 #  (deg)                 (cm**2/sr)   (a0**2/sr)    function
 #----------------------------------------------------------------------
0.00000E+00 1.30953E-09
7.61557E-13 1.30304E-09
1.18994E-12 1.29942E-09
1.71346E-12 1.29502E-09
2.33225E-12 1.28986E-09
3.04617E-12 1.28395E-09
3.85530E-12 1.27732E-09
4.75964E-12 1.26997E-09
5.75917E-12 1.26194E-09
6.85391E-12 1.25326E-09
8.04379E-12 1.24387E-09
9.32893E-12 1.23387E-09
1.07092E-11 1.22341E-09
1.21847E-11 1.21237E-09
1.37554E-11 1.20070E-09
1.54213E-11 1.18868E-09
1.71823E-11 1.17625E-09
1.90386E-11 1.16317E-09
2.09900E-11 1.14988E-09
2.30367E-11 1.13636E-09
2.51785E-11 1.12215E-09
2.74156E-11 1.10787E-09
2.97478E-11 1.09354E-09
3.21752E-11 1.07851E-09
3.46979E-11 1.06350E-09
3.73157E-11 1.04856E-09
4.00286E-11 1.03306E-09
4.28368E-11 1.01759E-09
4.57402E-11 1.00229E-09
4.87388E-11 9.86574E-10
5.18325E-11 9.70873E-10
5.50215E-11 9.55418E-10
5.83057E-11 9.39722E-10
6.16850E-11 9.23996E-10
6.51595E-11 9.08580E-10
6.87293E-11 8.93085E-10
7.23943E-11 8.77509E-10
7.61544E-11 8.62291E-10
1.18991E-10 7.16981E-10
1.71347E-10 5.90447E-10
2.33223E-10 4.85045E-10
3.04617E-10 3.99039E-10
3.85531E-10 3.29455E-10
4.75965E-10 2.73260E-10
5.75917E-10 2.27733E-10
6.85389E-10 1.90800E-10
8.04380E-10 1.59496E-10
9.32891E-10 1.34241E-10
1.07092E-09 1.14881E-10
1.21847E-09 9.87441E-11
1.37554E-09 8.45013E-11
1.54213E-09 7.32259E-11
1.71823E-09 6.38926E-11
1.90386E-09 5.55402E-11
2.09900E-09 4.87471E-11
2.30367E-09 4.31023E-11
2.51785E-09 3.79965E-11
2.74156E-09 3.37499E-11
2.97478E-09 3.01887E-11
3.21752E-09 2.69354E-11
3.46978E-09 2.41764E-11
3.73156E-09 2.18233E-11
4.00286E-09 1.96813E-11
4.28368E-09 1.78201E-11
4.57402E-09 1.62103E-11
4.87388E-09 1.47447E-11
5.18326E-09 1.34454E-11
5.50215E-09 1.23085E-11
5.83057E-09 1.12728E-11
6.16850E-09 1.03389E-11
6.51596E-09 9.51364E-12
6.87293E-09 8.76211E-12
7.23942E-09 8.07451E-12
7.61544E-09 7.46194E-12
1.18991E-08 3.60692E-12
1.71347E-08 1.92666E-12
2.33223E-08 1.11911E-12
3.04617E-08 6.97492E-13
3.85531E-08 4.58684E-13
4.75965E-08 3.14376E-13
5.75917E-08 2.22892E-13
6.85389E-08 1.62429E-13
8.04380E-08 1.21035E-13
9.32891E-08 9.21476E-14
1.07092E-07 7.13968E-14
1.21847E-07 5.61270E-14
1.37554E-07 4.47425E-14
1.54213E-07 3.61083E-14
1.71823E-07 2.94611E-14
1.90386E-07 2.42750E-14
2.09900E-07 2.01726E-14
2.30367E-07 1.69020E-14
2.51785E-07 1.42685E-14
2.74156E-07 1.21287E-14
2.97478E-07 1.03753E-14
3.21752E-07 8.92600E-15
3.46978E-07 7.72165E-15
3.73156E-07 6.71413E-15
4.00286E-07 5.86601E-15
4.28368E-07 5.14789E-15
4.57402E-07 4.53609E-15
4.87388E-07 4.01276E-15
5.18325E-07 3.56296E-15
5.50215E-07 3.17459E-15
5.83057E-07 2.83781E-15
6.16850E-07 2.54440E-15
6.51596E-07 2.28803E-15
6.87293E-07 2.06319E-15
7.23942E-07 1.86534E-15
7.61543E-07 1.69066E-15
1.18991E-06 7.08170E-16
1.71347E-06 3.46288E-16
2.33223E-06 1.88645E-16
3.04617E-06 1.11314E-16
3.85531E-06 6.98475E-17
4.75964E-06 4.60147E-17
5.75916E-06 3.15349E-17
6.85388E-06 2.23289E-17
8.04378E-06 1.62502E-17
9.32888E-06 1.21062E-17
1.07092E-05 9.20265E-18
1.21846E-05 7.11946E-18
1.37553E-05 5.59358E-18
1.54212E-05 4.45530E-18
1.71822E-05 3.59225E-18
1.90385E-05 2.92649E-18
2.09899E-05 2.41109E-18
2.30365E-05 2.00388E-18
2.51783E-05 1.67855E-18
2.74153E-05 1.41619E-18
2.97475E-05 1.20292E-18
3.21749E-05 1.02828E-18
3.46974E-05 8.84287E-19
3.73152E-05 7.64731E-19
4.00281E-05 6.64786E-19
4.28362E-05 5.80674E-19
4.57395E-05 5.09442E-19
4.87380E-05 4.48770E-19
5.18317E-05 3.96831E-19
5.50205E-05 3.52166E-19
5.83045E-05 3.13598E-19
6.16838E-05 2.80167E-19
6.51582E-05 2.51079E-19
6.87277E-05 2.25676E-19
7.23925E-05 2.03410E-19
7.61524E-05 1.84019E-19
9.21439E-05 1.25704E-19
1.09658E-04 8.87536E-20
1.28695E-04 6.44373E-20
1.49255E-04 4.79020E-20
1.71338E-04 3.63461E-20
1.94942E-04 2.80728E-20
2.20070E-04 2.20246E-20
2.46720E-04 1.75205E-20
2.74892E-04 1.41107E-20
3.04586E-04 1.14912E-20
3.35803E-04 9.45213E-21
3.68542E-04 7.84565E-21
4.02802E-04 6.56626E-21
4.38585E-04 5.53719E-21
4.75889E-04 4.70189E-21
5.14715E-04 4.01823E-21
5.55063E-04 3.45429E-21
5.96931E-04 2.98581E-21
6.40321E-04 2.59403E-21
6.85233E-04 2.26437E-21
7.31665E-04 1.98539E-21
7.79618E-04 1.74801E-21
8.29092E-04 1.54503E-21
8.80086E-04 1.37065E-21
9.32601E-04 1.22005E-21
9.86636E-04 1.08952E-21
1.04219E-03 9.75942E-22
1.09927E-03 8.76739E-22
1.15786E-03 7.89781E-22
1.21797E-03 7.13303E-22
1.27961E-03 6.45824E-22
1.34276E-03 5.86103E-22
1.40743E-03 5.33098E-22
1.47362E-03 4.85919E-22
1.54133E-03 4.43819E-22
1.61056E-03 4.06154E-22
1.68131E-03 3.72376E-22
1.75357E-03 3.42015E-22
1.82735E-03 3.14664E-22
1.90265E-03 2.89973E-22
1.97947E-03 2.67638E-22
2.05780E-03 2.47394E-22
2.13765E-03 2.29012E-22
2.21902E-03 2.12290E-22
2.30190E-03 1.97052E-22
2.38630E-03 1.83142E-22
2.47222E-03 1.70426E-22
2.55965E-03 1.58781E-22
2.64859E-03 1.48103E-22
2.73905E-03 1.38296E-22
2.83103E-03 1.29277E-22
2.92452E-03 1.20971E-22
3.01952E-03 1.13313E-22
3.11604E-03 1.06242E-22
3.21407E-03 9.97056E-23
3.31362E-03 9.36564E-23
3.41468E-03 8.80514E-23
3.51725E-03 8.28524E-23
3.62133E-03 7.80246E-23
3.72692E-03 7.35370E-23
3.83403E-03 6.93612E-23
3.94265E-03 6.54719E-23
4.05278E-03 6.18458E-23
4.16442E-03 5.84620E-23
4.27757E-03 5.53015E-23
4.39223E-03 5.23470E-23
4.50840E-03 4.95825E-23
4.62608E-03 4.69939E-23
4.74527E-03 4.45678E-23
4.86597E-03 4.22924E-23
4.98817E-03 4.01566E-23
5.11188E-03 3.81503E-23
5.23711E-03 3.62643E-23
5.36383E-03 3.44902E-23
5.49207E-03 3.28201E-23
5.62181E-03 3.12469E-23
5.75306E-03 2.97640E-23
5.88581E-03 2.83653E-23
6.02007E-03 2.70452E-23
6.15583E-03 2.57984E-23
6.29310E-03 2.46203E-23
6.43187E-03 2.35064E-23
6.57214E-03 2.24526E-23
6.71392E-03 2.14550E-23
6.85720E-03 2.05103E-23
7.00198E-03 1.96150E-23
7.14827E-03 1.87662E-23
7.29605E-03 1.79610E-23
7.44534E-03 1.71968E-23
7.59612E-03 1.64712E-23
7.97965E-03 1.48113E-23
8.37255E-03 1.33471E-23
8.77480E-03 1.20519E-23
9.18641E-03 1.09032E-23
9.60736E-03 9.88193E-24
1.00376E-02 8.97180E-24
1.04773E-02 8.15889E-24
1.09262E-02 7.43125E-24
1.13844E-02 6.77860E-24
1.18520E-02 6.19206E-24
1.23288E-02 5.66395E-24
1.28150E-02 5.18760E-24
1.33104E-02 4.75720E-24
1.38150E-02 4.36767E-24
1.43290E-02 4.01458E-24
1.48521E-02 3.69404E-24
1.53845E-02 3.40262E-24
1.59262E-02 3.13731E-24
1.64770E-02 2.89544E-24
1.70371E-02 2.67467E-24
1.76063E-02 2.47290E-24
1.81848E-02 2.28828E-24
1.87724E-02 2.11915E-24
1.93692E-02 1.96405E-24
1.99751E-02 1.82166E-24
2.05901E-02 1.69080E-24
2.12143E-02 1.57043E-24
2.18476E-02 1.45960E-24
2.24900E-02 1.35745E-24
2.31415E-02 1.26323E-24
2.38021E-02 1.17624E-24
2.44717E-02 1.09587E-24
2.51504E-02 1.02155E-24
2.58382E-02 9.52769E-25
2.65349E-02 8.89072E-25
2.72407E-02 8.30039E-25
2.79555E-02 7.75291E-25
2.86793E-02 7.24484E-25
2.94120E-02 6.77302E-25
3.01537E-02 6.33459E-25
3.09043E-02 5.92696E-25
3.16639E-02 5.54773E-25
3.24324E-02 5.19472E-25
3.32098E-02 4.86594E-25
3.39961E-02 4.55957E-25
3.47912E-02 4.27393E-25
3.55952E-02 4.00749E-25
3.64081E-02 3.75883E-25
3.72297E-02 3.52667E-25
3.80602E-02 3.30981E-25
3.88995E-02 3.10716E-25
3.97476E-02 2.91770E-25
4.06044E-02 2.74051E-25
4.14700E-02 2.57472E-25
4.23443E-02 2.41955E-25
4.32273E-02 2.27425E-25
4.41190E-02 2.13816E-25
4.50194E-02 2.01064E-25
4.59284E-02 1.89112E-25
4.68461E-02 1.77906E-25
4.87074E-02 1.57535E-25
5.06030E-02 1.39595E-25
5.25328E-02 1.23779E-25
5.44967E-02 1.09820E-25
5.64946E-02 9.74894E-26
5.85262E-02 8.65870E-26
6.05914E-02 7.69394E-26
6.26901E-02 6.83957E-26
6.48222E-02 6.08242E-26
6.69873E-02 5.41099E-26
6.91854E-02 4.81521E-26
7.14163E-02 4.28627E-26
7.36799E-02 3.81642E-26
7.59760E-02 3.39888E-26
7.83043E-02 3.02766E-26
8.06647E-02 2.69750E-26
8.30571E-02 2.40375E-26
8.54812E-02 2.14232E-26
8.79369E-02 1.90959E-26
9.04240E-02 1.70236E-26
9.29422E-02 1.51779E-26
9.54915E-02 1.35338E-26
9.80716E-02 1.20690E-26
1.00682E-01 1.07637E-26
1.03323E-01 9.60062E-27
1.05995E-01 8.56401E-27
1.08696E-01 7.64011E-27
1.11427E-01 6.81662E-27
1.14188E-01 6.08260E-27
1.16978E-01 5.42833E-27
1.19797E-01 4.84515E-27
1.22645E-01 4.32533E-27
1.25522E-01 3.86199E-27
1.28428E-01 3.44902E-27
1.31361E-01 3.08095E-27
1.34323E-01 2.75291E-27
1.37313E-01 2.46055E-27
1.40330E-01 2.20000E-27
1.43375E-01 1.96781E-27
1.46447E-01 1.76090E-27
1.49545E-01 1.57651E-27
1.52671E-01 1.41219E-27
1.55823E-01 1.26575E-27
1.59001E-01 1.13524E-27
1.62205E-01 1.01893E-27
1.65435E-01 9.15246E-28
1.68690E-01 8.22816E-28
1.71970E-01 7.40401E-28
1.75276E-01 6.66900E-28
1.78606E-01 6.01332E-28
1.81961E-01 5.42823E-28
1.85340E-01 4.90593E-28
1.88743E-01 4.43947E-28
1.92169E-01 4.02268E-28
1.95619E-01 3.65006E-28
1.99092E-01 3.31670E-28
2.02589E-01 3.01825E-28
2.06107E-01 2.75084E-28
2.09649E-01 2.51102E-28
2.13212E-01 2.29573E-28
2.16797E-01 2.10225E-28
2.20404E-01 1.92816E-28
2.24032E-01 1.77133E-28
2.27680E-01 1.62983E-28
2.31350E-01 1.50200E-28
2.35040E-01 1.38632E-28
2.38751E-01 1.28147E-28
2.42481E-01 1.18629E-28
2.46231E-01 1.09971E-28
2.50000E-01 1.02082E-28
2.53788E-01 9.48801E-29
2.57595E-01 8.82929E-29
2.61421E-01 8.22563E-29
2.65264E-01 7.67133E-29
2.69126E-01 7.16139E-29
2.73005E-01 6.69133E-29
2.76901E-01 6.25723E-29
2.80814E-01 5.85560E-29
2.84744E-01 5.48332E-29
2.88691E-01 5.13768E-29
2.92653E-01 4.81622E-29
2.96632E-01 4.51678E-29
3.00625E-01 4.23746E-29
3.04634E-01 3.97653E-29
3.08658E-01 3.73247E-29
3.12697E-01 3.50393E-29
3.16749E-01 3.28968E-29
3.20816E-01 3.08865E-29
3.24896E-01 2.89985E-29
3.28990E-01 2.72240E-29
3.33097E-01 2.55552E-29
3.37216E-01 2.39849E-29
3.41348E-01 2.25065E-29
3.45492E-01 2.11142E-29
3.49647E-01 1.98026E-29
3.53814E-01 1.85667E-29
3.57992E-01 1.74020E-29
3.62181E-01 1.63044E-29
3.66381E-01 1.52700E-29
3.70590E-01 1.42952E-29
3.74810E-01 1.33767E-29
3.79039E-01 1.25114E-29
3.83277E-01 1.16964E-29
3.87524E-01 1.09291E-29
3.91780E-01 1.02068E-29
3.96044E-01 9.52717E-30
4.00316E-01 8.88793E-30
4.04596E-01 8.28694E-30
4.08882E-01 7.72218E-30
4.13176E-01 7.19171E-30
4.17476E-01 6.69373E-30
4.21783E-01 6.22648E-30
4.26095E-01 5.78833E-30
4.30413E-01 5.37770E-30
4.34737E-01 4.99309E-30
4.39065E-01 4.63309E-30
4.43398E-01 4.29633E-30
4.47736E-01 3.98151E-30
4.52077E-01 3.68742E-30
4.56422E-01 3.41287E-30
4.60770E-01 3.15674E-30
4.65122E-01 2.91796E-30
4.69476E-01 2.69554E-30
4.73832E-01 2.48849E-30
4.78190E-01 2.29590E-30
4.82550E-01 2.11689E-30
4.86912E-01 1.95064E-30
4.91274E-01 1.79637E-30
4.95637E-01 1.65331E-30
5.00000E-01 1.52077E-30
5.04363E-01 1.39807E-30
5.08726E-01 1.28457E-30
5.13088E-01 1.17968E-30
5.17450E-01 1.08283E-30
5.21810E-01 9.93469E-31
5.26168E-01 9.11100E-31
5.30524E-01 8.35243E-31
5.34878E-01 7.65445E-31
5.39230E-01 7.01283E-31
5.43578E-01 6.42355E-31
5.47923E-01 5.88287E-31
5.52264E-01 5.38726E-31
5.56602E-01 4.93339E-31
5.60935E-01 4.51817E-31
5.65263E-01 4.13869E-31
5.69587E-01 3.79222E-31
5.73905E-01 3.47621E-31
5.78217E-01 3.18828E-31
5.82524E-01 2.92622E-31
5.86824E-01 2.68794E-31
5.91118E-01 2.47153E-31
5.95404E-01 2.27518E-31
5.99684E-01 2.09723E-31
6.03956E-01 1.93611E-31
6.08220E-01 1.79040E-31
6.12476E-01 1.65876E-31
6.16723E-01 1.53994E-31
6.20961E-01 1.43281E-31
6.25190E-01 1.33631E-31
6.29410E-01 1.24946E-31
6.33619E-01 1.17136E-31
6.37819E-01 1.10119E-31
6.42008E-01 1.03818E-31
6.46186E-01 9.81638E-32
6.50353E-01 9.30911E-32
6.54508E-01 8.85415E-32
6.58652E-01 8.44611E-32
6.62784E-01 8.08006E-32
6.66903E-01 7.75151E-32
6.71010E-01 7.45637E-32
6.75104E-01 7.19091E-32
6.79184E-01 6.95176E-32
6.83251E-01 6.73585E-32
6.87303E-01 6.54040E-32
6.91342E-01 6.36291E-32
6.95366E-01 6.20113E-32
6.99375E-01 6.05303E-32
7.03368E-01 5.91679E-32
7.07347E-01 5.79077E-32
7.11309E-01 5.67354E-32
7.15256E-01 5.56379E-32
7.19186E-01 5.46039E-32
7.23099E-01 5.36232E-32
7.26995E-01 5.26869E-32
7.30874E-01 5.17872E-32
7.34736E-01 5.09173E-32
7.38579E-01 5.00714E-32
7.42405E-01 4.92443E-32
7.46212E-01 4.84317E-32
7.50000E-01 4.76300E-32
7.53769E-01 4.68361E-32
7.57519E-01 4.60473E-32
7.61249E-01 4.52617E-32
7.64960E-01 4.44776E-32
7.68650E-01 4.36936E-32
7.72320E-01 4.29088E-32
7.75968E-01 4.21226E-32
7.79596E-01 4.13344E-32
7.83203E-01 4.05441E-32
7.86788E-01 3.97516E-32
7.90351E-01 3.89572E-32
7.93893E-01 3.81609E-32
7.97411E-01 3.73633E-32
8.00908E-01 3.65647E-32
8.04381E-01 3.57657E-32
8.07831E-01 3.49670E-32
8.11257E-01 3.41691E-32
8.14660E-01 3.33728E-32
8.18039E-01 3.25787E-32
8.21394E-01 3.17876E-32
8.24724E-01 3.10002E-32
8.28030E-01 3.02171E-32
8.31310E-01 2.94391E-32
8.34565E-01 2.86669E-32
8.37795E-01 2.79011E-32
8.40999E-01 2.71424E-32
8.44177E-01 2.63914E-32
8.47329E-01 2.56486E-32
8.50455E-01 2.49147E-32
8.53553E-01 2.41900E-32
8.56625E-01 2.34753E-32
8.59670E-01 2.27707E-32
8.62687E-01 2.20769E-32
8.65677E-01 2.13941E-32
8.68639E-01 2.07228E-32
8.71572E-01 2.00631E-32
8.74478E-01 1.94155E-32
8.77355E-01 1.87800E-32
8.80203E-01 1.81570E-32
8.83022E-01 1.75467E-32
8.85812E-01 1.69490E-32
8.88573E-01 1.63642E-32
8.91304E-01 1.57924E-32
8.94005E-01 1.52337E-32
8.96677E-01 1.46879E-32
8.99318E-01 1.41553E-32
9.01928E-01 1.36357E-32
9.04508E-01 1.31291E-32
9.07058E-01 1.26355E-32
9.09576E-01 1.21548E-32
9.12063E-01 1.16869E-32
9.14519E-01 1.12317E-32
9.16943E-01 1.07890E-32
9.19335E-01 1.03589E-32
9.21696E-01 9.94099E-33
9.24024E-01 9.53527E-33
9.26320E-01 9.14152E-33
9.28584E-01 8.75957E-33
9.30815E-01 8.38923E-33
9.33013E-01 8.03031E-33
9.35178E-01 7.68261E-33
9.37310E-01 7.34594E-33
9.39409E-01 7.02004E-33
9.41474E-01 6.70475E-33
9.43505E-01 6.39982E-33
9.45503E-01 6.10506E-33
9.47467E-01 5.82023E-33
9.49397E-01 5.54511E-33
9.51293E-01 5.27947E-33
9.53154E-01 5.02310E-33
9.54981E-01 4.77577E-33
9.56773E-01 4.53726E-33
9.58530E-01 4.30736E-33
9.60252E-01 4.08583E-33
9.61940E-01 3.87247E-33
9.63592E-01 3.66706E-33
9.65209E-01 3.46940E-33
9.66790E-01 3.27926E-33
9.68336E-01 3.09647E-33
9.69846E-01 2.92079E-33
9.71321E-01 2.75205E-33
9.72759E-01 2.59004E-33
9.74162E-01 2.43459E-33
9.75528E-01 2.28550E-33
9.76858E-01 2.14259E-33
9.78152E-01 2.00569E-33
9.79410E-01 1.87463E-33
9.80631E-01 1.74925E-33
9.81815E-01 1.62937E-33
9.82963E-01 1.51485E-33
9.84074E-01 1.40553E-33
9.85148E-01 1.30127E-33
9.86185E-01 1.20192E-33
9.87185E-01 1.10736E-33
9.88148E-01 1.01744E-33
9.89074E-01 9.32045E-34
9.89962E-01 8.51056E-34
9.90814E-01 7.74350E-34
9.91627E-01 7.01818E-34
9.92404E-01 6.33360E-34
9.93143E-01 5.68869E-34
9.93844E-01 5.08255E-34
9.94508E-01 4.51422E-34
9.95134E-01 3.98292E-34
9.95722E-01 3.48777E-34
9.96273E-01 3.02807E-34
9.96786E-01 2.60310E-34
9.97261E-01 2.21223E-34
9.97698E-01 1.85483E-34
9.98097E-01 1.53034E-34
9.98459E-01 1.23829E-34
9.98782E-01 9.78189E-35
9.99067E-01 7.49668E-35
9.99315E-01 5.52314E-35
9.99524E-01 3.85852E-35
9.99695E-01 2.50023E-35
9.99829E-01 1.44602E-35
9.99924E-01 6.94175E-36
9.99981E-01 2.43569E-36
1.00000E+00 9.33477E-37
