 #
 # Subroutine ELSEPA. Elastic scattering of electrons and positrons
 #                    by neutral atoms and positive ions
 #
 # Projectile: positron
 # Kinetic energy = 9.00000E+07 eV = 3.30744E+06 a.u.
 #
 # WARNING: High-energy factorization with free-atom DF screening.
 #          Absorption, polarization and exchange corrections are
 #          switched off.
 #          Phase shifts are calculated for the bare nucleus.
 #          Scattering amplitudes are not evaluated.
 #
 # Element: Hg,  Z =  80,  atomic weight = 2.00590E+02 g/mol
 #
 # Nuclear model: Fermi distribution
 #                Average radius = 6.26355E-13 cm
 #                Skin thickness = 5.46000E-14 cm
 #
 # Number of electrons = 80
 #
 # Total elastic cross section = 7.89296E-18 cm**2 = 2.81863E-01 a0**2
 # 1st transport cross section = 1.41242E-24 cm**2 = 5.04385E-08 a0**2
 # 2nd transport cross section = 4.18989E-24 cm**2 = 1.49624E-07 a0**2
 #
 #
 # Differential cross section:                       MU=(1-COS(THETA))/2
 #
 #  THETA        MU          DCS          DCS        Sherman      error
 #  (deg)                 (cm**2/sr)   (a0**2/sr)    function
 #----------------------------------------------------------------------
0.00000E+00 3.48266E-10
7.61557E-13 3.47803E-10
1.18994E-12 3.47544E-10
1.71346E-12 3.47229E-10
2.33225E-12 3.46857E-10
3.04617E-12 3.46429E-10
3.85530E-12 3.45945E-10
4.75964E-12 3.45405E-10
5.75917E-12 3.44811E-10
6.85391E-12 3.44163E-10
8.04379E-12 3.43461E-10
9.32893E-12 3.42705E-10
1.07092E-11 3.41897E-10
1.21847E-11 3.41037E-10
1.37554E-11 3.40126E-10
1.54213E-11 3.39164E-10
1.71823E-11 3.38153E-10
1.90386E-11 3.37093E-10
2.09900E-11 3.35985E-10
2.30367E-11 3.34830E-10
2.51785E-11 3.33630E-10
2.74156E-11 3.32384E-10
2.97478E-11 3.31079E-10
3.21752E-11 3.29732E-10
3.46979E-11 3.28350E-10
3.73157E-11 3.26934E-10
4.00286E-11 3.25487E-10
4.28368E-11 3.24011E-10
4.57402E-11 3.22467E-10
4.87388E-11 3.20878E-10
5.18325E-11 3.19264E-10
5.50215E-11 3.17626E-10
5.83057E-11 3.15966E-10
6.16850E-11 3.14286E-10
6.51595E-11 3.12541E-10
6.87293E-11 3.10751E-10
7.23943E-11 3.08946E-10
7.61544E-11 3.07126E-10
1.18991E-10 2.87684E-10
1.71347E-10 2.66789E-10
2.33223E-10 2.45324E-10
3.04617E-10 2.24246E-10
3.85531E-10 2.04013E-10
4.75965E-10 1.84967E-10
5.75917E-10 1.67417E-10
6.85389E-10 1.51325E-10
8.04380E-10 1.36718E-10
9.32891E-10 1.23578E-10
1.07092E-09 1.11722E-10
1.21847E-09 1.01096E-10
1.37554E-09 9.16000E-11
1.54213E-09 8.30593E-11
1.71823E-09 7.54240E-11
1.90386E-09 6.85953E-11
2.09900E-09 6.24458E-11
2.30367E-09 5.69391E-11
2.51785E-09 5.19953E-11
2.74156E-09 4.75361E-11
2.97478E-09 4.32573E-11
3.21752E-09 3.94513E-11
3.46978E-09 3.61503E-11
3.73156E-09 3.32737E-11
4.00286E-09 3.07554E-11
4.28368E-09 2.85410E-11
4.57402E-09 2.63176E-11
4.87388E-09 2.42440E-11
5.18326E-09 2.24122E-11
5.50215E-09 2.07879E-11
5.83057E-09 1.93425E-11
6.16850E-09 1.80518E-11
6.51596E-09 1.67941E-11
6.87293E-09 1.56106E-11
7.23942E-09 1.45491E-11
7.61544E-09 1.35941E-11
1.18991E-08 7.33738E-12
1.71347E-08 4.33420E-12
2.33223E-08 2.72657E-12
3.04617E-08 1.79962E-12
3.85531E-08 1.22886E-12
4.75965E-08 8.63267E-13
5.75917E-08 6.22730E-13
6.85389E-08 4.59966E-13
8.04380E-08 3.46765E-13
9.32891E-08 2.66775E-13
1.07092E-07 2.08950E-13
1.21847E-07 1.66206E-13
1.37554E-07 1.33965E-13
1.54213E-07 1.09195E-13
1.71823E-07 8.99416E-14
1.90386E-07 7.47912E-14
2.09900E-07 6.27092E-14
2.30367E-07 5.29812E-14
2.51785E-07 4.50680E-14
2.74156E-07 3.85724E-14
2.97478E-07 3.31833E-14
3.21752E-07 2.87268E-14
3.46978E-07 2.50031E-14
3.73156E-07 2.18473E-14
4.00286E-07 1.91933E-14
4.28368E-07 1.69125E-14
4.57402E-07 1.49695E-14
4.87388E-07 1.32969E-14
5.18325E-07 1.18489E-14
5.50215E-07 1.05987E-14
5.83057E-07 9.50160E-15
6.16850E-07 8.54728E-15
6.51596E-07 7.70790E-15
6.87293E-07 6.96904E-15
7.23942E-07 6.31803E-15
7.61543E-07 5.73890E-15
1.18991E-06 2.44960E-15
1.71347E-06 1.21450E-15
2.33223E-06 6.69135E-16
3.04617E-06 3.98435E-16
3.85531E-06 2.51754E-16
4.75964E-06 1.66720E-16
5.75916E-06 1.14705E-16
6.85388E-06 8.14606E-17
8.04378E-06 5.94223E-17
9.32888E-06 4.43523E-17
1.07092E-05 3.37685E-17
1.21846E-05 2.61605E-17
1.37553E-05 2.05790E-17
1.54212E-05 1.64097E-17
1.71822E-05 1.32448E-17
1.90385E-05 1.08006E-17
2.09899E-05 8.90665E-18
2.30365E-05 7.40882E-18
2.51783E-05 6.21106E-18
2.74153E-05 5.24432E-18
2.97475E-05 4.45777E-18
3.21749E-05 3.81325E-18
3.46974E-05 3.28138E-18
3.73152E-05 2.83949E-18
4.00281E-05 2.46983E-18
4.28362E-05 2.15851E-18
4.57395E-05 1.89470E-18
4.87380E-05 1.66988E-18
5.18317E-05 1.47729E-18
5.50205E-05 1.31159E-18
5.83045E-05 1.16843E-18
6.16838E-05 1.04427E-18
6.51582E-05 9.36200E-19
6.87277E-05 8.41772E-19
7.23925E-05 7.58967E-19
7.61524E-05 6.86170E-19
9.21439E-05 4.69113E-19
1.09658E-04 3.31416E-19
1.28695E-04 2.40717E-19
1.49255E-04 1.78997E-19
1.71338E-04 1.35838E-19
1.94942E-04 1.04926E-19
2.20070E-04 8.23207E-20
2.46720E-04 6.54827E-20
2.74892E-04 5.27340E-20
3.04586E-04 4.29391E-20
3.35803E-04 3.53143E-20
3.68542E-04 2.93073E-20
4.02802E-04 2.45237E-20
4.38585E-04 2.06763E-20
4.75889E-04 1.75538E-20
5.14715E-04 1.49984E-20
5.55063E-04 1.28910E-20
5.96931E-04 1.11405E-20
6.40321E-04 9.67697E-21
6.85233E-04 8.44570E-21
7.31665E-04 7.40391E-21
7.79618E-04 6.51765E-21
8.29092E-04 5.75992E-21
8.80086E-04 5.10899E-21
9.32601E-04 4.54731E-21
9.86636E-04 4.06061E-21
1.04219E-03 3.63719E-21
1.09927E-03 3.26745E-21
1.15786E-03 2.94342E-21
1.21797E-03 2.65850E-21
1.27961E-03 2.40718E-21
1.34276E-03 2.18478E-21
1.40743E-03 1.98743E-21
1.47362E-03 1.81182E-21
1.54133E-03 1.65513E-21
1.61056E-03 1.51498E-21
1.68131E-03 1.38931E-21
1.75357E-03 1.27637E-21
1.82735E-03 1.17464E-21
1.90265E-03 1.08283E-21
1.97947E-03 9.99777E-22
2.05780E-03 9.24516E-22
2.13765E-03 8.56181E-22
2.21902E-03 7.94023E-22
2.30190E-03 7.37387E-22
2.38630E-03 6.85692E-22
2.47222E-03 6.38433E-22
2.55965E-03 5.95160E-22
2.64859E-03 5.55478E-22
2.73905E-03 5.19037E-22
2.83103E-03 4.85523E-22
2.92452E-03 4.54660E-22
3.01952E-03 4.26201E-22
3.11604E-03 3.99927E-22
3.21407E-03 3.75640E-22
3.31362E-03 3.53160E-22
3.41468E-03 3.32317E-22
3.51725E-03 3.12980E-22
3.62133E-03 2.95022E-22
3.72692E-03 2.78326E-22
3.83403E-03 2.62788E-22
3.94265E-03 2.48313E-22
4.05278E-03 2.34814E-22
4.16442E-03 2.22215E-22
4.27757E-03 2.10444E-22
4.39223E-03 1.99437E-22
4.50840E-03 1.89136E-22
4.62608E-03 1.79486E-22
4.74527E-03 1.70440E-22
4.86597E-03 1.61952E-22
4.98817E-03 1.53982E-22
5.11188E-03 1.46493E-22
5.23711E-03 1.39450E-22
5.36383E-03 1.32821E-22
5.49207E-03 1.26579E-22
5.62181E-03 1.20695E-22
5.75306E-03 1.15147E-22
5.88581E-03 1.09911E-22
6.02007E-03 1.04967E-22
6.15583E-03 1.00294E-22
6.29310E-03 9.58769E-23
6.43187E-03 9.16975E-23
6.57214E-03 8.77411E-23
6.71392E-03 8.39936E-23
6.85720E-03 8.04419E-23
7.00198E-03 7.70740E-23
7.14827E-03 7.38786E-23
7.29605E-03 7.08453E-23
7.44534E-03 6.79642E-23
7.59612E-03 6.52265E-23
7.97965E-03 5.89550E-23
8.37255E-03 5.34108E-23
8.77480E-03 4.84955E-23
9.18641E-03 4.41258E-23
9.60736E-03 4.02308E-23
1.00376E-02 3.67503E-23
1.04773E-02 3.36328E-23
1.09262E-02 3.08340E-23
1.13844E-02 2.83158E-23
1.18520E-02 2.60453E-23
1.23288E-02 2.39940E-23
1.28150E-02 2.21371E-23
1.33104E-02 2.04532E-23
1.38150E-02 1.89233E-23
1.43290E-02 1.75309E-23
1.48521E-02 1.62617E-23
1.53845E-02 1.51029E-23
1.59262E-02 1.40432E-23
1.64770E-02 1.30727E-23
1.70371E-02 1.21827E-23
1.76063E-02 1.13653E-23
1.81848E-02 1.06136E-23
1.87724E-02 9.92147E-24
1.93692E-02 9.28334E-24
1.99751E-02 8.69430E-24
2.05901E-02 8.14994E-24
2.12143E-02 7.64630E-24
2.18476E-02 7.17981E-24
2.24900E-02 6.74728E-24
2.31415E-02 6.34583E-24
2.38021E-02 5.97283E-24
2.44717E-02 5.62594E-24
2.51504E-02 5.30303E-24
2.58382E-02 5.00216E-24
2.65349E-02 4.72158E-24
2.72407E-02 4.45968E-24
2.79555E-02 4.21503E-24
2.86793E-02 3.98629E-24
2.94120E-02 3.77226E-24
3.01537E-02 3.57184E-24
3.09043E-02 3.38402E-24
3.16639E-02 3.20788E-24
3.24324E-02 3.04257E-24
3.32098E-02 2.88731E-24
3.39961E-02 2.74141E-24
3.47912E-02 2.60419E-24
3.55952E-02 2.47507E-24
3.64081E-02 2.35348E-24
3.72297E-02 2.23891E-24
3.80602E-02 2.13090E-24
3.88995E-02 2.02901E-24
3.97476E-02 1.93284E-24
4.06044E-02 1.84201E-24
4.14700E-02 1.75617E-24
4.23443E-02 1.67502E-24
4.32273E-02 1.59826E-24
4.41190E-02 1.52561E-24
4.50194E-02 1.45681E-24
4.59284E-02 1.39163E-24
4.68461E-02 1.32986E-24
4.87074E-02 1.21569E-24
5.06030E-02 1.11285E-24
5.25328E-02 1.02003E-24
5.44967E-02 9.36125E-25
5.64946E-02 8.60154E-25
5.85262E-02 7.91259E-25
6.05914E-02 7.28688E-25
6.26901E-02 6.71780E-25
6.48222E-02 6.19950E-25
6.69873E-02 5.72683E-25
6.91854E-02 5.29521E-25
7.14163E-02 4.90060E-25
7.36799E-02 4.53938E-25
7.59760E-02 4.20837E-25
7.83043E-02 3.90469E-25
8.06647E-02 3.62578E-25
8.30571E-02 3.36937E-25
8.54812E-02 3.13341E-25
8.79369E-02 2.91604E-25
9.04240E-02 2.71563E-25
9.29422E-02 2.53068E-25
9.54915E-02 2.35984E-25
9.80716E-02 2.20191E-25
1.00682E-01 2.05580E-25
1.03323E-01 1.92050E-25
1.05995E-01 1.79513E-25
1.08696E-01 1.67887E-25
1.11427E-01 1.57097E-25
1.14188E-01 1.47077E-25
1.16978E-01 1.37765E-25
1.19797E-01 1.29106E-25
1.22645E-01 1.21049E-25
1.25522E-01 1.13546E-25
1.28428E-01 1.06556E-25
1.31361E-01 1.00040E-25
1.34323E-01 9.39623E-26
1.37313E-01 8.82898E-26
1.40330E-01 8.29930E-26
1.43375E-01 7.80442E-26
1.46447E-01 7.34183E-26
1.49545E-01 6.90921E-26
1.52671E-01 6.50441E-26
1.55823E-01 6.12546E-26
1.59001E-01 5.77056E-26
1.62205E-01 5.43802E-26
1.65435E-01 5.12631E-26
1.68690E-01 4.83398E-26
1.71970E-01 4.55973E-26
1.75276E-01 4.30232E-26
1.78606E-01 4.06064E-26
1.81961E-01 3.83362E-26
1.85340E-01 3.62031E-26
1.88743E-01 3.41979E-26
1.92169E-01 3.23125E-26
1.95619E-01 3.05389E-26
1.99092E-01 2.88699E-26
2.02589E-01 2.72990E-26
2.06107E-01 2.58198E-26
2.09649E-01 2.44265E-26
2.13212E-01 2.31138E-26
2.16797E-01 2.18766E-26
2.20404E-01 2.07102E-26
2.24032E-01 1.96102E-26
2.27680E-01 1.85726E-26
2.31350E-01 1.75936E-26
2.35040E-01 1.66696E-26
2.38751E-01 1.57973E-26
2.42481E-01 1.49735E-26
2.46231E-01 1.41954E-26
2.50000E-01 1.34603E-26
2.53788E-01 1.27656E-26
2.57595E-01 1.21090E-26
2.61421E-01 1.14881E-26
2.65264E-01 1.09010E-26
2.69126E-01 1.03456E-26
2.73005E-01 9.82023E-27
2.76901E-01 9.32303E-27
2.80814E-01 8.85243E-27
2.84744E-01 8.40692E-27
2.88691E-01 7.98507E-27
2.92653E-01 7.58554E-27
2.96632E-01 7.20709E-27
3.00625E-01 6.84853E-27
3.04634E-01 6.50875E-27
3.08658E-01 6.18672E-27
3.12697E-01 5.88144E-27
3.16749E-01 5.59199E-27
3.20816E-01 5.31751E-27
3.24896E-01 5.05718E-27
3.28990E-01 4.81023E-27
3.33097E-01 4.57593E-27
3.37216E-01 4.35359E-27
3.41348E-01 4.14258E-27
3.45492E-01 3.94228E-27
3.49647E-01 3.75212E-27
3.53814E-01 3.57156E-27
3.57992E-01 3.40009E-27
3.62181E-01 3.23723E-27
3.66381E-01 3.08252E-27
3.70590E-01 2.93554E-27
3.74810E-01 2.79588E-27
3.79039E-01 2.66316E-27
3.83277E-01 2.53701E-27
3.87524E-01 2.41710E-27
3.91780E-01 2.30310E-27
3.96044E-01 2.19470E-27
4.00316E-01 2.09162E-27
4.04596E-01 1.99358E-27
4.08882E-01 1.90033E-27
4.13176E-01 1.81162E-27
4.17476E-01 1.72722E-27
4.21783E-01 1.64690E-27
4.26095E-01 1.57048E-27
4.30413E-01 1.49774E-27
4.34737E-01 1.42850E-27
4.39065E-01 1.36259E-27
4.43398E-01 1.29984E-27
4.47736E-01 1.24009E-27
4.52077E-01 1.18319E-27
4.56422E-01 1.12900E-27
4.60770E-01 1.07738E-27
4.65122E-01 1.02821E-27
4.69476E-01 9.81372E-28
4.73832E-01 9.36743E-28
4.78190E-01 8.94218E-28
4.82550E-01 8.53694E-28
4.86912E-01 8.15071E-28
4.91274E-01 7.78258E-28
4.95637E-01 7.43167E-28
5.00000E-01 7.09713E-28
5.04363E-01 6.77818E-28
5.08726E-01 6.47406E-28
5.13088E-01 6.18405E-28
5.17450E-01 5.90747E-28
5.21810E-01 5.64368E-28
5.26168E-01 5.39206E-28
5.30524E-01 5.15204E-28
5.34878E-01 4.92305E-28
5.39230E-01 4.70458E-28
5.43578E-01 4.49611E-28
5.47923E-01 4.29718E-28
5.52264E-01 4.10734E-28
5.56602E-01 3.92614E-28
5.60935E-01 3.75319E-28
5.65263E-01 3.58810E-28
5.69587E-01 3.43050E-28
5.73905E-01 3.28003E-28
5.78217E-01 3.13636E-28
5.82524E-01 2.99917E-28
5.86824E-01 2.86817E-28
5.91118E-01 2.74305E-28
5.95404E-01 2.62356E-28
5.99684E-01 2.50942E-28
6.03956E-01 2.40039E-28
6.08220E-01 2.29623E-28
6.12476E-01 2.19672E-28
6.16723E-01 2.10164E-28
6.20961E-01 2.01079E-28
6.25190E-01 1.92398E-28
6.29410E-01 1.84101E-28
6.33619E-01 1.76172E-28
6.37819E-01 1.68594E-28
6.42008E-01 1.61349E-28
6.46186E-01 1.54425E-28
6.50353E-01 1.47804E-28
6.54508E-01 1.41475E-28
6.58652E-01 1.35424E-28
6.62784E-01 1.29637E-28
6.66903E-01 1.24104E-28
6.71010E-01 1.18813E-28
6.75104E-01 1.13752E-28
6.79184E-01 1.08912E-28
6.83251E-01 1.04282E-28
6.87303E-01 9.98537E-29
6.91342E-01 9.56172E-29
6.95366E-01 9.15642E-29
6.99375E-01 8.76866E-29
7.03368E-01 8.39764E-29
7.07347E-01 8.04263E-29
7.11309E-01 7.70291E-29
7.15256E-01 7.37781E-29
7.19186E-01 7.06667E-29
7.23099E-01 6.76888E-29
7.26995E-01 6.48385E-29
7.30874E-01 6.21101E-29
7.34736E-01 5.94983E-29
7.38579E-01 5.69980E-29
7.42405E-01 5.46042E-29
7.46212E-01 5.23123E-29
7.50000E-01 5.01178E-29
7.53769E-01 4.80165E-29
7.57519E-01 4.60042E-29
7.61249E-01 4.40772E-29
7.64960E-01 4.22316E-29
7.68650E-01 4.04640E-29
7.72320E-01 3.87709E-29
7.75968E-01 3.71492E-29
7.79596E-01 3.55957E-29
7.83203E-01 3.41075E-29
7.86788E-01 3.26817E-29
7.90351E-01 3.13157E-29
7.93893E-01 3.00069E-29
7.97411E-01 2.87528E-29
8.00908E-01 2.75511E-29
8.04381E-01 2.63995E-29
8.07831E-01 2.52959E-29
8.11257E-01 2.42382E-29
8.14660E-01 2.32245E-29
8.18039E-01 2.22529E-29
8.21394E-01 2.13215E-29
8.24724E-01 2.04288E-29
8.28030E-01 1.95729E-29
8.31310E-01 1.87525E-29
8.34565E-01 1.79659E-29
8.37795E-01 1.72117E-29
8.40999E-01 1.64886E-29
8.44177E-01 1.57953E-29
8.47329E-01 1.51304E-29
8.50455E-01 1.44929E-29
8.53553E-01 1.38814E-29
8.56625E-01 1.32951E-29
8.59670E-01 1.27327E-29
8.62687E-01 1.21933E-29
8.65677E-01 1.16760E-29
8.68639E-01 1.11797E-29
8.71572E-01 1.07037E-29
8.74478E-01 1.02471E-29
8.77355E-01 9.80905E-30
8.80203E-01 9.38881E-30
8.83022E-01 8.98563E-30
8.85812E-01 8.59882E-30
8.88573E-01 8.22769E-30
8.91304E-01 7.87159E-30
8.94005E-01 7.52992E-30
8.96677E-01 7.20206E-30
8.99318E-01 6.88745E-30
9.01928E-01 6.58556E-30
9.04508E-01 6.29586E-30
9.07058E-01 6.01784E-30
9.09576E-01 5.75104E-30
9.12063E-01 5.49499E-30
9.14519E-01 5.24926E-30
9.16943E-01 5.01342E-30
9.19335E-01 4.78709E-30
9.21696E-01 4.56986E-30
9.24024E-01 4.36138E-30
9.26320E-01 4.16130E-30
9.28584E-01 3.96926E-30
9.30815E-01 3.78496E-30
9.33013E-01 3.60808E-30
9.35178E-01 3.43832E-30
9.37310E-01 3.27540E-30
9.39409E-01 3.11906E-30
9.41474E-01 2.96902E-30
9.43505E-01 2.82504E-30
9.45503E-01 2.68688E-30
9.47467E-01 2.55431E-30
9.49397E-01 2.42712E-30
9.51293E-01 2.30509E-30
9.53154E-01 2.18803E-30
9.54981E-01 2.07573E-30
9.56773E-01 1.96802E-30
9.58530E-01 1.86472E-30
9.60252E-01 1.76567E-30
9.61940E-01 1.67070E-30
9.63592E-01 1.57965E-30
9.65209E-01 1.49238E-30
9.66790E-01 1.40875E-30
9.68336E-01 1.32862E-30
9.69846E-01 1.25187E-30
9.71321E-01 1.17836E-30
9.72759E-01 1.10799E-30
9.74162E-01 1.04064E-30
9.75528E-01 9.76194E-31
9.76858E-01 9.14560E-31
9.78152E-01 8.55636E-31
9.79410E-01 7.99328E-31
9.80631E-01 7.45546E-31
9.81815E-01 6.94205E-31
9.82963E-01 6.45224E-31
9.84074E-01 5.98525E-31
9.85148E-01 5.54034E-31
9.86185E-01 5.11682E-31
9.87185E-01 4.71401E-31
9.88148E-01 4.33127E-31
9.89074E-01 3.96802E-31
9.89962E-01 3.62367E-31
9.90814E-01 3.29770E-31
9.91627E-01 2.98958E-31
9.92404E-01 2.69883E-31
9.93143E-01 2.42501E-31
9.93844E-01 2.16768E-31
9.94508E-01 1.92645E-31
9.95134E-01 1.70093E-31
9.95722E-01 1.49079E-31
9.96273E-01 1.29568E-31
9.96786E-01 1.11531E-31
9.97261E-01 9.49404E-32
9.97698E-01 7.97694E-32
9.98097E-01 6.59950E-32
9.98459E-01 5.35958E-32
9.98782E-01 4.25528E-32
9.99067E-01 3.28487E-32
9.99315E-01 2.44686E-32
9.99524E-01 1.73996E-32
9.99695E-01 1.16306E-32
9.99829E-01 7.15282E-33
9.99924E-01 3.95938E-33
9.99981E-01 2.04525E-33
1.00000E+00 1.40756E-33
