 #
 # Subroutine ELSEPA. Elastic scattering of electrons and positrons
 #                    by neutral atoms and positive ions
 #
 # Projectile: electron
 # Kinetic energy = 5.00000E+07 eV = 1.83747E+06 a.u.
 #
 # WARNING: High-energy factorization with free-atom DF screening.
 #          Absorption, polarization and exchange corrections are
 #          switched off.
 #          Phase shifts are calculated for the bare nucleus.
 #          Scattering amplitudes are not evaluated.
 #
 # Element:  S,  Z =  16,  atomic weight = 3.20660E+01 g/mol
 #
 # Nuclear model: Fermi distribution
 #                Average radius = 3.39937E-13 cm
 #                Skin thickness = 5.46000E-14 cm
 #
 # Number of electrons = 16
 #
 # Total elastic cross section = 1.04611E-18 cm**2 = 3.73574E-02 a0**2
 # 1st transport cross section = 2.07642E-25 cm**2 = 7.41502E-09 a0**2
 # 2nd transport cross section = 6.07394E-25 cm**2 = 2.16904E-08 a0**2
 #
 #
 # Differential cross section:                       MU=(1-COS(THETA))/2
 #
 #  THETA        MU          DCS          DCS        Sherman      error
 #  (deg)                 (cm**2/sr)   (a0**2/sr)    function
 #----------------------------------------------------------------------
0.00000E+00 2.59916E-11
7.61557E-13 2.59795E-11
1.18994E-12 2.59728E-11
1.71346E-12 2.59646E-11
2.33225E-12 2.59549E-11
3.04617E-12 2.59437E-11
3.85530E-12 2.59311E-11
4.75964E-12 2.59169E-11
5.75917E-12 2.59014E-11
6.85391E-12 2.58843E-11
8.04379E-12 2.58658E-11
9.32893E-12 2.58459E-11
1.07092E-11 2.58244E-11
1.21847E-11 2.58016E-11
1.37554E-11 2.57773E-11
1.54213E-11 2.57515E-11
1.71823E-11 2.57244E-11
1.90386E-11 2.56958E-11
2.09900E-11 2.56658E-11
2.30367E-11 2.56344E-11
2.51785E-11 2.56017E-11
2.74156E-11 2.55674E-11
2.97478E-11 2.55319E-11
3.21752E-11 2.54949E-11
3.46979E-11 2.54566E-11
3.73157E-11 2.54170E-11
4.00286E-11 2.53759E-11
4.28368E-11 2.53335E-11
4.57402E-11 2.52899E-11
4.87388E-11 2.52448E-11
5.18325E-11 2.51985E-11
5.50215E-11 2.51509E-11
5.83057E-11 2.51019E-11
6.16850E-11 2.50518E-11
6.51595E-11 2.50003E-11
6.87293E-11 2.49476E-11
7.23943E-11 2.48937E-11
7.61544E-11 2.48385E-11
1.18991E-10 2.42217E-11
1.71347E-10 2.34967E-11
2.33223E-10 2.26787E-11
3.04617E-10 2.17831E-11
3.85531E-10 2.08277E-11
4.75965E-10 1.98269E-11
5.75917E-10 1.87984E-11
6.85389E-10 1.77084E-11
8.04380E-10 1.66562E-11
9.32891E-10 1.56728E-11
1.07092E-09 1.46184E-11
1.21847E-09 1.36389E-11
1.37554E-09 1.27290E-11
1.54213E-09 1.17881E-11
1.71823E-09 1.09369E-11
1.90386E-09 1.01385E-11
2.09900E-09 9.35272E-12
2.30367E-09 8.64710E-12
2.51785E-09 7.97981E-12
2.74156E-09 7.34735E-12
2.97478E-09 6.78098E-12
3.21752E-09 6.24241E-12
3.46978E-09 5.74559E-12
3.73156E-09 5.30062E-12
4.00286E-09 4.87639E-12
4.28368E-09 4.49198E-12
4.57402E-09 4.14642E-12
4.87388E-09 3.81812E-12
5.18326E-09 3.52319E-12
5.50215E-09 3.25520E-12
5.83057E-09 3.00506E-12
6.16850E-09 2.77954E-12
6.51596E-09 2.57307E-12
6.87293E-09 2.38249E-12
7.23942E-09 2.20998E-12
7.61544E-09 2.05124E-12
1.18991E-08 1.03553E-12
1.71347E-08 5.84925E-13
2.33223E-08 3.63433E-13
3.04617E-08 2.42403E-13
3.85531E-08 1.69977E-13
4.75965E-08 1.23381E-13
5.75917E-08 9.18320E-14
6.85389E-08 6.94861E-14
8.04380E-08 5.34867E-14
9.32891E-08 4.17049E-14
1.07092E-07 3.28886E-14
1.21847E-07 2.62043E-14
1.37554E-07 2.10788E-14
1.54213E-07 1.71080E-14
1.71823E-07 1.39994E-14
1.90386E-07 1.15516E-14
2.09900E-07 9.60705E-15
2.30367E-07 8.04928E-15
2.51785E-07 6.79145E-15
2.74156E-07 5.76811E-15
2.97478E-07 4.92952E-15
3.21752E-07 4.23760E-15
3.46978E-07 3.66290E-15
3.73156E-07 3.18251E-15
4.00286E-07 2.77869E-15
4.28368E-07 2.43730E-15
4.57402E-07 2.14710E-15
4.87388E-07 1.89915E-15
5.18325E-07 1.68627E-15
5.50215E-07 1.50264E-15
5.83057E-07 1.34356E-15
6.16850E-07 1.20516E-15
6.51596E-07 1.08428E-15
6.87293E-07 9.78301E-16
7.23942E-07 8.85071E-16
7.61543E-07 8.02774E-16
1.18991E-06 3.39559E-16
1.71347E-06 1.67652E-16
2.33223E-06 9.19884E-17
3.04617E-06 5.45312E-17
3.85531E-06 3.43081E-17
4.75964E-06 2.26315E-17
5.75916E-06 1.55171E-17
6.85388E-06 1.09865E-17
8.04378E-06 7.99284E-18
9.32888E-06 5.95159E-18
1.07092E-05 4.52160E-18
1.21846E-05 3.49606E-18
1.37553E-05 2.74524E-18
1.54212E-05 2.18546E-18
1.71822E-05 1.76129E-18
1.90385E-05 1.43518E-18
2.09899E-05 1.18117E-18
2.30365E-05 9.80911E-19
2.51783E-05 8.21323E-19
2.74153E-05 6.92894E-19
2.97475E-05 5.88612E-19
3.21749E-05 5.03233E-19
3.46974E-05 4.32793E-19
3.73152E-05 3.74262E-19
4.00281E-05 3.25301E-19
4.28362E-05 2.84091E-19
4.57395E-05 2.49204E-19
4.87380E-05 2.19509E-19
5.18317E-05 1.94108E-19
5.50205E-05 1.72277E-19
5.83045E-05 1.53431E-19
6.16838E-05 1.37093E-19
6.51582E-05 1.22872E-19
6.87277E-05 1.10449E-19
7.23925E-05 9.95579E-20
7.61524E-05 8.99720E-20
9.21439E-05 6.14698E-20
1.09658E-04 4.34148E-20
1.28695E-04 3.15295E-20
1.49255E-04 2.34478E-20
1.71338E-04 1.77983E-20
1.94942E-04 1.37526E-20
2.20070E-04 1.07943E-20
2.46720E-04 8.59053E-21
2.74892E-04 6.92175E-21
3.04586E-04 5.63938E-21
3.35803E-04 4.64079E-21
3.68542E-04 3.85387E-21
4.02802E-04 3.22695E-21
4.38585E-04 2.72254E-21
4.75889E-04 2.31300E-21
5.14715E-04 1.97767E-21
5.55063E-04 1.70101E-21
5.96931E-04 1.47109E-21
6.40321E-04 1.27877E-21
6.85233E-04 1.11688E-21
7.31665E-04 9.79838E-22
7.79618E-04 8.63195E-22
8.29092E-04 7.63412E-22
8.80086E-04 6.77649E-22
9.32601E-04 6.03604E-22
9.86636E-04 5.39408E-22
1.04219E-03 4.83529E-22
1.09927E-03 4.34707E-22
1.15786E-03 3.91897E-22
1.21797E-03 3.54233E-22
1.27961E-03 3.20990E-22
1.34276E-03 2.91559E-22
1.40743E-03 2.65427E-22
1.47362E-03 2.42160E-22
1.54133E-03 2.21389E-22
1.61056E-03 2.02800E-22
1.68131E-03 1.86122E-22
1.75357E-03 1.71125E-22
1.82735E-03 1.57610E-22
1.90265E-03 1.45404E-22
1.97947E-03 1.34357E-22
2.05780E-03 1.24341E-22
2.13765E-03 1.15241E-22
2.21902E-03 1.06960E-22
2.30190E-03 9.94092E-23
2.38630E-03 9.25137E-23
2.47222E-03 8.62062E-23
2.55965E-03 8.04275E-23
2.64859E-03 7.51252E-23
2.73905E-03 7.02530E-23
2.83103E-03 6.57697E-23
2.92452E-03 6.16385E-23
3.01952E-03 5.78269E-23
3.11604E-03 5.43055E-23
3.21407E-03 5.10482E-23
3.31362E-03 4.80317E-23
3.41468E-03 4.52348E-23
3.51725E-03 4.26386E-23
3.62133E-03 4.02261E-23
3.72692E-03 3.79819E-23
3.83403E-03 3.58921E-23
3.94265E-03 3.39442E-23
4.05278E-03 3.21266E-23
4.16442E-03 3.04291E-23
4.27757E-03 2.88423E-23
4.39223E-03 2.73576E-23
4.50840E-03 2.59673E-23
4.62608E-03 2.46642E-23
4.74527E-03 2.34418E-23
4.86597E-03 2.22942E-23
4.98817E-03 2.12160E-23
5.11188E-03 2.02022E-23
5.23711E-03 1.92483E-23
5.36383E-03 1.83500E-23
5.49207E-03 1.75035E-23
5.62181E-03 1.67052E-23
5.75306E-03 1.59519E-23
5.88581E-03 1.52406E-23
6.02007E-03 1.45686E-23
6.15583E-03 1.39331E-23
6.29310E-03 1.33319E-23
6.43187E-03 1.27628E-23
6.57214E-03 1.22237E-23
6.71392E-03 1.17128E-23
6.85720E-03 1.12283E-23
7.00198E-03 1.07685E-23
7.14827E-03 1.03321E-23
7.29605E-03 9.91748E-24
7.44534E-03 9.52348E-24
7.59612E-03 9.14884E-24
7.97965E-03 8.28970E-24
8.37255E-03 7.52902E-24
8.77480E-03 6.85355E-24
9.18641E-03 6.25209E-24
9.60736E-03 5.71512E-24
1.00376E-02 5.23450E-24
1.04773E-02 4.80330E-24
1.09262E-02 4.41553E-24
1.13844E-02 4.06606E-24
1.18520E-02 3.75042E-24
1.23288E-02 3.46477E-24
1.28150E-02 3.20575E-24
1.33104E-02 2.97043E-24
1.38150E-02 2.75626E-24
1.43290E-02 2.56100E-24
1.48521E-02 2.38269E-24
1.53845E-02 2.21958E-24
1.59262E-02 2.07015E-24
1.64770E-02 1.93304E-24
1.70371E-02 1.80706E-24
1.76063E-02 1.69114E-24
1.81848E-02 1.58433E-24
1.87724E-02 1.48579E-24
1.93692E-02 1.39476E-24
1.99751E-02 1.31056E-24
2.05901E-02 1.23260E-24
2.12143E-02 1.16031E-24
2.18476E-02 1.09322E-24
2.24900E-02 1.03089E-24
2.31415E-02 9.72907E-25
2.38021E-02 9.18922E-25
2.44717E-02 8.68607E-25
2.51504E-02 8.21667E-25
2.58382E-02 7.77835E-25
2.65349E-02 7.36867E-25
2.72407E-02 6.98541E-25
2.79555E-02 6.62657E-25
2.86793E-02 6.29030E-25
2.94120E-02 5.97492E-25
3.01537E-02 5.67890E-25
3.09043E-02 5.40083E-25
3.16639E-02 5.13942E-25
3.24324E-02 4.89350E-25
3.32098E-02 4.66197E-25
3.39961E-02 4.44385E-25
3.47912E-02 4.23820E-25
3.55952E-02 4.04420E-25
3.64081E-02 3.86105E-25
3.72297E-02 3.68804E-25
3.80602E-02 3.52450E-25
3.88995E-02 3.36983E-25
3.97476E-02 3.22344E-25
4.06044E-02 3.08483E-25
4.14700E-02 2.95349E-25
4.23443E-02 2.82898E-25
4.32273E-02 2.71087E-25
4.41190E-02 2.59878E-25
4.50194E-02 2.49235E-25
4.59284E-02 2.39123E-25
4.68461E-02 2.29511E-25
4.87074E-02 2.11674E-25
5.06030E-02 1.95510E-25
5.25328E-02 1.80837E-25
5.44967E-02 1.67493E-25
5.64946E-02 1.55336E-25
5.85262E-02 1.44244E-25
6.05914E-02 1.34106E-25
6.26901E-02 1.24826E-25
6.48222E-02 1.16319E-25
6.69873E-02 1.08510E-25
6.91854E-02 1.01332E-25
7.14163E-02 9.47238E-26
7.36799E-02 8.86336E-26
7.59760E-02 8.30135E-26
7.83043E-02 7.78210E-26
8.06647E-02 7.30178E-26
8.30571E-02 6.85699E-26
8.54812E-02 6.44464E-26
8.79369E-02 6.06196E-26
9.04240E-02 5.70645E-26
9.29422E-02 5.37585E-26
9.54915E-02 5.06813E-26
9.80716E-02 4.78141E-26
1.00682E-01 4.51404E-26
1.03323E-01 4.26447E-26
1.05995E-01 4.03133E-26
1.08696E-01 3.81335E-26
1.11427E-01 3.60938E-26
1.14188E-01 3.41836E-26
1.16978E-01 3.23934E-26
1.19797E-01 3.07143E-26
1.22645E-01 2.91383E-26
1.25522E-01 2.76581E-26
1.28428E-01 2.62667E-26
1.31361E-01 2.49580E-26
1.34323E-01 2.37263E-26
1.37313E-01 2.25663E-26
1.40330E-01 2.14732E-26
1.43375E-01 2.04423E-26
1.46447E-01 1.94697E-26
1.49545E-01 1.85515E-26
1.52671E-01 1.76841E-26
1.55823E-01 1.68643E-26
1.59001E-01 1.60890E-26
1.62205E-01 1.53554E-26
1.65435E-01 1.46610E-26
1.68690E-01 1.40033E-26
1.71970E-01 1.33800E-26
1.75276E-01 1.27891E-26
1.78606E-01 1.22286E-26
1.81961E-01 1.16967E-26
1.85340E-01 1.11917E-26
1.88743E-01 1.07120E-26
1.92169E-01 1.02562E-26
1.95619E-01 9.82291E-27
1.99092E-01 9.41082E-27
2.02589E-01 9.01873E-27
2.06107E-01 8.64553E-27
2.09649E-01 8.29017E-27
2.13212E-01 7.95166E-27
2.16797E-01 7.62910E-27
2.20404E-01 7.32160E-27
2.24032E-01 7.02836E-27
2.27680E-01 6.74862E-27
2.31350E-01 6.48167E-27
2.35040E-01 6.22683E-27
2.38751E-01 5.98347E-27
2.42481E-01 5.75100E-27
2.46231E-01 5.52886E-27
2.50000E-01 5.31653E-27
2.53788E-01 5.11350E-27
2.57595E-01 4.91931E-27
2.61421E-01 4.73353E-27
2.65264E-01 4.55573E-27
2.69126E-01 4.38552E-27
2.73005E-01 4.22253E-27
2.76901E-01 4.06641E-27
2.80814E-01 3.91684E-27
2.84744E-01 3.77350E-27
2.88691E-01 3.63609E-27
2.92653E-01 3.50433E-27
2.96632E-01 3.37796E-27
3.00625E-01 3.25673E-27
3.04634E-01 3.14040E-27
3.08658E-01 3.02875E-27
3.12697E-01 2.92156E-27
3.16749E-01 2.81863E-27
3.20816E-01 2.71977E-27
3.24896E-01 2.62480E-27
3.28990E-01 2.53354E-27
3.33097E-01 2.44582E-27
3.37216E-01 2.36150E-27
3.41348E-01 2.28043E-27
3.45492E-01 2.20246E-27
3.49647E-01 2.12745E-27
3.53814E-01 2.05530E-27
3.57992E-01 1.98586E-27
3.62181E-01 1.91902E-27
3.66381E-01 1.85468E-27
3.70590E-01 1.79274E-27
3.74810E-01 1.73308E-27
3.79039E-01 1.67562E-27
3.83277E-01 1.62026E-27
3.87524E-01 1.56692E-27
3.91780E-01 1.51552E-27
3.96044E-01 1.46597E-27
4.00316E-01 1.41820E-27
4.04596E-01 1.37215E-27
4.08882E-01 1.32774E-27
4.13176E-01 1.28490E-27
4.17476E-01 1.24358E-27
4.21783E-01 1.20371E-27
4.26095E-01 1.16524E-27
4.30413E-01 1.12811E-27
4.34737E-01 1.09228E-27
4.39065E-01 1.05768E-27
4.43398E-01 1.02427E-27
4.47736E-01 9.92016E-28
4.52077E-01 9.60862E-28
4.56422E-01 9.30769E-28
4.60770E-01 9.01698E-28
4.65122E-01 8.73609E-28
4.69476E-01 8.46467E-28
4.73832E-01 8.20235E-28
4.78190E-01 7.94881E-28
4.82550E-01 7.70371E-28
4.86912E-01 7.46674E-28
4.91274E-01 7.23761E-28
4.95637E-01 7.01603E-28
5.00000E-01 6.80173E-28
5.04363E-01 6.59444E-28
5.08726E-01 6.39391E-28
5.13088E-01 6.19990E-28
5.17450E-01 6.01217E-28
5.21810E-01 5.83050E-28
5.26168E-01 5.65468E-28
5.30524E-01 5.48450E-28
5.34878E-01 5.31976E-28
5.39230E-01 5.16027E-28
5.43578E-01 5.00584E-28
5.47923E-01 4.85631E-28
5.52264E-01 4.71150E-28
5.56602E-01 4.57124E-28
5.60935E-01 4.43539E-28
5.65263E-01 4.30378E-28
5.69587E-01 4.17629E-28
5.73905E-01 4.05275E-28
5.78217E-01 3.93305E-28
5.82524E-01 3.81705E-28
5.86824E-01 3.70463E-28
5.91118E-01 3.59566E-28
5.95404E-01 3.49003E-28
5.99684E-01 3.38764E-28
6.03956E-01 3.28837E-28
6.08220E-01 3.19211E-28
6.12476E-01 3.09878E-28
6.16723E-01 3.00827E-28
6.20961E-01 2.92049E-28
6.25190E-01 2.83535E-28
6.29410E-01 2.75277E-28
6.33619E-01 2.67266E-28
6.37819E-01 2.59494E-28
6.42008E-01 2.51954E-28
6.46186E-01 2.44638E-28
6.50353E-01 2.37539E-28
6.54508E-01 2.30650E-28
6.58652E-01 2.23964E-28
6.62784E-01 2.17475E-28
6.66903E-01 2.11176E-28
6.71010E-01 2.05062E-28
6.75104E-01 1.99127E-28
6.79184E-01 1.93365E-28
6.83251E-01 1.87771E-28
6.87303E-01 1.82339E-28
6.91342E-01 1.77065E-28
6.95366E-01 1.71943E-28
6.99375E-01 1.66969E-28
7.03368E-01 1.62139E-28
7.07347E-01 1.57447E-28
7.11309E-01 1.52890E-28
7.15256E-01 1.48463E-28
7.19186E-01 1.44163E-28
7.23099E-01 1.39985E-28
7.26995E-01 1.35926E-28
7.30874E-01 1.31983E-28
7.34736E-01 1.28151E-28
7.38579E-01 1.24428E-28
7.42405E-01 1.20810E-28
7.46212E-01 1.17294E-28
7.50000E-01 1.13877E-28
7.53769E-01 1.10556E-28
7.57519E-01 1.07328E-28
7.61249E-01 1.04191E-28
7.64960E-01 1.01142E-28
7.68650E-01 9.81771E-29
7.72320E-01 9.52953E-29
7.75968E-01 9.24937E-29
7.79596E-01 8.97700E-29
7.83203E-01 8.71219E-29
7.86788E-01 8.45472E-29
7.90351E-01 8.20438E-29
7.93893E-01 7.96095E-29
7.97411E-01 7.72424E-29
8.00908E-01 7.49406E-29
8.04381E-01 7.27022E-29
8.07831E-01 7.05253E-29
8.11257E-01 6.84082E-29
8.14660E-01 6.63493E-29
8.18039E-01 6.43467E-29
8.21394E-01 6.23990E-29
8.24724E-01 6.05045E-29
8.28030E-01 5.86619E-29
8.31310E-01 5.68695E-29
8.34565E-01 5.51260E-29
8.37795E-01 5.34301E-29
8.40999E-01 5.17804E-29
8.44177E-01 5.01755E-29
8.47329E-01 4.86144E-29
8.50455E-01 4.70957E-29
8.53553E-01 4.56182E-29
8.56625E-01 4.41809E-29
8.59670E-01 4.27826E-29
8.62687E-01 4.14223E-29
8.65677E-01 4.00990E-29
8.68639E-01 3.88115E-29
8.71572E-01 3.75590E-29
8.74478E-01 3.63404E-29
8.77355E-01 3.51550E-29
8.80203E-01 3.40017E-29
8.83022E-01 3.28798E-29
8.85812E-01 3.17883E-29
8.88573E-01 3.07265E-29
8.91304E-01 2.96936E-29
8.94005E-01 2.86888E-29
8.96677E-01 2.77114E-29
8.99318E-01 2.67606E-29
9.01928E-01 2.58358E-29
9.04508E-01 2.49363E-29
9.07058E-01 2.40614E-29
9.09576E-01 2.32105E-29
9.12063E-01 2.23829E-29
9.14519E-01 2.15781E-29
9.16943E-01 2.07956E-29
9.19335E-01 2.00346E-29
9.21696E-01 1.92947E-29
9.24024E-01 1.85753E-29
9.26320E-01 1.78760E-29
9.28584E-01 1.71962E-29
9.30815E-01 1.65355E-29
9.33013E-01 1.58933E-29
9.35178E-01 1.52692E-29
9.37310E-01 1.46629E-29
9.39409E-01 1.40738E-29
9.41474E-01 1.35015E-29
9.43505E-01 1.29457E-29
9.45503E-01 1.24059E-29
9.47467E-01 1.18818E-29
9.49397E-01 1.13729E-29
9.51293E-01 1.08791E-29
9.53154E-01 1.03998E-29
9.54981E-01 9.93482E-30
9.56773E-01 9.48379E-30
9.58530E-01 9.04639E-30
9.60252E-01 8.62233E-30
9.61940E-01 8.21132E-30
9.63592E-01 7.81308E-30
9.65209E-01 7.42732E-30
9.66790E-01 7.05379E-30
9.68336E-01 6.69223E-30
9.69846E-01 6.34240E-30
9.71321E-01 6.00405E-30
9.72759E-01 5.67696E-30
9.74162E-01 5.36090E-30
9.75528E-01 5.05566E-30
9.76858E-01 4.76104E-30
9.78152E-01 4.47683E-30
9.79410E-01 4.20284E-30
9.80631E-01 3.93889E-30
9.81815E-01 3.68479E-30
9.82963E-01 3.44039E-30
9.84074E-01 3.20551E-30
9.85148E-01 2.97999E-30
9.86185E-01 2.76369E-30
9.87185E-01 2.55646E-30
9.88148E-01 2.35817E-30
9.89074E-01 2.16867E-30
9.89962E-01 1.98785E-30
9.90814E-01 1.81558E-30
9.91627E-01 1.65175E-30
9.92404E-01 1.49624E-30
9.93143E-01 1.34897E-30
9.93844E-01 1.20982E-30
9.94508E-01 1.07871E-30
9.95134E-01 9.55541E-31
9.95722E-01 8.40244E-31
9.96273E-01 7.32737E-31
9.96786E-01 6.32950E-31
9.97261E-01 5.40817E-31
9.97698E-01 4.56276E-31
9.98097E-01 3.79273E-31
9.98459E-01 3.09755E-31
9.98782E-01 2.47677E-31
9.99067E-01 1.92999E-31
9.99315E-01 1.45684E-31
9.99524E-01 1.05701E-31
9.99695E-01 7.30228E-32
9.99829E-01 4.76291E-32
9.99924E-01 2.95026E-32
9.99981E-01 1.86314E-32
1.00000E+00 1.50102E-32
