 #
 # Subroutine ELSEPA. Elastic scattering of electrons and positrons
 #                    by neutral atoms and positive ions
 #
 # Projectile: electron
 # Kinetic energy = 4.00000E+06 eV = 1.46997E+05 a.u.
 #
 # WARNING: High-energy factorization with free-atom DF screening.
 #          Absorption, polarization and exchange corrections are
 #          switched off.
 #          Phase shifts are calculated for the bare nucleus.
 #          Scattering amplitudes are not evaluated.
 #
 # Element:  S,  Z =  16,  atomic weight = 3.20660E+01 g/mol
 #
 # Nuclear model: Fermi distribution
 #                Average radius = 3.39937E-13 cm
 #                Skin thickness = 5.46000E-14 cm
 #
 # Number of electrons = 16
 #
 # Total elastic cross section = 1.05976E-18 cm**2 = 3.78448E-02 a0**2
 # 1st transport cross section = 1.95227E-23 cm**2 = 6.97170E-07 a0**2
 # 2nd transport cross section = 5.56463E-23 cm**2 = 1.98717E-06 a0**2
 #
 #
 # Differential cross section:                       MU=(1-COS(THETA))/2
 #
 #  THETA        MU          DCS          DCS        Sherman      error
 #  (deg)                 (cm**2/sr)   (a0**2/sr)    function
 #----------------------------------------------------------------------
0.00000E+00 2.07304E-13
7.61557E-13 2.07303E-13
1.18994E-12 2.07302E-13
1.71346E-12 2.07302E-13
2.33225E-12 2.07301E-13
3.04617E-12 2.07301E-13
3.85530E-12 2.07300E-13
4.75964E-12 2.07299E-13
5.75917E-12 2.07298E-13
6.85391E-12 2.07297E-13
8.04379E-12 2.07296E-13
9.32893E-12 2.07294E-13
1.07092E-11 2.07293E-13
1.21847E-11 2.07291E-13
1.37554E-11 2.07290E-13
1.54213E-11 2.07288E-13
1.71823E-11 2.07286E-13
1.90386E-11 2.07285E-13
2.09900E-11 2.07283E-13
2.30367E-11 2.07281E-13
2.51785E-11 2.07278E-13
2.74156E-11 2.07276E-13
2.97478E-11 2.07274E-13
3.21752E-11 2.07272E-13
3.46979E-11 2.07269E-13
3.73157E-11 2.07266E-13
4.00286E-11 2.07264E-13
4.28368E-11 2.07261E-13
4.57402E-11 2.07258E-13
4.87388E-11 2.07255E-13
5.18325E-11 2.07252E-13
5.50215E-11 2.07249E-13
5.83057E-11 2.07246E-13
6.16850E-11 2.07242E-13
6.51595E-11 2.07239E-13
6.87293E-11 2.07235E-13
7.23943E-11 2.07232E-13
7.61544E-11 2.07228E-13
1.18991E-10 2.07186E-13
1.71347E-10 2.07134E-13
2.33223E-10 2.07073E-13
3.04617E-10 2.07003E-13
3.85531E-10 2.06924E-13
4.75965E-10 2.06835E-13
5.75917E-10 2.06737E-13
6.85389E-10 2.06630E-13
8.04380E-10 2.06514E-13
9.32891E-10 2.06389E-13
1.07092E-09 2.06254E-13
1.21847E-09 2.06110E-13
1.37554E-09 2.05957E-13
1.54213E-09 2.05796E-13
1.71823E-09 2.05625E-13
1.90386E-09 2.05445E-13
2.09900E-09 2.05256E-13
2.30367E-09 2.05058E-13
2.51785E-09 2.04851E-13
2.74156E-09 2.04635E-13
2.97478E-09 2.04411E-13
3.21752E-09 2.04178E-13
3.46978E-09 2.03936E-13
3.73156E-09 2.03685E-13
4.00286E-09 2.03426E-13
4.28368E-09 2.03158E-13
4.57402E-09 2.02881E-13
4.87388E-09 2.02597E-13
5.18326E-09 2.02303E-13
5.50215E-09 2.02001E-13
5.83057E-09 2.01691E-13
6.16850E-09 2.01372E-13
6.51596E-09 2.01045E-13
6.87293E-09 2.00711E-13
7.23942E-09 2.00368E-13
7.61544E-09 2.00016E-13
1.18991E-08 1.96078E-13
1.71347E-08 1.91410E-13
2.33223E-08 1.86092E-13
3.04617E-08 1.80208E-13
3.85531E-08 1.73850E-13
4.75965E-08 1.67110E-13
5.75917E-08 1.60079E-13
6.85389E-08 1.52847E-13
8.04380E-08 1.45323E-13
9.32891E-08 1.37635E-13
1.07092E-07 1.30364E-13
1.21847E-07 1.23376E-13
1.37554E-07 1.15914E-13
1.54213E-07 1.08999E-13
1.71823E-07 1.02614E-13
1.90386E-07 9.58581E-14
2.09900E-07 8.96434E-14
2.30367E-07 8.39629E-14
2.51785E-07 7.82267E-14
2.74156E-07 7.28729E-14
2.97478E-07 6.80067E-14
3.21752E-07 6.32764E-14
3.46978E-07 5.88080E-14
3.73156E-07 5.47565E-14
4.00286E-07 5.09300E-14
4.28368E-07 4.72854E-14
4.57402E-07 4.39820E-14
4.87388E-07 4.09243E-14
5.18325E-07 3.79991E-14
5.50215E-07 3.53449E-14
5.83057E-07 3.29193E-14
6.16850E-07 3.05962E-14
6.51596E-07 2.84839E-14
6.87293E-07 2.65607E-14
7.23942E-07 2.47329E-14
7.61543E-07 2.30610E-14
1.18991E-06 1.19708E-14
1.71347E-06 6.78557E-15
2.33223E-06 4.19039E-15
3.04617E-06 2.77858E-15
3.85531E-06 1.94457E-15
4.75964E-06 1.41557E-15
5.75916E-06 1.06043E-15
6.85388E-06 8.11299E-16
8.04378E-06 6.29687E-16
9.32888E-06 4.96656E-16
1.07092E-05 3.95059E-16
1.21846E-05 3.17426E-16
1.37553E-05 2.57444E-16
1.54212E-05 2.10552E-16
1.71822E-05 1.73491E-16
1.90385E-05 1.43855E-16
2.09899E-05 1.20157E-16
2.30365E-05 1.01043E-16
2.51783E-05 8.55087E-17
2.74153E-05 7.27828E-17
2.97475E-05 6.22975E-17
3.21749E-05 5.36205E-17
3.46974E-05 4.63945E-17
3.73152E-05 4.03409E-17
4.00281E-05 3.52379E-17
4.28362E-05 3.09168E-17
4.57395E-05 2.72399E-17
4.87380E-05 2.40958E-17
5.18317E-05 2.13947E-17
5.50205E-05 1.90629E-17
5.83045E-05 1.70428E-17
6.16838E-05 1.52856E-17
6.51582E-05 1.37512E-17
6.87277E-05 1.24063E-17
7.23925E-05 1.12231E-17
7.61524E-05 1.01789E-17
9.21439E-05 7.04980E-18
1.09658E-04 5.04260E-18
1.28695E-04 3.70492E-18
1.49255E-04 2.78429E-18
1.71338E-04 2.13333E-18
1.94942E-04 1.66216E-18
2.20070E-04 1.31421E-18
2.46720E-04 1.05266E-18
2.74892E-04 8.52974E-19
3.04586E-04 6.98383E-19
3.35803E-04 5.77201E-19
3.68542E-04 4.81140E-19
4.02802E-04 4.04207E-19
4.38585E-04 3.42017E-19
4.75889E-04 2.91311E-19
5.14715E-04 2.49639E-19
5.55063E-04 2.15142E-19
5.96931E-04 1.86390E-19
6.40321E-04 1.62274E-19
6.85233E-04 1.41928E-19
7.31665E-04 1.24667E-19
7.79618E-04 1.09947E-19
8.29092E-04 9.73341E-20
8.80086E-04 8.64772E-20
9.32601E-04 7.70902E-20
9.86636E-04 6.89416E-20
1.04219E-03 6.18409E-20
1.09927E-03 5.56307E-20
1.15786E-03 5.01799E-20
1.21797E-03 4.53804E-20
1.27961E-03 4.11410E-20
1.34276E-03 3.73851E-20
1.40743E-03 3.40479E-20
1.47362E-03 3.10750E-20
1.54133E-03 2.84195E-20
1.61056E-03 2.60417E-20
1.68131E-03 2.39075E-20
1.75357E-03 2.19875E-20
1.82735E-03 2.02565E-20
1.90265E-03 1.86926E-20
1.97947E-03 1.72768E-20
2.05780E-03 1.59926E-20
2.13765E-03 1.48256E-20
2.21902E-03 1.37632E-20
2.30190E-03 1.27943E-20
2.38630E-03 1.19093E-20
2.47222E-03 1.10995E-20
2.55965E-03 1.03575E-20
2.64859E-03 9.67645E-21
2.73905E-03 9.05056E-21
2.83103E-03 8.47450E-21
2.92452E-03 7.94360E-21
3.01952E-03 7.45367E-21
3.11604E-03 7.00098E-21
3.21407E-03 6.58217E-21
3.31362E-03 6.19425E-21
3.41468E-03 5.83452E-21
3.51725E-03 5.50057E-21
3.62133E-03 5.19019E-21
3.72692E-03 4.90143E-21
3.83403E-03 4.63251E-21
3.94265E-03 4.38179E-21
4.05278E-03 4.14784E-21
4.16442E-03 3.92931E-21
4.27757E-03 3.72501E-21
4.39223E-03 3.53383E-21
4.50840E-03 3.35477E-21
4.62608E-03 3.18694E-21
4.74527E-03 3.02948E-21
4.86597E-03 2.88164E-21
4.98817E-03 2.74273E-21
5.11188E-03 2.61210E-21
5.23711E-03 2.48917E-21
5.36383E-03 2.37339E-21
5.49207E-03 2.26428E-21
5.62181E-03 2.16138E-21
5.75306E-03 2.06427E-21
5.88581E-03 1.97256E-21
6.02007E-03 1.88589E-21
6.15583E-03 1.80394E-21
6.29310E-03 1.72641E-21
6.43187E-03 1.65300E-21
6.57214E-03 1.58346E-21
6.71392E-03 1.51754E-21
6.85720E-03 1.45502E-21
7.00198E-03 1.39570E-21
7.14827E-03 1.33937E-21
7.29605E-03 1.28586E-21
7.44534E-03 1.23501E-21
7.59612E-03 1.18664E-21
7.97965E-03 1.07569E-21
8.37255E-03 9.77434E-22
8.77480E-03 8.90163E-22
9.18641E-03 8.12436E-22
9.60736E-03 7.43026E-22
1.00376E-02 6.80887E-22
1.04773E-02 6.25121E-22
1.09262E-02 5.74960E-22
1.13844E-02 5.29740E-22
1.18520E-02 4.88888E-22
1.23288E-02 4.51907E-22
1.28150E-02 4.18363E-22
1.33104E-02 3.87881E-22
1.38150E-02 3.60131E-22
1.43290E-02 3.34822E-22
1.48521E-02 3.11703E-22
1.53845E-02 2.90549E-22
1.59262E-02 2.71163E-22
1.64770E-02 2.53370E-22
1.70371E-02 2.37015E-22
1.76063E-02 2.21962E-22
1.81848E-02 2.08086E-22
1.87724E-02 1.95281E-22
1.93692E-02 1.83447E-22
1.99751E-02 1.72498E-22
2.05901E-02 1.62355E-22
2.12143E-02 1.52948E-22
2.18476E-02 1.44213E-22
2.24900E-02 1.36095E-22
2.31415E-02 1.28540E-22
2.38021E-02 1.21504E-22
2.44717E-02 1.14943E-22
2.51504E-02 1.08820E-22
2.58382E-02 1.03100E-22
2.65349E-02 9.77511E-23
2.72407E-02 9.27453E-23
2.79555E-02 8.80563E-23
2.86793E-02 8.36604E-23
2.94120E-02 7.95357E-23
3.01537E-02 7.56625E-23
3.09043E-02 7.20225E-23
3.16639E-02 6.85990E-23
3.24324E-02 6.53768E-23
3.32098E-02 6.23417E-23
3.39961E-02 5.94810E-23
3.47912E-02 5.67826E-23
3.55952E-02 5.42357E-23
3.64081E-02 5.18301E-23
3.72297E-02 4.95565E-23
3.80602E-02 4.74063E-23
3.88995E-02 4.53715E-23
3.97476E-02 4.34449E-23
4.06044E-02 4.16194E-23
4.14700E-02 3.98889E-23
4.23443E-02 3.82475E-23
4.32273E-02 3.66896E-23
4.41190E-02 3.52103E-23
4.50194E-02 3.38048E-23
4.59284E-02 3.24687E-23
4.68461E-02 3.11980E-23
4.87074E-02 2.88377E-23
5.06030E-02 2.66965E-23
5.25328E-02 2.47502E-23
5.44967E-02 2.29780E-23
5.64946E-02 2.13615E-23
5.85262E-02 1.98846E-23
6.05914E-02 1.85330E-23
6.26901E-02 1.72941E-23
6.48222E-02 1.61569E-23
6.69873E-02 1.51115E-23
6.91854E-02 1.41491E-23
7.14163E-02 1.32620E-23
7.36799E-02 1.24431E-23
7.59760E-02 1.16864E-23
7.83043E-02 1.09861E-23
8.06647E-02 1.03373E-23
8.30571E-02 9.73553E-24
8.54812E-02 9.17677E-24
8.79369E-02 8.65736E-24
9.04240E-02 8.17403E-24
9.29422E-02 7.72381E-24
9.54915E-02 7.30401E-24
9.80716E-02 6.91220E-24
1.00682E-01 6.54617E-24
1.03323E-01 6.20391E-24
1.05995E-01 5.88358E-24
1.08696E-01 5.58353E-24
1.11427E-01 5.30224E-24
1.14188E-01 5.03831E-24
1.16978E-01 4.79047E-24
1.19797E-01 4.55757E-24
1.22645E-01 4.33853E-24
1.25522E-01 4.13237E-24
1.28428E-01 3.93821E-24
1.31361E-01 3.75520E-24
1.34323E-01 3.58260E-24
1.37313E-01 3.41969E-24
1.40330E-01 3.26585E-24
1.43375E-01 3.12045E-24
1.46447E-01 2.98297E-24
1.49545E-01 2.85288E-24
1.52671E-01 2.72972E-24
1.55823E-01 2.61304E-24
1.59001E-01 2.50244E-24
1.62205E-01 2.39756E-24
1.65435E-01 2.29803E-24
1.68690E-01 2.20353E-24
1.71970E-01 2.11376E-24
1.75276E-01 2.02845E-24
1.78606E-01 1.94732E-24
1.81961E-01 1.87014E-24
1.85340E-01 1.79668E-24
1.88743E-01 1.72672E-24
1.92169E-01 1.66007E-24
1.95619E-01 1.59654E-24
1.99092E-01 1.53595E-24
2.02589E-01 1.47816E-24
2.06107E-01 1.42300E-24
2.09649E-01 1.37033E-24
2.13212E-01 1.32002E-24
2.16797E-01 1.27194E-24
2.20404E-01 1.22598E-24
2.24032E-01 1.18203E-24
2.27680E-01 1.13998E-24
2.31350E-01 1.09973E-24
2.35040E-01 1.06119E-24
2.38751E-01 1.02429E-24
2.42481E-01 9.88923E-25
2.46231E-01 9.55028E-25
2.50000E-01 9.22529E-25
2.53788E-01 8.91359E-25
2.57595E-01 8.61453E-25
2.61421E-01 8.32750E-25
2.65264E-01 8.05193E-25
2.69126E-01 7.78728E-25
2.73005E-01 7.53304E-25
2.76901E-01 7.28871E-25
2.80814E-01 7.05386E-25
2.84744E-01 6.82803E-25
2.88691E-01 6.61083E-25
2.92653E-01 6.40185E-25
2.96632E-01 6.20074E-25
3.00625E-01 6.00714E-25
3.04634E-01 5.82072E-25
3.08658E-01 5.64117E-25
3.12697E-01 5.46818E-25
3.16749E-01 5.30148E-25
3.20816E-01 5.14079E-25
3.24896E-01 4.98586E-25
3.28990E-01 4.83645E-25
3.33097E-01 4.69231E-25
3.37216E-01 4.55324E-25
3.41348E-01 4.41902E-25
3.45492E-01 4.28946E-25
3.49647E-01 4.16435E-25
3.53814E-01 4.04352E-25
3.57992E-01 3.92681E-25
3.62181E-01 3.81403E-25
3.66381E-01 3.70505E-25
3.70590E-01 3.59970E-25
3.74810E-01 3.49784E-25
3.79039E-01 3.39934E-25
3.83277E-01 3.30407E-25
3.87524E-01 3.21189E-25
3.91780E-01 3.12271E-25
3.96044E-01 3.03639E-25
4.00316E-01 2.95283E-25
4.04596E-01 2.87193E-25
4.08882E-01 2.79359E-25
4.13176E-01 2.71770E-25
4.17476E-01 2.64420E-25
4.21783E-01 2.57297E-25
4.26095E-01 2.50395E-25
4.30413E-01 2.43705E-25
4.34737E-01 2.37219E-25
4.39065E-01 2.30930E-25
4.43398E-01 2.24832E-25
4.47736E-01 2.18916E-25
4.52077E-01 2.13178E-25
4.56422E-01 2.07610E-25
4.60770E-01 2.02207E-25
4.65122E-01 1.96963E-25
4.69476E-01 1.91873E-25
4.73832E-01 1.86931E-25
4.78190E-01 1.82132E-25
4.82550E-01 1.77471E-25
4.86912E-01 1.72944E-25
4.91274E-01 1.68547E-25
4.95637E-01 1.64274E-25
5.00000E-01 1.60122E-25
5.04363E-01 1.56087E-25
5.08726E-01 1.52164E-25
5.13088E-01 1.48351E-25
5.17450E-01 1.44644E-25
5.21810E-01 1.41038E-25
5.26168E-01 1.37532E-25
5.30524E-01 1.34122E-25
5.34878E-01 1.30804E-25
5.39230E-01 1.27576E-25
5.43578E-01 1.24436E-25
5.47923E-01 1.21379E-25
5.52264E-01 1.18404E-25
5.56602E-01 1.15508E-25
5.60935E-01 1.12689E-25
5.65263E-01 1.09944E-25
5.69587E-01 1.07272E-25
5.73905E-01 1.04669E-25
5.78217E-01 1.02133E-25
5.82524E-01 9.96639E-26
5.86824E-01 9.72581E-26
5.91118E-01 9.49141E-26
5.95404E-01 9.26301E-26
5.99684E-01 9.04043E-26
6.03956E-01 8.82350E-26
6.08220E-01 8.61205E-26
6.12476E-01 8.40592E-26
6.16723E-01 8.20497E-26
6.20961E-01 8.00903E-26
6.25190E-01 7.81798E-26
6.29410E-01 7.63165E-26
6.33619E-01 7.44994E-26
6.37819E-01 7.27269E-26
6.42008E-01 7.09978E-26
6.46186E-01 6.93110E-26
6.50353E-01 6.76653E-26
6.54508E-01 6.60595E-26
6.58652E-01 6.44924E-26
6.62784E-01 6.29631E-26
6.66903E-01 6.14705E-26
6.71010E-01 6.00136E-26
6.75104E-01 5.85914E-26
6.79184E-01 5.72030E-26
6.83251E-01 5.58475E-26
6.87303E-01 5.45239E-26
6.91342E-01 5.32315E-26
6.95366E-01 5.19694E-26
6.99375E-01 5.07368E-26
7.03368E-01 4.95330E-26
7.07347E-01 4.83571E-26
7.11309E-01 4.72084E-26
7.15256E-01 4.60863E-26
7.19186E-01 4.49900E-26
7.23099E-01 4.39189E-26
7.26995E-01 4.28723E-26
7.30874E-01 4.18497E-26
7.34736E-01 4.08503E-26
7.38579E-01 3.98736E-26
7.42405E-01 3.89191E-26
7.46212E-01 3.79862E-26
7.50000E-01 3.70743E-26
7.53769E-01 3.61829E-26
7.57519E-01 3.53115E-26
7.61249E-01 3.44596E-26
7.64960E-01 3.36267E-26
7.68650E-01 3.28125E-26
7.72320E-01 3.20163E-26
7.75968E-01 3.12378E-26
7.79596E-01 3.04766E-26
7.83203E-01 2.97322E-26
7.86788E-01 2.90043E-26
7.90351E-01 2.82924E-26
7.93893E-01 2.75961E-26
7.97411E-01 2.69152E-26
8.00908E-01 2.62491E-26
8.04381E-01 2.55977E-26
8.07831E-01 2.49605E-26
8.11257E-01 2.43373E-26
8.14660E-01 2.37276E-26
8.18039E-01 2.31313E-26
8.21394E-01 2.25479E-26
8.24724E-01 2.19772E-26
8.28030E-01 2.14189E-26
8.31310E-01 2.08728E-26
8.34565E-01 2.03385E-26
8.37795E-01 1.98157E-26
8.40999E-01 1.93044E-26
8.44177E-01 1.88041E-26
8.47329E-01 1.83146E-26
8.50455E-01 1.78358E-26
8.53553E-01 1.73674E-26
8.56625E-01 1.69091E-26
8.59670E-01 1.64607E-26
8.62687E-01 1.60221E-26
8.65677E-01 1.55930E-26
8.68639E-01 1.51732E-26
8.71572E-01 1.47625E-26
8.74478E-01 1.43608E-26
8.77355E-01 1.39678E-26
8.80203E-01 1.35834E-26
8.83022E-01 1.32074E-26
8.85812E-01 1.28397E-26
8.88573E-01 1.24800E-26
8.91304E-01 1.21281E-26
8.94005E-01 1.17841E-26
8.96677E-01 1.14476E-26
8.99318E-01 1.11186E-26
9.01928E-01 1.07969E-26
9.04508E-01 1.04823E-26
9.07058E-01 1.01747E-26
9.09576E-01 9.87406E-27
9.12063E-01 9.58016E-27
9.14519E-01 9.29288E-27
9.16943E-01 9.01211E-27
9.19335E-01 8.73773E-27
9.21696E-01 8.46962E-27
9.24024E-01 8.20767E-27
9.26320E-01 7.95177E-27
9.28584E-01 7.70181E-27
9.30815E-01 7.45769E-27
9.33013E-01 7.21930E-27
9.35178E-01 6.98655E-27
9.37310E-01 6.75934E-27
9.39409E-01 6.53758E-27
9.41474E-01 6.32117E-27
9.43505E-01 6.11003E-27
9.45503E-01 5.90407E-27
9.47467E-01 5.70321E-27
9.49397E-01 5.50736E-27
9.51293E-01 5.31646E-27
9.53154E-01 5.13042E-27
9.54981E-01 4.94916E-27
9.56773E-01 4.77262E-27
9.58530E-01 4.60072E-27
9.60252E-01 4.43341E-27
9.61940E-01 4.27060E-27
9.63592E-01 4.11224E-27
9.65209E-01 3.95826E-27
9.66790E-01 3.80861E-27
9.68336E-01 3.66323E-27
9.69846E-01 3.52205E-27
9.71321E-01 3.38503E-27
9.72759E-01 3.25211E-27
9.74162E-01 3.12324E-27
9.75528E-01 2.99837E-27
9.76858E-01 2.87746E-27
9.78152E-01 2.76045E-27
9.79410E-01 2.64730E-27
9.80631E-01 2.53797E-27
9.81815E-01 2.43242E-27
9.82963E-01 2.33060E-27
9.84074E-01 2.23248E-27
9.85148E-01 2.13802E-27
9.86185E-01 2.04719E-27
9.87185E-01 1.95995E-27
9.88148E-01 1.87627E-27
9.89074E-01 1.79612E-27
9.89962E-01 1.71946E-27
9.90814E-01 1.64627E-27
9.91627E-01 1.57652E-27
9.92404E-01 1.51018E-27
9.93143E-01 1.44724E-27
9.93844E-01 1.38766E-27
9.94508E-01 1.33142E-27
9.95134E-01 1.27851E-27
9.95722E-01 1.22891E-27
9.96273E-01 1.18259E-27
9.96786E-01 1.13953E-27
9.97261E-01 1.09973E-27
9.97698E-01 1.06317E-27
9.98097E-01 1.02983E-27
9.98459E-01 9.99706E-28
9.98782E-01 9.72780E-28
9.99067E-01 9.49046E-28
9.99315E-01 9.28493E-28
9.99524E-01 9.11116E-28
9.99695E-01 8.96906E-28
9.99829E-01 8.85860E-28
9.99924E-01 8.77973E-28
9.99981E-01 8.73241E-28
1.00000E+00 8.71668E-28
