 #
 # Subroutine ELSEPA. Elastic scattering of electrons and positrons
 #                    by neutral atoms and positive ions
 #
 # Projectile: electron
 # Kinetic energy = 9.00000E+08 eV = 3.30744E+07 a.u.
 #
 # WARNING: High-energy factorization with free-atom DF screening.
 #          Absorption, polarization and exchange corrections are
 #          switched off.
 #          Phase shifts are calculated for the bare nucleus.
 #          Scattering amplitudes are not evaluated.
 #
 # Element:  S,  Z =  16,  atomic weight = 3.20660E+01 g/mol
 #
 # Nuclear model: Fermi distribution
 #                Average radius = 3.39937E-13 cm
 #                Skin thickness = 5.46000E-14 cm
 #
 # Number of electrons = 16
 #
 # Total elastic cross section = 1.04070E-18 cm**2 = 3.71640E-02 a0**2
 # 1st transport cross section = 6.79105E-28 cm**2 = 2.42513E-11 a0**2
 # 2nd transport cross section = 2.03693E-27 cm**2 = 7.27403E-11 a0**2
 #
 #
 # Differential cross section:                       MU=(1-COS(THETA))/2
 #
 #  THETA        MU          DCS          DCS        Sherman      error
 #  (deg)                 (cm**2/sr)   (a0**2/sr)    function
 #----------------------------------------------------------------------
0.00000E+00 8.26114E-09
7.61557E-13 7.17188E-09
1.18994E-12 6.64623E-09
1.71346E-12 6.07452E-09
2.33225E-12 5.46507E-09
3.04617E-12 4.89336E-09
3.85530E-12 4.32126E-09
4.75964E-12 3.79573E-09
5.75917E-12 3.32364E-09
6.85391E-12 2.88119E-09
8.04379E-12 2.49890E-09
9.32893E-12 2.16195E-09
1.07092E-11 1.86500E-09
1.21847E-11 1.61260E-09
1.37554E-11 1.39253E-09
1.54213E-11 1.20446E-09
1.71823E-11 1.04514E-09
1.90386E-11 9.07122E-10
2.09900E-11 7.90351E-10
2.30367E-11 6.90854E-10
2.51785E-11 6.05366E-10
2.74156E-11 5.32644E-10
2.97478E-11 4.70230E-10
3.21752E-11 4.16618E-10
3.46979E-11 3.70570E-10
3.73157E-11 3.30751E-10
4.00286E-11 2.96314E-10
4.28368E-11 2.66431E-10
4.57402E-11 2.40369E-10
4.87388E-11 2.17603E-10
5.18325E-11 1.97635E-10
5.50215E-11 1.80056E-10
5.83057E-11 1.64541E-10
6.16850E-11 1.50790E-10
6.51595E-11 1.38562E-10
6.87293E-11 1.27660E-10
7.23943E-11 1.17892E-10
7.61544E-11 1.09123E-10
1.18991E-10 5.55952E-11
1.71347E-10 3.18467E-11
2.33223E-10 1.94700E-11
3.04617E-10 1.24387E-11
3.85531E-10 8.24216E-12
4.75965E-10 5.62917E-12
5.75917E-10 3.95110E-12
6.85389E-10 2.84540E-12
8.04380E-10 2.09552E-12
9.32891E-10 1.57610E-12
1.07092E-09 1.20768E-12
1.21847E-09 9.41050E-13
1.37554E-09 7.44409E-13
1.54213E-09 5.96820E-13
1.71823E-09 4.84326E-13
1.90386E-09 3.97316E-13
2.09900E-09 3.29149E-13
2.30367E-09 2.75101E-13
2.51785E-09 2.31779E-13
2.74156E-09 1.96717E-13
2.97478E-09 1.68071E-13
3.21752E-09 1.44484E-13
3.46978E-09 1.24907E-13
3.73156E-09 1.08547E-13
4.00286E-09 9.47870E-14
4.28368E-09 8.31412E-14
4.57402E-09 7.32335E-14
4.87388E-09 6.47576E-14
5.18326E-09 5.74733E-14
5.50215E-09 5.11842E-14
5.83057E-09 4.57306E-14
6.16850E-09 4.09839E-14
6.51596E-09 3.68353E-14
6.87293E-09 3.31977E-14
7.23942E-09 2.99970E-14
7.61544E-09 2.71718E-14
1.18991E-08 1.13154E-14
1.71347E-08 5.50425E-15
2.33223E-08 2.98515E-15
3.04617E-08 1.75465E-15
3.85531E-08 1.09725E-15
4.75965E-08 7.20673E-16
5.75917E-08 4.92577E-16
6.85389E-08 3.47961E-16
8.04380E-08 2.52715E-16
9.32891E-08 1.87932E-16
1.07092E-07 1.42636E-16
1.21847E-07 1.10199E-16
1.37554E-07 8.64792E-17
1.54213E-07 6.88108E-17
1.71823E-07 5.54325E-17
1.90386E-07 4.51526E-17
2.09900E-07 3.71476E-17
2.30367E-07 3.08405E-17
2.51785E-07 2.58170E-17
2.74156E-07 2.17759E-17
2.97478E-07 1.84955E-17
3.21752E-07 1.58102E-17
3.46978E-07 1.35950E-17
3.73156E-07 1.17546E-17
4.00286E-07 1.02153E-17
4.28368E-07 8.91993E-18
4.57402E-07 7.82355E-18
4.87388E-07 6.89056E-18
5.18325E-07 6.09260E-18
5.50215E-07 5.40687E-18
5.83057E-07 4.81497E-18
6.16850E-07 4.30189E-18
6.51596E-07 3.85537E-18
6.87293E-07 3.46531E-18
7.23942E-07 3.12336E-18
7.61543E-07 2.82256E-18
1.18991E-06 1.15621E-18
1.71347E-06 5.57632E-19
2.33223E-06 3.01019E-19
3.04617E-06 1.76466E-19
3.85531E-06 1.10175E-19
4.75964E-06 7.22915E-20
5.75916E-06 4.93798E-20
6.85388E-06 3.48681E-20
8.04378E-06 2.53171E-20
9.32888E-06 1.88239E-20
1.07092E-05 1.42853E-20
1.21846E-05 1.10359E-20
1.37553E-05 8.66015E-21
1.54212E-05 6.89072E-21
1.71822E-05 5.55103E-21
1.90385E-05 4.52177E-21
2.09899E-05 3.72047E-21
2.30365E-05 3.08902E-21
2.51783E-05 2.58598E-21
2.74153E-05 2.18129E-21
2.97475E-05 1.85277E-21
3.21749E-05 1.58385E-21
3.46974E-05 1.36203E-21
3.73152E-05 1.17774E-21
4.00281E-05 1.02360E-21
4.28362E-05 8.93871E-22
4.57395E-05 7.84061E-22
4.87380E-05 6.90604E-22
5.18317E-05 6.10665E-22
5.50205E-05 5.41965E-22
5.83045E-05 4.82663E-22
6.16838E-05 4.31259E-22
6.51582E-05 3.86524E-22
6.87277E-05 3.47444E-22
7.23925E-05 3.13182E-22
7.61524E-05 2.77167E-22
9.21439E-05 1.88478E-22
1.09658E-04 1.32431E-22
1.28695E-04 9.56345E-23
1.49255E-04 7.06859E-23
1.71338E-04 5.33003E-23
1.94942E-04 4.08928E-23
2.20070E-04 3.18533E-23
2.46720E-04 2.51459E-23
2.74892E-04 2.00881E-23
3.04586E-04 1.62187E-23
3.35803E-04 1.32198E-23
3.68542E-04 1.08684E-23
4.02802E-04 9.00500E-24
4.38585E-04 7.51408E-24
4.75889E-04 6.31061E-24
5.14715E-04 5.33130E-24
5.55063E-04 4.52848E-24
5.96931E-04 3.86580E-24
6.40321E-04 3.31535E-24
6.85233E-04 2.85541E-24
7.31665E-04 2.46902E-24
7.79618E-04 2.14275E-24
8.29092E-04 1.86594E-24
8.80086E-04 1.63006E-24
9.32601E-04 1.42821E-24
9.86636E-04 1.25483E-24
1.04219E-03 1.10534E-24
1.09927E-03 9.76021E-25
1.15786E-03 8.63784E-25
1.21797E-03 7.66077E-25
1.27961E-03 6.80777E-25
1.34276E-03 6.06106E-25
1.40743E-03 5.40574E-25
1.47362E-03 4.82923E-25
1.54133E-03 4.32090E-25
1.61056E-03 3.87171E-25
1.68131E-03 3.47398E-25
1.75357E-03 3.12113E-25
1.82735E-03 2.80752E-25
1.90265E-03 2.52830E-25
1.97947E-03 2.27930E-25
2.05780E-03 2.05688E-25
2.13765E-03 1.85793E-25
2.21902E-03 1.67971E-25
2.30190E-03 1.51986E-25
2.38630E-03 1.37629E-25
2.47222E-03 1.24719E-25
2.55965E-03 1.13098E-25
2.64859E-03 1.02625E-25
2.73905E-03 9.31771E-26
2.83103E-03 8.46460E-26
2.92452E-03 7.69354E-26
3.01952E-03 6.99605E-26
3.11604E-03 6.36458E-26
3.21407E-03 5.79245E-26
3.31362E-03 5.27369E-26
3.41468E-03 4.80301E-26
3.51725E-03 4.37567E-26
3.62133E-03 3.98744E-26
3.72692E-03 3.63455E-26
3.83403E-03 3.31360E-26
3.94265E-03 3.02155E-26
4.05278E-03 2.75568E-26
4.16442E-03 2.51354E-26
4.27757E-03 2.29292E-26
4.39223E-03 2.09183E-26
4.50840E-03 1.90848E-26
4.62608E-03 1.74126E-26
4.74527E-03 1.58870E-26
4.86597E-03 1.44947E-26
4.98817E-03 1.32240E-26
5.11188E-03 1.20638E-26
5.23711E-03 1.10045E-26
5.36383E-03 1.00371E-26
5.49207E-03 9.15346E-27
5.62181E-03 8.34632E-27
5.75306E-03 7.60899E-27
5.88581E-03 6.93539E-27
6.02007E-03 6.32000E-27
6.15583E-03 5.75778E-27
6.29310E-03 5.24415E-27
6.43187E-03 4.77494E-27
6.57214E-03 4.34632E-27
6.71392E-03 3.95483E-27
6.85720E-03 3.59729E-27
7.00198E-03 3.27079E-27
7.14827E-03 2.97270E-27
7.29605E-03 2.70059E-27
7.44534E-03 2.45224E-27
7.59612E-03 2.22564E-27
7.97965E-03 1.74250E-27
8.37255E-03 1.35923E-27
8.77480E-03 1.05587E-27
9.18641E-03 8.16398E-28
9.60736E-03 6.27950E-28
1.00376E-02 4.80188E-28
1.04773E-02 3.64805E-28
1.09262E-02 2.75133E-28
1.13844E-02 2.05817E-28
1.18520E-02 1.52568E-28
1.23288E-02 1.11948E-28
1.28150E-02 8.12154E-29
1.33104E-02 5.81816E-29
1.38150E-02 4.11082E-29
1.43290E-02 2.86176E-29
1.48521E-02 1.96228E-29
1.53845E-02 1.32696E-29
1.59262E-02 8.89058E-30
1.64770E-02 5.96711E-30
1.70371E-02 4.09928E-30
1.76063E-02 2.98123E-30
1.81848E-02 2.38138E-30
1.87724E-02 2.12645E-30
1.93692E-02 2.08877E-30
1.99751E-02 2.17596E-30
2.05901E-02 2.32278E-30
2.12143E-02 2.48468E-30
2.18476E-02 2.63264E-30
2.24900E-02 2.74914E-30
2.31415E-02 2.82503E-30
2.38021E-02 2.85707E-30
2.44717E-02 2.84608E-30
2.51504E-02 2.79551E-30
2.58382E-02 2.71038E-30
2.65349E-02 2.59651E-30
2.72407E-02 2.45996E-30
2.79555E-02 2.30663E-30
2.86793E-02 2.14203E-30
2.94120E-02 1.97111E-30
3.01537E-02 1.79816E-30
3.09043E-02 1.62681E-30
3.16639E-02 1.46004E-30
3.24324E-02 1.30017E-30
3.32098E-02 1.14897E-30
3.39961E-02 1.00769E-30
3.47912E-02 8.77133E-31
3.55952E-02 7.57714E-31
3.64081E-02 6.49536E-31
3.72297E-02 5.52441E-31
3.80602E-02 4.66070E-31
3.88995E-02 3.89908E-31
3.97476E-02 3.23330E-31
4.06044E-02 2.65635E-31
4.14700E-02 2.16080E-31
4.23443E-02 1.73904E-31
4.32273E-02 1.38348E-31
4.41190E-02 1.08674E-31
4.50194E-02 8.41760E-32
4.59284E-02 6.41873E-32
4.68461E-02 4.80900E-32
4.87074E-02 2.53532E-32
5.06030E-02 1.20614E-32
5.25328E-02 5.13332E-33
5.44967E-02 2.23724E-33
5.64946E-02 1.68408E-33
5.85262E-02 2.30932E-33
6.05914E-02 3.35757E-33
6.26901E-02 4.37876E-33
6.48222E-02 5.13976E-33
6.69873E-02 5.55314E-33
6.91854E-02 5.62209E-33
7.14163E-02 5.39991E-33
7.36799E-02 4.96174E-33
7.59760E-02 4.38608E-33
7.83043E-02 3.74374E-33
8.06647E-02 3.09235E-33
8.30571E-02 2.47446E-33
8.54812E-02 1.91817E-33
8.79369E-02 1.43898E-33
9.04240E-02 1.04237E-33
9.29422E-02 7.26425E-34
9.54915E-02 4.84284E-34
9.80716E-02 3.06219E-34
1.00682E-01 1.81280E-34
1.03323E-01 9.85013E-35
1.05995E-01 4.77174E-35
1.08696E-01 2.00436E-35
1.11427E-01 8.09981E-36
1.14188E-01 6.04320E-36
1.16978E-01 9.47153E-36
1.19797E-01 1.52490E-35
1.22645E-01 2.12944E-35
1.25522E-01 2.63608E-35
1.28428E-01 2.98278E-35
1.31361E-01 3.15164E-35
1.34323E-01 3.15365E-35
1.37313E-01 3.01641E-35
1.40330E-01 2.77502E-35
1.43375E-01 2.46566E-35
1.46447E-01 2.12146E-35
1.49545E-01 1.77013E-35
1.52671E-01 1.43303E-35
1.55823E-01 1.12508E-35
1.59001E-01 8.55396E-36
1.62205E-01 6.28154E-36
1.65435E-01 4.43704E-36
1.68690E-01 2.99593E-36
1.71970E-01 1.91554E-36
1.75276E-01 1.14310E-36
1.78606E-01 6.22424E-37
1.81961E-01 2.98661E-37
1.85340E-01 1.21669E-37
1.88743E-01 4.79689E-38
1.92169E-01 4.16478E-38
1.95619E-01 7.44288E-38
1.99092E-01 1.25188E-37
2.02589E-01 1.79087E-37
2.06107E-01 2.26553E-37
2.09649E-01 2.62206E-37
2.13212E-01 2.83823E-37
2.16797E-01 2.91432E-37
2.20404E-01 2.86508E-37
2.24032E-01 2.71391E-37
2.27680E-01 2.48729E-37
2.31350E-01 2.21202E-37
2.35040E-01 1.91242E-37
2.38751E-01 1.60887E-37
2.42481E-01 1.31739E-37
2.46231E-01 1.04943E-37
2.50000E-01 8.12175E-38
2.53788E-01 6.09310E-38
2.57595E-01 4.41499E-38
2.61421E-01 3.07342E-38
2.65264E-01 2.03904E-38
2.69126E-01 1.27367E-38
2.73005E-01 7.35082E-39
2.76901E-01 1.00000E-45
2.80814E-01 1.00000E-45
2.84744E-01 1.00000E-45
2.88691E-01 1.00000E-45
2.92653E-01 1.00000E-45
2.96632E-01 1.00000E-45
3.00625E-01 1.00000E-45
3.04634E-01 1.00000E-45
3.08658E-01 1.00000E-45
3.12697E-01 1.00000E-45
3.16749E-01 1.00000E-45
3.20816E-01 1.00000E-45
3.24896E-01 1.00000E-45
3.28990E-01 1.00000E-45
3.33097E-01 1.00000E-45
3.37216E-01 1.00000E-45
3.41348E-01 1.00000E-45
3.45492E-01 1.00000E-45
3.49647E-01 1.00000E-45
3.53814E-01 1.00000E-45
3.57992E-01 1.00000E-45
3.62181E-01 1.00000E-45
3.66381E-01 1.00000E-45
3.70590E-01 1.00000E-45
3.74810E-01 1.00000E-45
3.79039E-01 1.00000E-45
3.83277E-01 1.00000E-45
3.87524E-01 1.00000E-45
3.91780E-01 1.00000E-45
3.96044E-01 1.00000E-45
4.00316E-01 1.00000E-45
4.04596E-01 1.00000E-45
4.08882E-01 1.00000E-45
4.13176E-01 1.00000E-45
4.17476E-01 1.00000E-45
4.21783E-01 1.00000E-45
4.26095E-01 1.00000E-45
4.30413E-01 1.00000E-45
4.34737E-01 1.00000E-45
4.39065E-01 1.00000E-45
4.43398E-01 1.00000E-45
4.47736E-01 1.00000E-45
4.52077E-01 1.00000E-45
4.56422E-01 1.00000E-45
4.60770E-01 1.00000E-45
4.65122E-01 1.00000E-45
4.69476E-01 1.00000E-45
4.73832E-01 1.00000E-45
4.78190E-01 1.00000E-45
4.82550E-01 1.00000E-45
4.86912E-01 1.00000E-45
4.91274E-01 1.00000E-45
4.95637E-01 1.00000E-45
5.00000E-01 1.00000E-45
5.04363E-01 1.00000E-45
5.08726E-01 1.00000E-45
5.13088E-01 1.00000E-45
5.17450E-01 1.00000E-45
5.21810E-01 1.00000E-45
5.26168E-01 1.00000E-45
5.30524E-01 1.00000E-45
5.34878E-01 1.00000E-45
5.39230E-01 1.00000E-45
5.43578E-01 1.00000E-45
5.47923E-01 1.00000E-45
5.52264E-01 1.00000E-45
5.56602E-01 1.00000E-45
5.60935E-01 1.00000E-45
5.65263E-01 1.00000E-45
5.69587E-01 1.00000E-45
5.73905E-01 1.00000E-45
5.78217E-01 1.00000E-45
5.82524E-01 1.00000E-45
5.86824E-01 1.00000E-45
5.91118E-01 1.00000E-45
5.95404E-01 1.00000E-45
5.99684E-01 1.00000E-45
6.03956E-01 1.00000E-45
6.08220E-01 1.00000E-45
6.12476E-01 1.00000E-45
6.16723E-01 1.00000E-45
6.20961E-01 1.00000E-45
6.25190E-01 1.00000E-45
6.29410E-01 1.00000E-45
6.33619E-01 1.00000E-45
6.37819E-01 1.00000E-45
6.42008E-01 1.00000E-45
6.46186E-01 1.00000E-45
6.50353E-01 1.00000E-45
6.54508E-01 1.00000E-45
6.58652E-01 1.00000E-45
6.62784E-01 1.00000E-45
6.66903E-01 1.00000E-45
6.71010E-01 1.00000E-45
6.75104E-01 1.00000E-45
6.79184E-01 1.00000E-45
6.83251E-01 1.00000E-45
6.87303E-01 1.00000E-45
6.91342E-01 1.00000E-45
6.95366E-01 1.00000E-45
6.99375E-01 1.00000E-45
7.03368E-01 1.00000E-45
7.07347E-01 1.00000E-45
7.11309E-01 1.00000E-45
7.15256E-01 1.00000E-45
7.19186E-01 1.00000E-45
7.23099E-01 1.00000E-45
7.26995E-01 1.00000E-45
7.30874E-01 1.00000E-45
7.34736E-01 1.00000E-45
7.38579E-01 1.00000E-45
7.42405E-01 1.00000E-45
7.46212E-01 1.00000E-45
7.50000E-01 1.00000E-45
7.53769E-01 1.00000E-45
7.57519E-01 1.00000E-45
7.61249E-01 1.00000E-45
7.64960E-01 1.00000E-45
7.68650E-01 1.00000E-45
7.72320E-01 1.00000E-45
7.75968E-01 1.00000E-45
7.79596E-01 1.00000E-45
7.83203E-01 1.00000E-45
7.86788E-01 1.00000E-45
7.90351E-01 1.00000E-45
7.93893E-01 1.00000E-45
7.97411E-01 1.00000E-45
8.00908E-01 1.00000E-45
8.04381E-01 1.00000E-45
8.07831E-01 1.00000E-45
8.11257E-01 1.00000E-45
8.14660E-01 1.00000E-45
8.18039E-01 1.00000E-45
8.21394E-01 1.00000E-45
8.24724E-01 1.00000E-45
8.28030E-01 1.00000E-45
8.31310E-01 1.00000E-45
8.34565E-01 1.00000E-45
8.37795E-01 1.00000E-45
8.40999E-01 1.00000E-45
8.44177E-01 1.00000E-45
8.47329E-01 1.00000E-45
8.50455E-01 1.00000E-45
8.53553E-01 1.00000E-45
8.56625E-01 1.00000E-45
8.59670E-01 1.00000E-45
8.62687E-01 1.00000E-45
8.65677E-01 1.00000E-45
8.68639E-01 1.00000E-45
8.71572E-01 1.00000E-45
8.74478E-01 1.00000E-45
8.77355E-01 1.00000E-45
8.80203E-01 1.00000E-45
8.83022E-01 1.00000E-45
8.85812E-01 1.00000E-45
8.88573E-01 1.00000E-45
8.91304E-01 1.00000E-45
8.94005E-01 1.00000E-45
8.96677E-01 1.00000E-45
8.99318E-01 1.00000E-45
9.01928E-01 1.00000E-45
9.04508E-01 1.00000E-45
9.07058E-01 1.00000E-45
9.09576E-01 1.00000E-45
9.12063E-01 1.00000E-45
9.14519E-01 1.00000E-45
9.16943E-01 1.00000E-45
9.19335E-01 1.00000E-45
9.21696E-01 1.00000E-45
9.24024E-01 1.00000E-45
9.26320E-01 1.00000E-45
9.28584E-01 1.00000E-45
9.30815E-01 1.00000E-45
9.33013E-01 1.00000E-45
9.35178E-01 1.00000E-45
9.37310E-01 1.00000E-45
9.39409E-01 1.00000E-45
9.41474E-01 1.00000E-45
9.43505E-01 1.00000E-45
9.45503E-01 1.00000E-45
9.47467E-01 1.00000E-45
9.49397E-01 1.00000E-45
9.51293E-01 1.00000E-45
9.53154E-01 1.00000E-45
9.54981E-01 1.00000E-45
9.56773E-01 1.00000E-45
9.58530E-01 1.00000E-45
9.60252E-01 1.00000E-45
9.61940E-01 1.00000E-45
9.63592E-01 1.00000E-45
9.65209E-01 1.00000E-45
9.66790E-01 1.00000E-45
9.68336E-01 1.00000E-45
9.69846E-01 1.00000E-45
9.71321E-01 1.00000E-45
9.72759E-01 1.00000E-45
9.74162E-01 1.00000E-45
9.75528E-01 1.00000E-45
9.76858E-01 1.00000E-45
9.78152E-01 1.00000E-45
9.79410E-01 1.00000E-45
9.80631E-01 1.00000E-45
9.81815E-01 1.00000E-45
9.82963E-01 1.00000E-45
9.84074E-01 1.00000E-45
9.85148E-01 1.00000E-45
9.86185E-01 1.00000E-45
9.87185E-01 1.00000E-45
9.88148E-01 1.00000E-45
9.89074E-01 1.00000E-45
9.89962E-01 1.00000E-45
9.90814E-01 1.00000E-45
9.91627E-01 1.00000E-45
9.92404E-01 1.00000E-45
9.93143E-01 1.00000E-45
9.93844E-01 1.00000E-45
9.94508E-01 1.00000E-45
9.95134E-01 1.00000E-45
9.95722E-01 1.00000E-45
9.96273E-01 1.00000E-45
9.96786E-01 1.00000E-45
9.97261E-01 1.00000E-45
9.97698E-01 1.00000E-45
9.98097E-01 1.00000E-45
9.98459E-01 1.00000E-45
9.98782E-01 1.00000E-45
9.99067E-01 1.00000E-45
9.99315E-01 1.00000E-45
9.99524E-01 1.00000E-45
9.99695E-01 1.00000E-45
9.99829E-01 1.00000E-45
9.99924E-01 1.00000E-45
9.99981E-01 1.00000E-45
1.00000E+00 1.00000E-45
