 #
 # Subroutine ELSEPA. Elastic scattering of electrons and positrons
 #                    by neutral atoms and positive ions
 #
 # Projectile: electron
 # Kinetic energy = 1.25000E+07 eV = 4.59367E+05 a.u.
 #
 # WARNING: High-energy factorization with free-atom DF screening.
 #          Absorption, polarization and exchange corrections are
 #          switched off.
 #          Phase shifts are calculated for the bare nucleus.
 #          Scattering amplitudes are not evaluated.
 #
 # Element:  S,  Z =  16,  atomic weight = 3.20660E+01 g/mol
 #
 # Nuclear model: Fermi distribution
 #                Average radius = 3.39937E-13 cm
 #                Skin thickness = 5.46000E-14 cm
 #
 # Number of electrons = 16
 #
 # Total elastic cross section = 1.04640E-18 cm**2 = 3.73677E-02 a0**2
 # 1st transport cross section = 2.70463E-24 cm**2 = 9.65840E-08 a0**2
 # 2nd transport cross section = 7.78218E-24 cm**2 = 2.77907E-07 a0**2
 #
 #
 # Differential cross section:                       MU=(1-COS(THETA))/2
 #
 #  THETA        MU          DCS          DCS        Sherman      error
 #  (deg)                 (cm**2/sr)   (a0**2/sr)    function
 #----------------------------------------------------------------------
0.00000E+00 1.72458E-12
7.61557E-13 1.72452E-12
1.18994E-12 1.72449E-12
1.71346E-12 1.72446E-12
2.33225E-12 1.72441E-12
3.04617E-12 1.72436E-12
3.85530E-12 1.72431E-12
4.75964E-12 1.72424E-12
5.75917E-12 1.72417E-12
6.85391E-12 1.72410E-12
8.04379E-12 1.72402E-12
9.32893E-12 1.72393E-12
1.07092E-11 1.72383E-12
1.21847E-11 1.72373E-12
1.37554E-11 1.72362E-12
1.54213E-11 1.72350E-12
1.71823E-11 1.72338E-12
1.90386E-11 1.72325E-12
2.09900E-11 1.72312E-12
2.30367E-11 1.72298E-12
2.51785E-11 1.72283E-12
2.74156E-11 1.72268E-12
2.97478E-11 1.72252E-12
3.21752E-11 1.72235E-12
3.46979E-11 1.72218E-12
3.73157E-11 1.72200E-12
4.00286E-11 1.72181E-12
4.28368E-11 1.72162E-12
4.57402E-11 1.72142E-12
4.87388E-11 1.72121E-12
5.18325E-11 1.72100E-12
5.50215E-11 1.72078E-12
5.83057E-11 1.72055E-12
6.16850E-11 1.72032E-12
6.51595E-11 1.72008E-12
6.87293E-11 1.71984E-12
7.23943E-11 1.71959E-12
7.61544E-11 1.71933E-12
1.18991E-10 1.71640E-12
1.71347E-10 1.71283E-12
2.33223E-10 1.70862E-12
3.04617E-10 1.70379E-12
3.85531E-10 1.69834E-12
4.75965E-10 1.69228E-12
5.75917E-10 1.68561E-12
6.85389E-10 1.67836E-12
8.04380E-10 1.67052E-12
9.32891E-10 1.66211E-12
1.07092E-09 1.65314E-12
1.21847E-09 1.64363E-12
1.37554E-09 1.63360E-12
1.54213E-09 1.62305E-12
1.71823E-09 1.61200E-12
1.90386E-09 1.60047E-12
2.09900E-09 1.58847E-12
2.30367E-09 1.57603E-12
2.51785E-09 1.56315E-12
2.74156E-09 1.54985E-12
2.97478E-09 1.53615E-12
3.21752E-09 1.52207E-12
3.46978E-09 1.50762E-12
3.73156E-09 1.49284E-12
4.00286E-09 1.47774E-12
4.28368E-09 1.46233E-12
4.57402E-09 1.44663E-12
4.87388E-09 1.43067E-12
5.18326E-09 1.41446E-12
5.50215E-09 1.39803E-12
5.83057E-09 1.38138E-12
6.16850E-09 1.36452E-12
6.51596E-09 1.34749E-12
6.87293E-09 1.33029E-12
7.23942E-09 1.31296E-12
7.61544E-09 1.29551E-12
1.18991E-08 1.11401E-12
1.71347E-08 9.40413E-13
2.33223E-08 7.81108E-13
3.04617E-08 6.41183E-13
3.85531E-08 5.22197E-13
4.75965E-08 4.23398E-13
5.75917E-08 3.42760E-13
6.85389E-08 2.77619E-13
8.04380E-08 2.25414E-13
9.32891E-08 1.83926E-13
1.07092E-07 1.50975E-13
1.21847E-07 1.24768E-13
1.37554E-07 1.03863E-13
1.54213E-07 8.71173E-14
1.71823E-07 7.36342E-14
1.90386E-07 6.27143E-14
2.09900E-07 5.38136E-14
2.30367E-07 4.65093E-14
2.51785E-07 4.04716E-14
2.74156E-07 3.54464E-14
2.97478E-07 3.12339E-14
3.21752E-07 2.76772E-14
3.46978E-07 2.46531E-14
3.73156E-07 2.20641E-14
4.00286E-07 1.98332E-14
4.28368E-07 1.78989E-14
4.57402E-07 1.62119E-14
4.87388E-07 1.47326E-14
5.18325E-07 1.34286E-14
5.50215E-07 1.22738E-14
5.83057E-07 1.12464E-14
6.16850E-07 1.03274E-14
6.51596E-07 9.50332E-15
6.87293E-07 8.76168E-15
7.23942E-07 8.09207E-15
7.61543E-07 7.48571E-15
1.18991E-06 3.67003E-15
1.71347E-06 1.97080E-15
2.33223E-06 1.13143E-15
3.04617E-06 6.86912E-16
3.85531E-06 4.38581E-16
4.75964E-06 2.92442E-16
5.75916E-06 2.02373E-16
6.85388E-06 1.44564E-16
8.04378E-06 1.06111E-16
9.32888E-06 7.97177E-17
1.07092E-05 6.10960E-17
1.21846E-05 4.76430E-17
1.37553E-05 3.77186E-17
1.54212E-05 3.02607E-17
1.71822E-05 2.45647E-17
1.90385E-05 2.01521E-17
2.09899E-05 1.66893E-17
2.30365E-05 1.39392E-17
2.51783E-05 1.17327E-17
2.74153E-05 9.94570E-18
2.97475E-05 8.48576E-18
3.21749E-05 7.28369E-18
3.46974E-05 6.28680E-18
3.73152E-05 5.45443E-18
4.00281E-05 4.75496E-18
4.28362E-05 4.16380E-18
4.57395E-05 3.66144E-18
4.87380E-05 3.23234E-18
5.18317E-05 2.86408E-18
5.50205E-05 2.54665E-18
5.83045E-05 2.27187E-18
6.16838E-05 2.03306E-18
6.51582E-05 1.82475E-18
6.87277E-05 1.64238E-18
7.23925E-05 1.48217E-18
7.61524E-05 1.34097E-18
9.21439E-05 9.19365E-19
1.09658E-04 6.50959E-19
1.28695E-04 4.73616E-19
1.49255E-04 3.52697E-19
1.71338E-04 2.67994E-19
1.94942E-04 2.07240E-19
2.20070E-04 1.62761E-19
2.46720E-04 1.29596E-19
2.74892E-04 1.04462E-19
3.04586E-04 8.51365E-20
3.35803E-04 7.00800E-20
3.68542E-04 5.82101E-20
4.02802E-04 4.87504E-20
4.38585E-04 4.11371E-20
4.75889E-04 3.49542E-20
5.14715E-04 2.98907E-20
5.55063E-04 2.57123E-20
5.96931E-04 2.22394E-20
6.40321E-04 1.93338E-20
6.85233E-04 1.68879E-20
7.31665E-04 1.48170E-20
7.79618E-04 1.30543E-20
8.29092E-04 1.15462E-20
8.80086E-04 1.02499E-20
9.32601E-04 9.13055E-21
9.86636E-04 8.15993E-21
1.04219E-03 7.31503E-21
1.09927E-03 6.57680E-21
1.15786E-03 5.92948E-21
1.21797E-03 5.35995E-21
1.27961E-03 4.85725E-21
1.34276E-03 4.41218E-21
1.40743E-03 4.01699E-21
1.47362E-03 3.66512E-21
1.54133E-03 3.35098E-21
1.61056E-03 3.06983E-21
1.68131E-03 2.81758E-21
1.75357E-03 2.59075E-21
1.82735E-03 2.38631E-21
1.90265E-03 2.20167E-21
1.97947E-03 2.03457E-21
2.05780E-03 1.88305E-21
2.13765E-03 1.74539E-21
2.21902E-03 1.62009E-21
2.30190E-03 1.50586E-21
2.38630E-03 1.40153E-21
2.47222E-03 1.30609E-21
2.55965E-03 1.21865E-21
2.64859E-03 1.13841E-21
2.73905E-03 1.06468E-21
2.83103E-03 9.96836E-22
2.92452E-03 9.34314E-22
3.01952E-03 8.76625E-22
3.11604E-03 8.23326E-22
3.21407E-03 7.74023E-22
3.31362E-03 7.28361E-22
3.41468E-03 6.86022E-22
3.51725E-03 6.46719E-22
3.62133E-03 6.10195E-22
3.72692E-03 5.76218E-22
3.83403E-03 5.44576E-22
3.94265E-03 5.15080E-22
4.05278E-03 4.87557E-22
4.16442E-03 4.61851E-22
4.27757E-03 4.37819E-22
4.39223E-03 4.15333E-22
4.50840E-03 3.94274E-22
4.62608E-03 3.74536E-22
4.74527E-03 3.56019E-22
4.86597E-03 3.38634E-22
4.98817E-03 3.22299E-22
5.11188E-03 3.06939E-22
5.23711E-03 2.92485E-22
5.36383E-03 2.78873E-22
5.49207E-03 2.66045E-22
5.62181E-03 2.53947E-22
5.75306E-03 2.42531E-22
5.88581E-03 2.31750E-22
6.02007E-03 2.21562E-22
6.15583E-03 2.11929E-22
6.29310E-03 2.02815E-22
6.43187E-03 1.94186E-22
6.57214E-03 1.86012E-22
6.71392E-03 1.78265E-22
6.85720E-03 1.70917E-22
7.00198E-03 1.63945E-22
7.14827E-03 1.57325E-22
7.29605E-03 1.51036E-22
7.44534E-03 1.45060E-22
7.59612E-03 1.39376E-22
7.97965E-03 1.26341E-22
8.37255E-03 1.14797E-22
8.77480E-03 1.04543E-22
9.18641E-03 9.54119E-23
9.60736E-03 8.72574E-23
1.00376E-02 7.99573E-23
1.04773E-02 7.34061E-23
1.09262E-02 6.75134E-23
1.13844E-02 6.22012E-23
1.18520E-02 5.74023E-23
1.23288E-02 5.30581E-23
1.28150E-02 4.91179E-23
1.33104E-02 4.55373E-23
1.38150E-02 4.22776E-23
1.43290E-02 3.93049E-23
1.48521E-02 3.65894E-23
1.53845E-02 3.41047E-23
1.59262E-02 3.18277E-23
1.64770E-02 2.97380E-23
1.70371E-02 2.78171E-23
1.76063E-02 2.60492E-23
1.81848E-02 2.44197E-23
1.87724E-02 2.29158E-23
1.93692E-02 2.15260E-23
1.99751E-02 2.02402E-23
2.05901E-02 1.90491E-23
2.12143E-02 1.79445E-23
2.18476E-02 1.69188E-23
2.24900E-02 1.59655E-23
2.31415E-02 1.50785E-23
2.38021E-02 1.42523E-23
2.44717E-02 1.34820E-23
2.51504E-02 1.27630E-23
2.58382E-02 1.20915E-23
2.65349E-02 1.14635E-23
2.72407E-02 1.08758E-23
2.79555E-02 1.03254E-23
2.86793E-02 9.80930E-24
2.94120E-02 9.32511E-24
3.01537E-02 8.87045E-24
3.09043E-02 8.44317E-24
3.16639E-02 8.04133E-24
3.24324E-02 7.66312E-24
3.32098E-02 7.30689E-24
3.39961E-02 6.97113E-24
3.47912E-02 6.65444E-24
3.55952E-02 6.35553E-24
3.64081E-02 6.07322E-24
3.72297E-02 5.80641E-24
3.80602E-02 5.55409E-24
3.88995E-02 5.31532E-24
3.97476E-02 5.08925E-24
4.06044E-02 4.87506E-24
4.14700E-02 4.67202E-24
4.23443E-02 4.47943E-24
4.32273E-02 4.29666E-24
4.41190E-02 4.12310E-24
4.50194E-02 3.95822E-24
4.59284E-02 3.80149E-24
4.68461E-02 3.65243E-24
4.87074E-02 3.37557E-24
5.06030E-02 3.12442E-24
5.25328E-02 2.89617E-24
5.44967E-02 2.68835E-24
5.64946E-02 2.49880E-24
5.85262E-02 2.32563E-24
6.05914E-02 2.16717E-24
6.26901E-02 2.02194E-24
6.48222E-02 1.88864E-24
6.69873E-02 1.76611E-24
6.91854E-02 1.65333E-24
7.14163E-02 1.54937E-24
7.36799E-02 1.45342E-24
7.59760E-02 1.36476E-24
7.83043E-02 1.28272E-24
8.06647E-02 1.20672E-24
8.30571E-02 1.13624E-24
8.54812E-02 1.07081E-24
8.79369E-02 1.00999E-24
9.04240E-02 9.53397E-25
9.29422E-02 9.00689E-25
9.54915E-02 8.51549E-25
9.80716E-02 8.05690E-25
1.00682E-01 7.62853E-25
1.03323E-01 7.22803E-25
1.05995E-01 6.85325E-25
1.08696E-01 6.50223E-25
1.11427E-01 6.17319E-25
1.14188E-01 5.86450E-25
1.16978E-01 5.57468E-25
1.19797E-01 5.30235E-25
1.22645E-01 5.04627E-25
1.25522E-01 4.80529E-25
1.28428E-01 4.57835E-25
1.31361E-01 4.36448E-25
1.34323E-01 4.16280E-25
1.37313E-01 3.97248E-25
1.40330E-01 3.79277E-25
1.43375E-01 3.62296E-25
1.46447E-01 3.46240E-25
1.49545E-01 3.31051E-25
1.52671E-01 3.16672E-25
1.55823E-01 3.03053E-25
1.59001E-01 2.90146E-25
1.62205E-01 2.77907E-25
1.65435E-01 2.66295E-25
1.68690E-01 2.55271E-25
1.71970E-01 2.44802E-25
1.75276E-01 2.34853E-25
1.78606E-01 2.25394E-25
1.81961E-01 2.16397E-25
1.85340E-01 2.07834E-25
1.88743E-01 1.99681E-25
1.92169E-01 1.91916E-25
1.95619E-01 1.84515E-25
1.99092E-01 1.77459E-25
2.02589E-01 1.70728E-25
2.06107E-01 1.64306E-25
2.09649E-01 1.58175E-25
2.13212E-01 1.52319E-25
2.16797E-01 1.46725E-25
2.20404E-01 1.41378E-25
2.24032E-01 1.36265E-25
2.27680E-01 1.31374E-25
2.31350E-01 1.26694E-25
2.35040E-01 1.22214E-25
2.38751E-01 1.17924E-25
2.42481E-01 1.13815E-25
2.46231E-01 1.09877E-25
2.50000E-01 1.06102E-25
2.53788E-01 1.02482E-25
2.57595E-01 9.90091E-26
2.61421E-01 9.56770E-26
2.65264E-01 9.24787E-26
2.69126E-01 8.94077E-26
2.73005E-01 8.64581E-26
2.76901E-01 8.36242E-26
2.80814E-01 8.09007E-26
2.84744E-01 7.82826E-26
2.88691E-01 7.57649E-26
2.92653E-01 7.33432E-26
2.96632E-01 7.10131E-26
3.00625E-01 6.87706E-26
3.04634E-01 6.66117E-26
3.08658E-01 6.45328E-26
3.12697E-01 6.25305E-26
3.16749E-01 6.06013E-26
3.20816E-01 5.87422E-26
3.24896E-01 5.69501E-26
3.28990E-01 5.52223E-26
3.33097E-01 5.35559E-26
3.37216E-01 5.19484E-26
3.41348E-01 5.03974E-26
3.45492E-01 4.89006E-26
3.49647E-01 4.74556E-26
3.53814E-01 4.60605E-26
3.57992E-01 4.47131E-26
3.62181E-01 4.34116E-26
3.66381E-01 4.21541E-26
3.70590E-01 4.09389E-26
3.74810E-01 3.97642E-26
3.79039E-01 3.86286E-26
3.83277E-01 3.75305E-26
3.87524E-01 3.64685E-26
3.91780E-01 3.54411E-26
3.96044E-01 3.44470E-26
4.00316E-01 3.34850E-26
4.04596E-01 3.25538E-26
4.08882E-01 3.16523E-26
4.13176E-01 3.07794E-26
4.17476E-01 2.99340E-26
4.21783E-01 2.91151E-26
4.26095E-01 2.83218E-26
4.30413E-01 2.75530E-26
4.34737E-01 2.68080E-26
4.39065E-01 2.60858E-26
4.43398E-01 2.53857E-26
4.47736E-01 2.47068E-26
4.52077E-01 2.40484E-26
4.56422E-01 2.34097E-26
4.60770E-01 2.27902E-26
4.65122E-01 2.21891E-26
4.69476E-01 2.16057E-26
4.73832E-01 2.10395E-26
4.78190E-01 2.04899E-26
4.82550E-01 1.99563E-26
4.86912E-01 1.94382E-26
4.91274E-01 1.89350E-26
4.95637E-01 1.84462E-26
5.00000E-01 1.79715E-26
5.04363E-01 1.75102E-26
5.08726E-01 1.70619E-26
5.13088E-01 1.66263E-26
5.17450E-01 1.62029E-26
5.21810E-01 1.57914E-26
5.26168E-01 1.53912E-26
5.30524E-01 1.50021E-26
5.34878E-01 1.46237E-26
5.39230E-01 1.42557E-26
5.43578E-01 1.38977E-26
5.47923E-01 1.35495E-26
5.52264E-01 1.32107E-26
5.56602E-01 1.28809E-26
5.60935E-01 1.25601E-26
5.65263E-01 1.22478E-26
5.69587E-01 1.19437E-26
5.73905E-01 1.16478E-26
5.78217E-01 1.13596E-26
5.82524E-01 1.10790E-26
5.86824E-01 1.08057E-26
5.91118E-01 1.05396E-26
5.95404E-01 1.02804E-26
5.99684E-01 1.00278E-26
6.03956E-01 9.78174E-27
6.08220E-01 9.54200E-27
6.12476E-01 9.30837E-27
6.16723E-01 9.08068E-27
6.20961E-01 8.85877E-27
6.25190E-01 8.64245E-27
6.29410E-01 8.43157E-27
6.33619E-01 8.22598E-27
6.37819E-01 8.02552E-27
6.42008E-01 7.83004E-27
6.46186E-01 7.63941E-27
6.50353E-01 7.45349E-27
6.54508E-01 7.27215E-27
6.58652E-01 7.09525E-27
6.62784E-01 6.92267E-27
6.66903E-01 6.75430E-27
6.71010E-01 6.59002E-27
6.75104E-01 6.42972E-27
6.79184E-01 6.27328E-27
6.83251E-01 6.12060E-27
6.87303E-01 5.97159E-27
6.91342E-01 5.82613E-27
6.95366E-01 5.68414E-27
6.99375E-01 5.54552E-27
7.03368E-01 5.41018E-27
7.07347E-01 5.27804E-27
7.11309E-01 5.14901E-27
7.15256E-01 5.02301E-27
7.19186E-01 4.89996E-27
7.23099E-01 4.77978E-27
7.26995E-01 4.66240E-27
7.30874E-01 4.54775E-27
7.34736E-01 4.43575E-27
7.38579E-01 4.32633E-27
7.42405E-01 4.21944E-27
7.46212E-01 4.11501E-27
7.50000E-01 4.01297E-27
7.53769E-01 3.91326E-27
7.57519E-01 3.81583E-27
7.61249E-01 3.72062E-27
7.64960E-01 3.62758E-27
7.68650E-01 3.53664E-27
7.72320E-01 3.44776E-27
7.75968E-01 3.36089E-27
7.79596E-01 3.27598E-27
7.83203E-01 3.19298E-27
7.86788E-01 3.11184E-27
7.90351E-01 3.03252E-27
7.93893E-01 2.95498E-27
7.97411E-01 2.87917E-27
8.00908E-01 2.80505E-27
8.04381E-01 2.73259E-27
8.07831E-01 2.66173E-27
8.11257E-01 2.59245E-27
8.14660E-01 2.52471E-27
8.18039E-01 2.45848E-27
8.21394E-01 2.39370E-27
8.24724E-01 2.33037E-27
8.28030E-01 2.26843E-27
8.31310E-01 2.20786E-27
8.34565E-01 2.14863E-27
8.37795E-01 2.09071E-27
8.40999E-01 2.03406E-27
8.44177E-01 1.97867E-27
8.47329E-01 1.92449E-27
8.50455E-01 1.87151E-27
8.53553E-01 1.81970E-27
8.56625E-01 1.76903E-27
8.59670E-01 1.71948E-27
8.62687E-01 1.67102E-27
8.65677E-01 1.62363E-27
8.68639E-01 1.57728E-27
8.71572E-01 1.53196E-27
8.74478E-01 1.48765E-27
8.77355E-01 1.44431E-27
8.80203E-01 1.40194E-27
8.83022E-01 1.36050E-27
8.85812E-01 1.31999E-27
8.88573E-01 1.28038E-27
8.91304E-01 1.24166E-27
8.94005E-01 1.20380E-27
8.96677E-01 1.16678E-27
8.99318E-01 1.13060E-27
9.01928E-01 1.09524E-27
9.04508E-01 1.06067E-27
9.07058E-01 1.02688E-27
9.09576E-01 9.93868E-28
9.12063E-01 9.61604E-28
9.14519E-01 9.30079E-28
9.16943E-01 8.99278E-28
9.19335E-01 8.69187E-28
9.21696E-01 8.39794E-28
9.24024E-01 8.11086E-28
9.26320E-01 7.83049E-28
9.28584E-01 7.55671E-28
9.30815E-01 7.28942E-28
9.33013E-01 7.02848E-28
9.35178E-01 6.77379E-28
9.37310E-01 6.52524E-28
9.39409E-01 6.28272E-28
9.41474E-01 6.04612E-28
9.43505E-01 5.81536E-28
9.45503E-01 5.59032E-28
9.47467E-01 5.37091E-28
9.49397E-01 5.15704E-28
9.51293E-01 4.94862E-28
9.53154E-01 4.74557E-28
9.54981E-01 4.54780E-28
9.56773E-01 4.35521E-28
9.58530E-01 4.16775E-28
9.60252E-01 3.98532E-28
9.61940E-01 3.80786E-28
9.63592E-01 3.63529E-28
9.65209E-01 3.46753E-28
9.66790E-01 3.30453E-28
9.68336E-01 3.14620E-28
9.69846E-01 2.99250E-28
9.71321E-01 2.84336E-28
9.72759E-01 2.69871E-28
9.74162E-01 2.55849E-28
9.75528E-01 2.42266E-28
9.76858E-01 2.29116E-28
9.78152E-01 2.16393E-28
9.79410E-01 2.04092E-28
9.80631E-01 1.92209E-28
9.81815E-01 1.80738E-28
9.82963E-01 1.69675E-28
9.84074E-01 1.59016E-28
9.85148E-01 1.48756E-28
9.86185E-01 1.38892E-28
9.87185E-01 1.29419E-28
9.88148E-01 1.20334E-28
9.89074E-01 1.11633E-28
9.89962E-01 1.03313E-28
9.90814E-01 9.53705E-29
9.91627E-01 8.78023E-29
9.92404E-01 8.06054E-29
9.93143E-01 7.37771E-29
9.93844E-01 6.73148E-29
9.94508E-01 6.12158E-29
9.95134E-01 5.54779E-29
9.95722E-01 5.00988E-29
9.96273E-01 4.50764E-29
9.96786E-01 4.04088E-29
9.97261E-01 3.60942E-29
9.97698E-01 3.21308E-29
9.98097E-01 2.85172E-29
9.98459E-01 2.52519E-29
9.98782E-01 2.23337E-29
9.99067E-01 1.97615E-29
9.99315E-01 1.75342E-29
9.99524E-01 1.56511E-29
9.99695E-01 1.41113E-29
9.99829E-01 1.29143E-29
9.99924E-01 1.20597E-29
9.99981E-01 1.15470E-29
1.00000E+00 1.13763E-29
