 #
 # Subroutine ELSEPA. Elastic scattering of electrons and positrons
 #                    by neutral atoms and positive ions
 #
 # Projectile: electron
 # Kinetic energy = 5.00000E+06 eV = 1.83747E+05 a.u.
 #
 # WARNING: High-energy factorization with free-atom DF screening.
 #          Absorption, polarization and exchange corrections are
 #          switched off.
 #          Phase shifts are calculated for the bare nucleus.
 #          Scattering amplitudes are not evaluated.
 #
 # Element:  S,  Z =  16,  atomic weight = 3.20660E+01 g/mol
 #
 # Nuclear model: Fermi distribution
 #                Average radius = 3.39937E-13 cm
 #                Skin thickness = 5.46000E-14 cm
 #
 # Number of electrons = 16
 #
 # Total elastic cross section = 1.05545E-18 cm**2 = 3.76907E-02 a0**2
 # 1st transport cross section = 1.34146E-23 cm**2 = 4.79044E-07 a0**2
 # 2nd transport cross section = 3.83128E-23 cm**2 = 1.36818E-06 a0**2
 #
 #
 # Differential cross section:                       MU=(1-COS(THETA))/2
 #
 #  THETA        MU          DCS          DCS        Sherman      error
 #  (deg)                 (cm**2/sr)   (a0**2/sr)    function
 #----------------------------------------------------------------------
0.00000E+00 3.09402E-13
7.61557E-13 3.09400E-13
1.18994E-12 3.09399E-13
1.71346E-12 3.09397E-13
2.33225E-12 3.09396E-13
3.04617E-12 3.09394E-13
3.85530E-12 3.09393E-13
4.75964E-12 3.09391E-13
5.75917E-12 3.09388E-13
6.85391E-12 3.09386E-13
8.04379E-12 3.09383E-13
9.32893E-12 3.09380E-13
1.07092E-11 3.09377E-13
1.21847E-11 3.09374E-13
1.37554E-11 3.09370E-13
1.54213E-11 3.09367E-13
1.71823E-11 3.09363E-13
1.90386E-11 3.09359E-13
2.09900E-11 3.09354E-13
2.30367E-11 3.09350E-13
2.51785E-11 3.09345E-13
2.74156E-11 3.09340E-13
2.97478E-11 3.09335E-13
3.21752E-11 3.09329E-13
3.46979E-11 3.09324E-13
3.73157E-11 3.09318E-13
4.00286E-11 3.09312E-13
4.28368E-11 3.09306E-13
4.57402E-11 3.09299E-13
4.87388E-11 3.09293E-13
5.18325E-11 3.09286E-13
5.50215E-11 3.09279E-13
5.83057E-11 3.09272E-13
6.16850E-11 3.09264E-13
6.51595E-11 3.09257E-13
6.87293E-11 3.09249E-13
7.23943E-11 3.09241E-13
7.61544E-11 3.09232E-13
1.18991E-10 3.09138E-13
1.71347E-10 3.09023E-13
2.33223E-10 3.08887E-13
3.04617E-10 3.08730E-13
3.85531E-10 3.08553E-13
4.75965E-10 3.08355E-13
5.75917E-10 3.08137E-13
6.85389E-10 3.07898E-13
8.04380E-10 3.07638E-13
9.32891E-10 3.07358E-13
1.07092E-09 3.07058E-13
1.21847E-09 3.06738E-13
1.37554E-09 3.06398E-13
1.54213E-09 3.06038E-13
1.71823E-09 3.05657E-13
1.90386E-09 3.05257E-13
2.09900E-09 3.04837E-13
2.30367E-09 3.04397E-13
2.51785E-09 3.03939E-13
2.74156E-09 3.03460E-13
2.97478E-09 3.02963E-13
3.21752E-09 3.02447E-13
3.46978E-09 3.01911E-13
3.73156E-09 3.01357E-13
4.00286E-09 3.00784E-13
4.28368E-09 3.00193E-13
4.57402E-09 2.99584E-13
4.87388E-09 2.98955E-13
5.18326E-09 2.98310E-13
5.50215E-09 2.97647E-13
5.83057E-09 2.96964E-13
6.16850E-09 2.96267E-13
6.51596E-09 2.95550E-13
6.87293E-09 2.94817E-13
7.23942E-09 2.94069E-13
7.61544E-09 2.93300E-13
1.18991E-08 2.84761E-13
1.71347E-08 2.74792E-13
2.33223E-08 2.63630E-13
3.04617E-08 2.51520E-13
3.85531E-08 2.38717E-13
4.75965E-08 2.25463E-13
5.75917E-08 2.11455E-13
6.85389E-08 1.97843E-13
8.04380E-08 1.85109E-13
9.32891E-08 1.71502E-13
1.07092E-07 1.59115E-13
1.21847E-07 1.47125E-13
1.37554E-07 1.35461E-13
1.54213E-07 1.25009E-13
1.71823E-07 1.14585E-13
1.90386E-07 1.05144E-13
2.09900E-07 9.64952E-14
2.30367E-07 8.81846E-14
2.51785E-07 8.08136E-14
2.74156E-07 7.38622E-14
2.97478E-07 6.75186E-14
3.21752E-07 6.18546E-14
3.46978E-07 5.64790E-14
3.73156E-07 5.17061E-14
4.00286E-07 4.73386E-14
4.28368E-07 4.33355E-14
4.57402E-07 3.97682E-14
4.87388E-07 3.64520E-14
5.18325E-07 3.34766E-14
5.50215E-07 3.07855E-14
5.83057E-07 2.83156E-14
6.16850E-07 2.60988E-14
6.51596E-07 2.40689E-14
6.87293E-07 2.22279E-14
7.23942E-07 2.05635E-14
7.61543E-07 1.90354E-14
1.18991E-06 9.50902E-15
1.71347E-06 5.38658E-15
2.33223E-06 3.36462E-15
3.04617E-06 2.24922E-15
3.85531E-06 1.57430E-15
4.75964E-06 1.13723E-15
5.75916E-06 8.38790E-16
6.85388E-06 6.31279E-16
8.04378E-06 4.82239E-16
9.32888E-06 3.73243E-16
1.07092E-05 2.92349E-16
1.21846E-05 2.31546E-16
1.37553E-05 1.85319E-16
1.54212E-05 1.49796E-16
1.71822E-05 1.22222E-16
1.90385E-05 1.00611E-16
2.09899E-05 8.35174E-17
2.30365E-05 6.98732E-17
2.51783E-05 5.88897E-17
2.74153E-05 4.99770E-17
2.97475E-05 4.26889E-17
3.21749E-05 3.66859E-17
3.46974E-05 3.17070E-17
3.73152E-05 2.75499E-17
4.00281E-05 2.40570E-17
4.28362E-05 2.11047E-17
4.57395E-05 1.85953E-17
4.87380E-05 1.64510E-17
5.18317E-05 1.46098E-17
5.50205E-05 1.30212E-17
5.83045E-05 1.16447E-17
6.16838E-05 1.04469E-17
6.51582E-05 9.40046E-18
6.87277E-05 8.48287E-18
7.23925E-05 7.67535E-18
7.61524E-05 6.96229E-18
9.21439E-05 4.82240E-18
1.09658E-04 3.44721E-18
1.28695E-04 2.52973E-18
1.49255E-04 1.89820E-18
1.71338E-04 1.45185E-18
1.94942E-04 1.12911E-18
2.20070E-04 8.91101E-19
2.46720E-04 7.12487E-19
2.74892E-04 5.76359E-19
3.04586E-04 4.71166E-19
3.35803E-04 3.88853E-19
3.68542E-04 3.23715E-19
4.02802E-04 2.71630E-19
4.38585E-04 2.29591E-19
4.75889E-04 1.95363E-19
5.14715E-04 1.67270E-19
5.55063E-04 1.44042E-19
5.96931E-04 1.24705E-19
6.40321E-04 1.08502E-19
6.85233E-04 9.48439E-20
7.31665E-04 8.32671E-20
7.79618E-04 7.34021E-20
8.29092E-04 6.49550E-20
8.80086E-04 5.76878E-20
9.32601E-04 5.14088E-20
9.86636E-04 4.59609E-20
1.04219E-03 4.12158E-20
1.09927E-03 3.70674E-20
1.15786E-03 3.34281E-20
1.21797E-03 3.02246E-20
1.27961E-03 2.73959E-20
1.34276E-03 2.48906E-20
1.40743E-03 2.26653E-20
1.47362E-03 2.06833E-20
1.54133E-03 1.89134E-20
1.61056E-03 1.73289E-20
1.68131E-03 1.59070E-20
1.75357E-03 1.46281E-20
1.82735E-03 1.34752E-20
1.90265E-03 1.24338E-20
1.97947E-03 1.14912E-20
2.05780E-03 1.06362E-20
2.13765E-03 9.85943E-21
2.21902E-03 9.15233E-21
2.30190E-03 8.50755E-21
2.38630E-03 7.91862E-21
2.47222E-03 7.37984E-21
2.55965E-03 6.88615E-21
2.64859E-03 6.43311E-21
2.73905E-03 6.01676E-21
2.83103E-03 5.63359E-21
2.92452E-03 5.28048E-21
3.01952E-03 4.95464E-21
3.11604E-03 4.65358E-21
3.21407E-03 4.37507E-21
3.31362E-03 4.11712E-21
3.41468E-03 3.87793E-21
3.51725E-03 3.65588E-21
3.62133E-03 3.44951E-21
3.72692E-03 3.25753E-21
3.83403E-03 3.07874E-21
3.94265E-03 2.91206E-21
4.05278E-03 2.75653E-21
4.16442E-03 2.61126E-21
4.27757E-03 2.47545E-21
4.39223E-03 2.34837E-21
4.50840E-03 2.22935E-21
4.62608E-03 2.11779E-21
4.74527E-03 2.01313E-21
4.86597E-03 1.91487E-21
4.98817E-03 1.82253E-21
5.11188E-03 1.73571E-21
5.23711E-03 1.65398E-21
5.36383E-03 1.57702E-21
5.49207E-03 1.50450E-21
5.62181E-03 1.43610E-21
5.75306E-03 1.37155E-21
5.88581E-03 1.31059E-21
6.02007E-03 1.25299E-21
6.15583E-03 1.19853E-21
6.29310E-03 1.14699E-21
6.43187E-03 1.09821E-21
6.57214E-03 1.05199E-21
6.71392E-03 1.00818E-21
6.85720E-03 9.66640E-22
7.00198E-03 9.27217E-22
7.14827E-03 8.89787E-22
7.29605E-03 8.54231E-22
7.44534E-03 8.20436E-22
7.59612E-03 7.88299E-22
7.97965E-03 7.14592E-22
8.37255E-03 6.49317E-22
8.77480E-03 5.91340E-22
9.18641E-03 5.39704E-22
9.60736E-03 4.93593E-22
1.00376E-02 4.52313E-22
1.04773E-02 4.15266E-22
1.09262E-02 3.81943E-22
1.13844E-02 3.51903E-22
1.18520E-02 3.24764E-22
1.23288E-02 3.00196E-22
1.28150E-02 2.77913E-22
1.33104E-02 2.57663E-22
1.38150E-02 2.39228E-22
1.43290E-02 2.22415E-22
1.48521E-02 2.07057E-22
1.53845E-02 1.93004E-22
1.59262E-02 1.80126E-22
1.64770E-02 1.68305E-22
1.70371E-02 1.57441E-22
1.76063E-02 1.47441E-22
1.81848E-02 1.38223E-22
1.87724E-02 1.29717E-22
1.93692E-02 1.21855E-22
1.99751E-02 1.14582E-22
2.05901E-02 1.07844E-22
2.12143E-02 1.01595E-22
2.18476E-02 9.57924E-23
2.24900E-02 9.03993E-23
2.31415E-02 8.53810E-23
2.38021E-02 8.07067E-23
2.44717E-02 7.63484E-23
2.51504E-02 7.22809E-23
2.58382E-02 6.84810E-23
2.65349E-02 6.49279E-23
2.72407E-02 6.16027E-23
2.79555E-02 5.84879E-23
2.86793E-02 5.55677E-23
2.94120E-02 5.28278E-23
3.01537E-02 5.02549E-23
3.09043E-02 4.78369E-23
3.16639E-02 4.55628E-23
3.24324E-02 4.34223E-23
3.32098E-02 4.14062E-23
3.39961E-02 3.95059E-23
3.47912E-02 3.77135E-23
3.55952E-02 3.60216E-23
3.64081E-02 3.44237E-23
3.72297E-02 3.29134E-23
3.80602E-02 3.14851E-23
3.88995E-02 3.01336E-23
3.97476E-02 2.88537E-23
4.06044E-02 2.76412E-23
4.14700E-02 2.64917E-23
4.23443E-02 2.54014E-23
4.32273E-02 2.43666E-23
4.41190E-02 2.33839E-23
4.50194E-02 2.24503E-23
4.59284E-02 2.15629E-23
4.68461E-02 2.07188E-23
4.87074E-02 1.91511E-23
5.06030E-02 1.77287E-23
5.25328E-02 1.64360E-23
5.44967E-02 1.52589E-23
5.64946E-02 1.41852E-23
5.85262E-02 1.32042E-23
6.05914E-02 1.23064E-23
6.26901E-02 1.14836E-23
6.48222E-02 1.07283E-23
6.69873E-02 1.00339E-23
6.91854E-02 9.39474E-24
7.14163E-02 8.80553E-24
7.36799E-02 8.26167E-24
7.59760E-02 7.75904E-24
7.83043E-02 7.29394E-24
8.06647E-02 6.86305E-24
8.30571E-02 6.46340E-24
8.54812E-02 6.09231E-24
8.79369E-02 5.74736E-24
9.04240E-02 5.42637E-24
9.29422E-02 5.12737E-24
9.54915E-02 4.84858E-24
9.80716E-02 4.58838E-24
1.00682E-01 4.34530E-24
1.03323E-01 4.11800E-24
1.05995E-01 3.90529E-24
1.08696E-01 3.70603E-24
1.11427E-01 3.51923E-24
1.14188E-01 3.34397E-24
1.16978E-01 3.17940E-24
1.19797E-01 3.02474E-24
1.22645E-01 2.87929E-24
1.25522E-01 2.74240E-24
1.28428E-01 2.61347E-24
1.31361E-01 2.49196E-24
1.34323E-01 2.37735E-24
1.37313E-01 2.26918E-24
1.40330E-01 2.16703E-24
1.43375E-01 2.07050E-24
1.46447E-01 1.97921E-24
1.49545E-01 1.89284E-24
1.52671E-01 1.81107E-24
1.55823E-01 1.73361E-24
1.59001E-01 1.66018E-24
1.62205E-01 1.59054E-24
1.65435E-01 1.52447E-24
1.68690E-01 1.46173E-24
1.71970E-01 1.40214E-24
1.75276E-01 1.34550E-24
1.78606E-01 1.29165E-24
1.81961E-01 1.24041E-24
1.85340E-01 1.19164E-24
1.88743E-01 1.14520E-24
1.92169E-01 1.10096E-24
1.95619E-01 1.05879E-24
1.99092E-01 1.01857E-24
2.02589E-01 9.80212E-25
2.06107E-01 9.43598E-25
2.09649E-01 9.08640E-25
2.13212E-01 8.75248E-25
2.16797E-01 8.43338E-25
2.20404E-01 8.12834E-25
2.24032E-01 7.83661E-25
2.27680E-01 7.55752E-25
2.31350E-01 7.29040E-25
2.35040E-01 7.03466E-25
2.38751E-01 6.78972E-25
2.42481E-01 6.55503E-25
2.46231E-01 6.33010E-25
2.50000E-01 6.11444E-25
2.53788E-01 5.90759E-25
2.57595E-01 5.70914E-25
2.61421E-01 5.51868E-25
2.65264E-01 5.33582E-25
2.69126E-01 5.16022E-25
2.73005E-01 4.99152E-25
2.76901E-01 4.82941E-25
2.80814E-01 4.67359E-25
2.84744E-01 4.52376E-25
2.88691E-01 4.37965E-25
2.92653E-01 4.24100E-25
2.96632E-01 4.10758E-25
3.00625E-01 3.97914E-25
3.04634E-01 3.85547E-25
3.08658E-01 3.73636E-25
3.12697E-01 3.62160E-25
3.16749E-01 3.51102E-25
3.20816E-01 3.40443E-25
3.24896E-01 3.30166E-25
3.28990E-01 3.20255E-25
3.33097E-01 3.10694E-25
3.37216E-01 3.01470E-25
3.41348E-01 2.92568E-25
3.45492E-01 2.83974E-25
3.49647E-01 2.75677E-25
3.53814E-01 2.67664E-25
3.57992E-01 2.59923E-25
3.62181E-01 2.52444E-25
3.66381E-01 2.45217E-25
3.70590E-01 2.38230E-25
3.74810E-01 2.31476E-25
3.79039E-01 2.24944E-25
3.83277E-01 2.18627E-25
3.87524E-01 2.12515E-25
3.91780E-01 2.06601E-25
3.96044E-01 2.00878E-25
4.00316E-01 1.95338E-25
4.04596E-01 1.89974E-25
4.08882E-01 1.84780E-25
4.13176E-01 1.79750E-25
4.17476E-01 1.74877E-25
4.21783E-01 1.70155E-25
4.26095E-01 1.65579E-25
4.30413E-01 1.61144E-25
4.34737E-01 1.56845E-25
4.39065E-01 1.52677E-25
4.43398E-01 1.48634E-25
4.47736E-01 1.44714E-25
4.52077E-01 1.40910E-25
4.56422E-01 1.37220E-25
4.60770E-01 1.33640E-25
4.65122E-01 1.30164E-25
4.69476E-01 1.26791E-25
4.73832E-01 1.23516E-25
4.78190E-01 1.20336E-25
4.82550E-01 1.17247E-25
4.86912E-01 1.14248E-25
4.91274E-01 1.11334E-25
4.95637E-01 1.08503E-25
5.00000E-01 1.05752E-25
5.04363E-01 1.03078E-25
5.08726E-01 1.00479E-25
5.13088E-01 9.79531E-26
5.17450E-01 9.54970E-26
5.21810E-01 9.31088E-26
5.26168E-01 9.07861E-26
5.30524E-01 8.85270E-26
5.34878E-01 8.63295E-26
5.39230E-01 8.41915E-26
5.43578E-01 8.21112E-26
5.47923E-01 8.00868E-26
5.52264E-01 7.81165E-26
5.56602E-01 7.61987E-26
5.60935E-01 7.43317E-26
5.65263E-01 7.25140E-26
5.69587E-01 7.07440E-26
5.73905E-01 6.90204E-26
5.78217E-01 6.73417E-26
5.82524E-01 6.57065E-26
5.86824E-01 6.41136E-26
5.91118E-01 6.25616E-26
5.95404E-01 6.10494E-26
5.99684E-01 5.95758E-26
6.03956E-01 5.81397E-26
6.08220E-01 5.67399E-26
6.12476E-01 5.53754E-26
6.16723E-01 5.40452E-26
6.20961E-01 5.27483E-26
6.25190E-01 5.14837E-26
6.29410E-01 5.02504E-26
6.33619E-01 4.90477E-26
6.37819E-01 4.78746E-26
6.42008E-01 4.67304E-26
6.46186E-01 4.56141E-26
6.50353E-01 4.45250E-26
6.54508E-01 4.34624E-26
6.58652E-01 4.24254E-26
6.62784E-01 4.14135E-26
6.66903E-01 4.04259E-26
6.71010E-01 3.94620E-26
6.75104E-01 3.85211E-26
6.79184E-01 3.76025E-26
6.83251E-01 3.67058E-26
6.87303E-01 3.58302E-26
6.91342E-01 3.49753E-26
6.95366E-01 3.41404E-26
6.99375E-01 3.33251E-26
7.03368E-01 3.25289E-26
7.07347E-01 3.17511E-26
7.11309E-01 3.09914E-26
7.15256E-01 3.02493E-26
7.19186E-01 2.95243E-26
7.23099E-01 2.88160E-26
7.26995E-01 2.81239E-26
7.30874E-01 2.74477E-26
7.34736E-01 2.67869E-26
7.38579E-01 2.61411E-26
7.42405E-01 2.55100E-26
7.46212E-01 2.48932E-26
7.50000E-01 2.42903E-26
7.53769E-01 2.37010E-26
7.57519E-01 2.31250E-26
7.61249E-01 2.25619E-26
7.64960E-01 2.20114E-26
7.68650E-01 2.14731E-26
7.72320E-01 2.09469E-26
7.75968E-01 2.04324E-26
7.79596E-01 1.99293E-26
7.83203E-01 1.94373E-26
7.86788E-01 1.89563E-26
7.90351E-01 1.84858E-26
7.93893E-01 1.80257E-26
7.97411E-01 1.75758E-26
8.00908E-01 1.71357E-26
8.04381E-01 1.67053E-26
8.07831E-01 1.62843E-26
8.11257E-01 1.58725E-26
8.14660E-01 1.54698E-26
8.18039E-01 1.50758E-26
8.21394E-01 1.46904E-26
8.24724E-01 1.43134E-26
8.28030E-01 1.39447E-26
8.31310E-01 1.35839E-26
8.34565E-01 1.32310E-26
8.37795E-01 1.28858E-26
8.40999E-01 1.25480E-26
8.44177E-01 1.22176E-26
8.47329E-01 1.18944E-26
8.50455E-01 1.15782E-26
8.53553E-01 1.12689E-26
8.56625E-01 1.09663E-26
8.59670E-01 1.06702E-26
8.62687E-01 1.03806E-26
8.65677E-01 1.00973E-26
8.68639E-01 9.82014E-27
8.71572E-01 9.54902E-27
8.74478E-01 9.28382E-27
8.77355E-01 9.02440E-27
8.80203E-01 8.77065E-27
8.83022E-01 8.52245E-27
8.85812E-01 8.27970E-27
8.88573E-01 8.04227E-27
8.91304E-01 7.81007E-27
8.94005E-01 7.58299E-27
8.96677E-01 7.36093E-27
8.99318E-01 7.14378E-27
9.01928E-01 6.93146E-27
9.04508E-01 6.72387E-27
9.07058E-01 6.52092E-27
9.09576E-01 6.32253E-27
9.12063E-01 6.12859E-27
9.14519E-01 5.93904E-27
9.16943E-01 5.75379E-27
9.19335E-01 5.57276E-27
9.21696E-01 5.39588E-27
9.24024E-01 5.22306E-27
9.26320E-01 5.05424E-27
9.28584E-01 4.88935E-27
9.30815E-01 4.72831E-27
9.33013E-01 4.57105E-27
9.35178E-01 4.41752E-27
9.37310E-01 4.26765E-27
9.39409E-01 4.12138E-27
9.41474E-01 3.97864E-27
9.43505E-01 3.83938E-27
9.45503E-01 3.70355E-27
9.47467E-01 3.57108E-27
9.49397E-01 3.44192E-27
9.51293E-01 3.31602E-27
9.53154E-01 3.19334E-27
9.54981E-01 3.07381E-27
9.56773E-01 2.95739E-27
9.58530E-01 2.84404E-27
9.60252E-01 2.73372E-27
9.61940E-01 2.62637E-27
9.63592E-01 2.52195E-27
9.65209E-01 2.42043E-27
9.66790E-01 2.32176E-27
9.68336E-01 2.22591E-27
9.69846E-01 2.13283E-27
9.71321E-01 2.04249E-27
9.72759E-01 1.95486E-27
9.74162E-01 1.86991E-27
9.75528E-01 1.78759E-27
9.76858E-01 1.70788E-27
9.78152E-01 1.63074E-27
9.79410E-01 1.55616E-27
9.80631E-01 1.48409E-27
9.81815E-01 1.41451E-27
9.82963E-01 1.34740E-27
9.84074E-01 1.28273E-27
9.85148E-01 1.22047E-27
9.86185E-01 1.16060E-27
9.87185E-01 1.10309E-27
9.88148E-01 1.04794E-27
9.89074E-01 9.95108E-28
9.89962E-01 9.44584E-28
9.90814E-01 8.96345E-28
9.91627E-01 8.50375E-28
9.92404E-01 8.06656E-28
9.93143E-01 7.65172E-28
9.93844E-01 7.25907E-28
9.94508E-01 6.88847E-28
9.95134E-01 6.53977E-28
9.95722E-01 6.21285E-28
9.96273E-01 5.90758E-28
9.96786E-01 5.62386E-28
9.97261E-01 5.36157E-28
9.97698E-01 5.12062E-28
9.98097E-01 4.90092E-28
9.98459E-01 4.70239E-28
9.98782E-01 4.52495E-28
9.99067E-01 4.36855E-28
9.99315E-01 4.23311E-28
9.99524E-01 4.11860E-28
9.99695E-01 4.02496E-28
9.99829E-01 3.95217E-28
9.99924E-01 3.90019E-28
9.99981E-01 3.86901E-28
1.00000E+00 3.85864E-28
