 #
 # Subroutine ELSEPA. Elastic scattering of electrons and positrons
 #                    by neutral atoms and positive ions
 #
 # Projectile: electron
 # Kinetic energy = 1.75000E+07 eV = 6.43113E+05 a.u.
 #
 # WARNING: High-energy factorization with free-atom DF screening.
 #          Absorption, polarization and exchange corrections are
 #          switched off.
 #          Phase shifts are calculated for the bare nucleus.
 #          Scattering amplitudes are not evaluated.
 #
 # Element:  S,  Z =  16,  atomic weight = 3.20660E+01 g/mol
 #
 # Nuclear model: Fermi distribution
 #                Average radius = 3.39937E-13 cm
 #                Skin thickness = 5.46000E-14 cm
 #
 # Number of electrons = 16
 #
 # Total elastic cross section = 1.04529E-18 cm**2 = 3.73278E-02 a0**2
 # 1st transport cross section = 1.47207E-24 cm**2 = 5.25684E-08 a0**2
 # 2nd transport cross section = 4.24780E-24 cm**2 = 1.51692E-07 a0**2
 #
 #
 # Differential cross section:                       MU=(1-COS(THETA))/2
 #
 #  THETA        MU          DCS          DCS        Sherman      error
 #  (deg)                 (cm**2/sr)   (a0**2/sr)    function
 #----------------------------------------------------------------------
0.00000E+00 3.30474E-12
7.61557E-13 3.30454E-12
1.18994E-12 3.30443E-12
1.71346E-12 3.30429E-12
2.33225E-12 3.30413E-12
3.04617E-12 3.30395E-12
3.85530E-12 3.30375E-12
4.75964E-12 3.30352E-12
5.75917E-12 3.30326E-12
6.85391E-12 3.30298E-12
8.04379E-12 3.30268E-12
9.32893E-12 3.30235E-12
1.07092E-11 3.30200E-12
1.21847E-11 3.30163E-12
1.37554E-11 3.30123E-12
1.54213E-11 3.30081E-12
1.71823E-11 3.30036E-12
1.90386E-11 3.29990E-12
2.09900E-11 3.29940E-12
2.30367E-11 3.29889E-12
2.51785E-11 3.29834E-12
2.74156E-11 3.29778E-12
2.97478E-11 3.29719E-12
3.21752E-11 3.29658E-12
3.46979E-11 3.29594E-12
3.73157E-11 3.29528E-12
4.00286E-11 3.29460E-12
4.28368E-11 3.29389E-12
4.57402E-11 3.29316E-12
4.87388E-11 3.29241E-12
5.18325E-11 3.29163E-12
5.50215E-11 3.29083E-12
5.83057E-11 3.29000E-12
6.16850E-11 3.28915E-12
6.51595E-11 3.28828E-12
6.87293E-11 3.28739E-12
7.23943E-11 3.28647E-12
7.61544E-11 3.28553E-12
1.18991E-10 3.27482E-12
1.71347E-10 3.26180E-12
2.33223E-10 3.24652E-12
3.04617E-10 3.22901E-12
3.85531E-10 3.20933E-12
4.75965E-10 3.18754E-12
5.75917E-10 3.16370E-12
6.85389E-10 3.13787E-12
8.04380E-10 3.11012E-12
9.32891E-10 3.08055E-12
1.07092E-09 3.04925E-12
1.21847E-09 3.01623E-12
1.37554E-09 2.98164E-12
1.54213E-09 2.94559E-12
1.71823E-09 2.90814E-12
1.90386E-09 2.86934E-12
2.09900E-09 2.82934E-12
2.30367E-09 2.78827E-12
2.51785E-09 2.74615E-12
2.74156E-09 2.70306E-12
2.97478E-09 2.65918E-12
3.21752E-09 2.61460E-12
3.46978E-09 2.56931E-12
3.73156E-09 2.52346E-12
4.00286E-09 2.47718E-12
4.28368E-09 2.43057E-12
4.57402E-09 2.38355E-12
4.87388E-09 2.33488E-12
5.18326E-09 2.28453E-12
5.50215E-09 2.23519E-12
5.83057E-09 2.18688E-12
6.16850E-09 2.13966E-12
6.51596E-09 2.09354E-12
6.87293E-09 2.04854E-12
7.23942E-09 2.00469E-12
7.61544E-09 1.95828E-12
1.18991E-08 1.51922E-12
1.71347E-08 1.15332E-12
2.33223E-08 8.65517E-13
3.04617E-08 6.45691E-13
3.85531E-08 4.82311E-13
4.75965E-08 3.63269E-13
5.75917E-08 2.76676E-13
6.85389E-08 2.13329E-13
8.04380E-08 1.66863E-13
9.32891E-08 1.32474E-13
1.07092E-07 1.06714E-13
1.21847E-07 8.71573E-14
1.37554E-07 7.21186E-14
1.54213E-07 6.03964E-14
1.71823E-07 5.11321E-14
1.90386E-07 4.37074E-14
2.09900E-07 3.76841E-14
2.30367E-07 3.27395E-14
2.51785E-07 2.86322E-14
2.74156E-07 2.51847E-14
2.97478E-07 2.22682E-14
3.21752E-07 1.97805E-14
3.46978E-07 1.76382E-14
3.73156E-07 1.57832E-14
4.00286E-07 1.41689E-14
4.28368E-07 1.27568E-14
4.57402E-07 1.15119E-14
4.87388E-07 1.04040E-14
5.18325E-07 9.41987E-15
5.50215E-07 8.56195E-15
5.83057E-07 7.80009E-15
6.16850E-07 7.10110E-15
6.51596E-07 6.48585E-15
6.87293E-07 5.93988E-15
7.23942E-07 5.43317E-15
7.61543E-07 4.98347E-15
1.18991E-06 2.25565E-15
1.71347E-06 1.14031E-15
2.33223E-06 6.31698E-16
3.04617E-06 3.77201E-16
3.85531E-06 2.39241E-16
4.75964E-06 1.59280E-16
5.75916E-06 1.10293E-16
6.85388E-06 7.88736E-17
8.04378E-06 5.79351E-17
9.32888E-06 4.35284E-17
1.07092E-05 3.33430E-17
1.21846E-05 2.59725E-17
1.37553E-05 2.05302E-17
1.54212E-05 1.64401E-17
1.71822E-05 1.33179E-17
1.90385E-05 1.09014E-17
2.09899E-05 9.00786E-18
2.30365E-05 7.50687E-18
2.51783E-05 6.30489E-18
2.74153E-05 5.33338E-18
2.97475E-05 4.54141E-18
3.21749E-05 3.89076E-18
3.46974E-05 3.35230E-18
3.73152E-05 2.90363E-18
4.00281E-05 2.52740E-18
4.28362E-05 2.21003E-18
4.57395E-05 1.94081E-18
4.87380E-05 1.71125E-18
5.18317E-05 1.51459E-18
5.50205E-05 1.34532E-18
5.83045E-05 1.19900E-18
6.16838E-05 1.07203E-18
6.51582E-05 9.61402E-19
6.87277E-05 8.64665E-19
7.23925E-05 7.79779E-19
7.61524E-05 7.05041E-19
9.21439E-05 4.82365E-19
1.09658E-04 3.41014E-19
1.28695E-04 2.47830E-19
1.49255E-04 1.84399E-19
1.71338E-04 1.40023E-19
1.94942E-04 1.08227E-19
2.20070E-04 8.49658E-20
2.46720E-04 6.76321E-20
2.74892E-04 5.45025E-20
3.04586E-04 4.44107E-20
3.35803E-04 3.65508E-20
3.68542E-04 3.03560E-20
4.02802E-04 2.54202E-20
4.38585E-04 2.14484E-20
4.75889E-04 1.82232E-20
5.14715E-04 1.55819E-20
5.55063E-04 1.34026E-20
5.96931E-04 1.15915E-20
6.40321E-04 1.00765E-20
6.85233E-04 8.80122E-21
7.31665E-04 7.72161E-21
7.79618E-04 6.80271E-21
8.29092E-04 6.01661E-21
8.80086E-04 5.34095E-21
9.32601E-04 4.75759E-21
9.86636E-04 4.25182E-21
1.04219E-03 3.81156E-21
1.09927E-03 3.42688E-21
1.15786E-03 3.08957E-21
1.21797E-03 2.79280E-21
1.27961E-03 2.53086E-21
1.34276E-03 2.29894E-21
1.40743E-03 2.09302E-21
1.47362E-03 1.90967E-21
1.54133E-03 1.74598E-21
1.61056E-03 1.59948E-21
1.68131E-03 1.46805E-21
1.75357E-03 1.34985E-21
1.82735E-03 1.24333E-21
1.90265E-03 1.14712E-21
1.97947E-03 1.06005E-21
2.05780E-03 9.81100E-22
2.13765E-03 9.09370E-22
2.21902E-03 8.44085E-22
2.30190E-03 7.84562E-22
2.38630E-03 7.30201E-22
2.47222E-03 6.80473E-22
2.55965E-03 6.34913E-22
2.64859E-03 5.93107E-22
2.73905E-03 5.54690E-22
2.83103E-03 5.19338E-22
2.92452E-03 4.86762E-22
3.01952E-03 4.56704E-22
3.11604E-03 4.28933E-22
3.21407E-03 4.03244E-22
3.31362E-03 3.79453E-22
3.41468E-03 3.57393E-22
3.51725E-03 3.36915E-22
3.62133E-03 3.17885E-22
3.72692E-03 3.00182E-22
3.83403E-03 2.83696E-22
3.94265E-03 2.68327E-22
4.05278E-03 2.53987E-22
4.16442E-03 2.40594E-22
4.27757E-03 2.28073E-22
4.39223E-03 2.16358E-22
4.50840E-03 2.05386E-22
4.62608E-03 1.95102E-22
4.74527E-03 1.85454E-22
4.86597E-03 1.76397E-22
4.98817E-03 1.67887E-22
5.11188E-03 1.59884E-22
5.23711E-03 1.52353E-22
5.36383E-03 1.45262E-22
5.49207E-03 1.38578E-22
5.62181E-03 1.32276E-22
5.75306E-03 1.26328E-22
5.88581E-03 1.20711E-22
6.02007E-03 1.15403E-22
6.15583E-03 1.10385E-22
6.29310E-03 1.05636E-22
6.43187E-03 1.01141E-22
6.57214E-03 9.68827E-23
6.71392E-03 9.28465E-23
6.85720E-03 8.90186E-23
7.00198E-03 8.53863E-23
7.14827E-03 8.19376E-23
7.29605E-03 7.86616E-23
7.44534E-03 7.55480E-23
7.59612E-03 7.25871E-23
7.97965E-03 6.57963E-23
8.37255E-03 5.97826E-23
8.77480E-03 5.44414E-23
9.18641E-03 4.96845E-23
9.60736E-03 4.54368E-23
1.00376E-02 4.16340E-23
1.04773E-02 3.82215E-23
1.09262E-02 3.51521E-23
1.13844E-02 3.23851E-23
1.18520E-02 2.98854E-23
1.23288E-02 2.76227E-23
1.28150E-02 2.55704E-23
1.33104E-02 2.37055E-23
1.38150E-02 2.20077E-23
1.43290E-02 2.04595E-23
1.48521E-02 1.90452E-23
1.53845E-02 1.77512E-23
1.59262E-02 1.65653E-23
1.64770E-02 1.54770E-23
1.70371E-02 1.44767E-23
1.76063E-02 1.35560E-23
1.81848E-02 1.27074E-23
1.87724E-02 1.19243E-23
1.93692E-02 1.12006E-23
1.99751E-02 1.05311E-23
2.05901E-02 9.91087E-24
2.12143E-02 9.33569E-24
2.18476E-02 8.80167E-24
2.24900E-02 8.30532E-24
2.31415E-02 7.84349E-24
2.38021E-02 7.41334E-24
2.44717E-02 7.01229E-24
2.51504E-02 6.63801E-24
2.58382E-02 6.28839E-24
2.65349E-02 5.96148E-24
2.72407E-02 5.65556E-24
2.79555E-02 5.36901E-24
2.86793E-02 5.10038E-24
2.94120E-02 4.84835E-24
3.01537E-02 4.61169E-24
3.09043E-02 4.38930E-24
3.16639E-02 4.18015E-24
3.24324E-02 3.98330E-24
3.32098E-02 3.79790E-24
3.39961E-02 3.62316E-24
3.47912E-02 3.45835E-24
3.55952E-02 3.30280E-24
3.64081E-02 3.15589E-24
3.72297E-02 3.01705E-24
3.80602E-02 2.88576E-24
3.88995E-02 2.76152E-24
3.97476E-02 2.64389E-24
4.06044E-02 2.53245E-24
4.14700E-02 2.42681E-24
4.23443E-02 2.32662E-24
4.32273E-02 2.23153E-24
4.41190E-02 2.14125E-24
4.50194E-02 2.05547E-24
4.59284E-02 1.97394E-24
4.68461E-02 1.89641E-24
4.87074E-02 1.75240E-24
5.06030E-02 1.62178E-24
5.25328E-02 1.50308E-24
5.44967E-02 1.39501E-24
5.64946E-02 1.29645E-24
5.85262E-02 1.20641E-24
6.05914E-02 1.12403E-24
6.26901E-02 1.04853E-24
6.48222E-02 9.79245E-25
6.69873E-02 9.15561E-25
6.91854E-02 8.56946E-25
7.14163E-02 8.02923E-25
7.36799E-02 7.53069E-25
7.59760E-02 7.07002E-25
7.83043E-02 6.64383E-25
8.06647E-02 6.24906E-25
8.30571E-02 5.88299E-25
8.54812E-02 5.54314E-25
8.79369E-02 5.22730E-25
9.04240E-02 4.93346E-25
9.29422E-02 4.65981E-25
9.54915E-02 4.40470E-25
9.80716E-02 4.16666E-25
1.00682E-01 3.94433E-25
1.03323E-01 3.73649E-25
1.05995E-01 3.54201E-25
1.08696E-01 3.35989E-25
1.11427E-01 3.18919E-25
1.14188E-01 3.02907E-25
1.16978E-01 2.87875E-25
1.19797E-01 2.73753E-25
1.22645E-01 2.60474E-25
1.25522E-01 2.47980E-25
1.28428E-01 2.36216E-25
1.31361E-01 2.25131E-25
1.34323E-01 2.14678E-25
1.37313E-01 2.04816E-25
1.40330E-01 1.95505E-25
1.43375E-01 1.86708E-25
1.46447E-01 1.78391E-25
1.49545E-01 1.70525E-25
1.52671E-01 1.63079E-25
1.55823E-01 1.56028E-25
1.59001E-01 1.49346E-25
1.62205E-01 1.43011E-25
1.65435E-01 1.37001E-25
1.68690E-01 1.31297E-25
1.71970E-01 1.25880E-25
1.75276E-01 1.20734E-25
1.78606E-01 1.15841E-25
1.81961E-01 1.11189E-25
1.85340E-01 1.06761E-25
1.88743E-01 1.02547E-25
1.92169E-01 9.85324E-26
1.95619E-01 9.47077E-26
1.99092E-01 9.10616E-26
2.02589E-01 8.75845E-26
2.06107E-01 8.42671E-26
2.09649E-01 8.11006E-26
2.13212E-01 7.80770E-26
2.16797E-01 7.51887E-26
2.20404E-01 7.24285E-26
2.24032E-01 6.97898E-26
2.27680E-01 6.72661E-26
2.31350E-01 6.48517E-26
2.35040E-01 6.25409E-26
2.38751E-01 6.03285E-26
2.42481E-01 5.82095E-26
2.46231E-01 5.61793E-26
2.50000E-01 5.42335E-26
2.53788E-01 5.23679E-26
2.57595E-01 5.05788E-26
2.61421E-01 4.88623E-26
2.65264E-01 4.72150E-26
2.69126E-01 4.56337E-26
2.73005E-01 4.41151E-26
2.76901E-01 4.26564E-26
2.80814E-01 4.12549E-26
2.84744E-01 3.99078E-26
2.88691E-01 3.86127E-26
2.92653E-01 3.73671E-26
2.96632E-01 3.61690E-26
3.00625E-01 3.50162E-26
3.04634E-01 3.39066E-26
3.08658E-01 3.28383E-26
3.12697E-01 3.18096E-26
3.16749E-01 3.08187E-26
3.20816E-01 2.98640E-26
3.24896E-01 2.89439E-26
3.28990E-01 2.80570E-26
3.33097E-01 2.72018E-26
3.37216E-01 2.63771E-26
3.41348E-01 2.55815E-26
3.45492E-01 2.48139E-26
3.49647E-01 2.40730E-26
3.53814E-01 2.33579E-26
3.57992E-01 2.26674E-26
3.62181E-01 2.20005E-26
3.66381E-01 2.13564E-26
3.70590E-01 2.07341E-26
3.74810E-01 2.01327E-26
3.79039E-01 1.95515E-26
3.83277E-01 1.89895E-26
3.87524E-01 1.84462E-26
3.91780E-01 1.79207E-26
3.96044E-01 1.74124E-26
4.00316E-01 1.69206E-26
4.04596E-01 1.64447E-26
4.08882E-01 1.59841E-26
4.13176E-01 1.55382E-26
4.17476E-01 1.51064E-26
4.21783E-01 1.46884E-26
4.26095E-01 1.42834E-26
4.30413E-01 1.38912E-26
4.34737E-01 1.35111E-26
4.39065E-01 1.31428E-26
4.43398E-01 1.27858E-26
4.47736E-01 1.24397E-26
4.52077E-01 1.21042E-26
4.56422E-01 1.17789E-26
4.60770E-01 1.14633E-26
4.65122E-01 1.11572E-26
4.69476E-01 1.08603E-26
4.73832E-01 1.05722E-26
4.78190E-01 1.02926E-26
4.82550E-01 1.00212E-26
4.86912E-01 9.75776E-27
4.91274E-01 9.50199E-27
4.95637E-01 9.25364E-27
5.00000E-01 9.01245E-27
5.04363E-01 8.77819E-27
5.08726E-01 8.55062E-27
5.13088E-01 8.32953E-27
5.17450E-01 8.11470E-27
5.21810E-01 7.90593E-27
5.26168E-01 7.70302E-27
5.30524E-01 7.50577E-27
5.34878E-01 7.31402E-27
5.39230E-01 7.12757E-27
5.43578E-01 6.94627E-27
5.47923E-01 6.76994E-27
5.52264E-01 6.59844E-27
5.56602E-01 6.43160E-27
5.60935E-01 6.26929E-27
5.65263E-01 6.11136E-27
5.69587E-01 5.95768E-27
5.73905E-01 5.80811E-27
5.78217E-01 5.66253E-27
5.82524E-01 5.52081E-27
5.86824E-01 5.38285E-27
5.91118E-01 5.24852E-27
5.95404E-01 5.11772E-27
5.99684E-01 4.99034E-27
6.03956E-01 4.86627E-27
6.08220E-01 4.74543E-27
6.12476E-01 4.62771E-27
6.16723E-01 4.51302E-27
6.20961E-01 4.40127E-27
6.25190E-01 4.29238E-27
6.29410E-01 4.18627E-27
6.33619E-01 4.08285E-27
6.37819E-01 3.98204E-27
6.42008E-01 3.88377E-27
6.46186E-01 3.78798E-27
6.50353E-01 3.69458E-27
6.54508E-01 3.60351E-27
6.58652E-01 3.51470E-27
6.62784E-01 3.42810E-27
6.66903E-01 3.34363E-27
6.71010E-01 3.26124E-27
6.75104E-01 3.18088E-27
6.79184E-01 3.10248E-27
6.83251E-01 3.02599E-27
6.87303E-01 2.95136E-27
6.91342E-01 2.87855E-27
6.95366E-01 2.80749E-27
6.99375E-01 2.73814E-27
7.03368E-01 2.67046E-27
7.07347E-01 2.60440E-27
7.11309E-01 2.53992E-27
7.15256E-01 2.47697E-27
7.19186E-01 2.41552E-27
7.23099E-01 2.35553E-27
7.26995E-01 2.29695E-27
7.30874E-01 2.23975E-27
7.34736E-01 2.18390E-27
7.38579E-01 2.12936E-27
7.42405E-01 2.07609E-27
7.46212E-01 2.02407E-27
7.50000E-01 1.97326E-27
7.53769E-01 1.92363E-27
7.57519E-01 1.87514E-27
7.61249E-01 1.82778E-27
7.64960E-01 1.78152E-27
7.68650E-01 1.73632E-27
7.72320E-01 1.69215E-27
7.75968E-01 1.64900E-27
7.79596E-01 1.60684E-27
7.83203E-01 1.56564E-27
7.86788E-01 1.52538E-27
7.90351E-01 1.48604E-27
7.93893E-01 1.44760E-27
7.97411E-01 1.41002E-27
8.00908E-01 1.37330E-27
8.04381E-01 1.33741E-27
8.07831E-01 1.30233E-27
8.11257E-01 1.26804E-27
8.14660E-01 1.23452E-27
8.18039E-01 1.20176E-27
8.21394E-01 1.16974E-27
8.24724E-01 1.13844E-27
8.28030E-01 1.10784E-27
8.31310E-01 1.07793E-27
8.34565E-01 1.04868E-27
8.37795E-01 1.02010E-27
8.40999E-01 9.92151E-28
8.44177E-01 9.64831E-28
8.47329E-01 9.38122E-28
8.50455E-01 9.12011E-28
8.53553E-01 8.86485E-28
8.56625E-01 8.61530E-28
8.59670E-01 8.37134E-28
8.62687E-01 8.13285E-28
8.65677E-01 7.89970E-28
8.68639E-01 7.67177E-28
8.71572E-01 7.44896E-28
8.74478E-01 7.23115E-28
8.77355E-01 7.01823E-28
8.80203E-01 6.81011E-28
8.83022E-01 6.60667E-28
8.85812E-01 6.40783E-28
8.88573E-01 6.21347E-28
8.91304E-01 6.02352E-28
8.94005E-01 5.83787E-28
8.96677E-01 5.65644E-28
8.99318E-01 5.47914E-28
9.01928E-01 5.30589E-28
9.04508E-01 5.13661E-28
9.07058E-01 4.97121E-28
9.09576E-01 4.80963E-28
9.12063E-01 4.65177E-28
9.14519E-01 4.49758E-28
9.16943E-01 4.34698E-28
9.19335E-01 4.19989E-28
9.21696E-01 4.05626E-28
9.24024E-01 3.91601E-28
9.26320E-01 3.77908E-28
9.28584E-01 3.64542E-28
9.30815E-01 3.51495E-28
9.33013E-01 3.38763E-28
9.35178E-01 3.26339E-28
9.37310E-01 3.14217E-28
9.39409E-01 3.02393E-28
9.41474E-01 2.90861E-28
9.43505E-01 2.79616E-28
9.45503E-01 2.68654E-28
9.47467E-01 2.57968E-28
9.49397E-01 2.47555E-28
9.51293E-01 2.37410E-28
9.53154E-01 2.27528E-28
9.54981E-01 2.17906E-28
9.56773E-01 2.08538E-28
9.58530E-01 1.99422E-28
9.60252E-01 1.90553E-28
9.61940E-01 1.81927E-28
9.63592E-01 1.73540E-28
9.65209E-01 1.65390E-28
9.66790E-01 1.57472E-28
9.68336E-01 1.49784E-28
9.69846E-01 1.42321E-28
9.71321E-01 1.35081E-28
9.72759E-01 1.28060E-28
9.74162E-01 1.21257E-28
9.75528E-01 1.14667E-28
9.76858E-01 1.08288E-28
9.78152E-01 1.02118E-28
9.79410E-01 9.61539E-29
9.80631E-01 9.03929E-29
9.81815E-01 8.48330E-29
9.82963E-01 7.94717E-29
9.84074E-01 7.43068E-29
9.85148E-01 6.93363E-29
9.86185E-01 6.45580E-29
9.87185E-01 5.99701E-29
9.88148E-01 5.55705E-29
9.89074E-01 5.13576E-29
9.89962E-01 4.73296E-29
9.90814E-01 4.34848E-29
9.91627E-01 3.98216E-29
9.92404E-01 3.63387E-29
9.93143E-01 3.30344E-29
9.93844E-01 2.99076E-29
9.94508E-01 2.69569E-29
9.95134E-01 2.41811E-29
9.95722E-01 2.15792E-29
9.96273E-01 1.91500E-29
9.96786E-01 1.68925E-29
9.97261E-01 1.48060E-29
9.97698E-01 1.28894E-29
9.98097E-01 1.11421E-29
9.98459E-01 9.56325E-30
9.98782E-01 8.15233E-30
9.99067E-01 6.90875E-30
9.99315E-01 5.83198E-30
9.99524E-01 4.92160E-30
9.99695E-01 4.17725E-30
9.99829E-01 3.59861E-30
9.99924E-01 3.18547E-30
9.99981E-01 2.93765E-30
1.00000E+00 2.85511E-30
