 #
 # Subroutine ELSEPA. Elastic scattering of electrons and positrons
 #                    by neutral atoms and positive ions
 #
 # Projectile: electron
 # Kinetic energy = 3.00000E+08 eV = 1.10248E+07 a.u.
 #
 # WARNING: High-energy factorization with free-atom DF screening.
 #          Absorption, polarization and exchange corrections are
 #          switched off.
 #          Phase shifts are calculated for the bare nucleus.
 #          Scattering amplitudes are not evaluated.
 #
 # Element:  S,  Z =  16,  atomic weight = 3.20660E+01 g/mol
 #
 # Nuclear model: Fermi distribution
 #                Average radius = 3.39937E-13 cm
 #                Skin thickness = 5.46000E-14 cm
 #
 # Number of electrons = 16
 #
 # Total elastic cross section = 1.04453E-18 cm**2 = 3.73008E-02 a0**2
 # 1st transport cross section = 6.09199E-27 cm**2 = 2.17549E-10 a0**2
 # 2nd transport cross section = 1.82463E-26 cm**2 = 6.51587E-10 a0**2
 #
 #
 # Differential cross section:                       MU=(1-COS(THETA))/2
 #
 #  THETA        MU          DCS          DCS        Sherman      error
 #  (deg)                 (cm**2/sr)   (a0**2/sr)    function
 #----------------------------------------------------------------------
0.00000E+00 9.19989E-10
7.61557E-13 9.05219E-10
1.18994E-12 8.97073E-10
1.71346E-12 8.87260E-10
2.33225E-12 8.75856E-10
3.04617E-12 8.62955E-10
3.85530E-12 8.48654E-10
4.75964E-12 8.33054E-10
5.75917E-12 8.16276E-10
6.85391E-12 7.98439E-10
8.04379E-12 7.79666E-10
9.32893E-12 7.60079E-10
1.07092E-11 7.39803E-10
1.21847E-11 7.18959E-10
1.37554E-11 6.97666E-10
1.54213E-11 6.76032E-10
1.71823E-11 6.54040E-10
1.90386E-11 6.30667E-10
2.09900E-11 6.08084E-10
2.30367E-11 5.86338E-10
2.51785E-11 5.65461E-10
2.74156E-11 5.44320E-10
2.97478E-11 5.21996E-10
3.21752E-11 5.00774E-10
3.46979E-11 4.80630E-10
3.73157E-11 4.61537E-10
4.00286E-11 4.41765E-10
4.28368E-11 4.22055E-10
4.57402E-11 4.03484E-10
4.87388E-11 3.85996E-10
5.18325E-11 3.69536E-10
5.50215E-11 3.52217E-10
5.83057E-11 3.35721E-10
6.16850E-11 3.20248E-10
6.51595E-11 3.05735E-10
6.87293E-11 2.91900E-10
7.23943E-11 2.77678E-10
7.61544E-11 2.64366E-10
1.18991E-10 1.62276E-10
1.71347E-10 1.00704E-10
2.33223E-10 6.43613E-11
3.04617E-10 4.27444E-11
3.85531E-10 2.95654E-11
4.75965E-10 2.12540E-11
5.75917E-10 1.58121E-11
6.85389E-10 1.21105E-11
8.04380E-10 9.49938E-12
9.32891E-10 7.59652E-12
1.07092E-09 6.17024E-12
1.21847E-09 5.07522E-12
1.37554E-09 4.21742E-12
1.54213E-09 3.53402E-12
1.71823E-09 2.98134E-12
1.90386E-09 2.52641E-12
2.09900E-09 2.16007E-12
2.30367E-09 1.85065E-12
2.51785E-09 1.59600E-12
2.74156E-09 1.37990E-12
2.97478E-09 1.19897E-12
3.21752E-09 1.04492E-12
3.46978E-09 9.14156E-13
3.73156E-09 8.02437E-13
4.00286E-09 7.06554E-13
4.28368E-09 6.24311E-13
4.57402E-09 5.53085E-13
4.87388E-09 4.91706E-13
5.18326E-09 4.38147E-13
5.50215E-09 3.91755E-13
5.83057E-09 3.51012E-13
6.16850E-09 3.15511E-13
6.51596E-09 2.84182E-13
6.87293E-09 2.56696E-13
7.23942E-09 2.32358E-13
7.61544E-09 2.10857E-13
1.18991E-08 8.91062E-14
1.71347E-08 4.40548E-14
2.33223E-08 2.43141E-14
3.04617E-08 1.45300E-14
3.85531E-08 9.21882E-15
4.75965E-08 6.12892E-15
5.75917E-08 4.23087E-15
6.85389E-08 3.01275E-15
8.04380E-08 2.20222E-15
9.32891E-08 1.64617E-15
1.07092E-07 1.25460E-15
1.21847E-07 9.72544E-16
1.37554E-07 7.65286E-16
1.54213E-07 6.10282E-16
1.71823E-07 4.92520E-16
1.90386E-07 4.01786E-16
2.09900E-07 3.30978E-16
2.30367E-07 2.75077E-16
2.51785E-07 2.30477E-16
2.74156E-07 1.94548E-16
2.97478E-07 1.65346E-16
3.21752E-07 1.41417E-16
3.46978E-07 1.21660E-16
3.73156E-07 1.05232E-16
4.00286E-07 9.14833E-17
4.28368E-07 7.99067E-17
4.57402E-07 7.01034E-17
4.87388E-07 6.17574E-17
5.18325E-07 5.46166E-17
5.50215E-07 4.84781E-17
5.83057E-07 4.31778E-17
6.16850E-07 3.85822E-17
6.51596E-07 3.45818E-17
6.87293E-07 3.10865E-17
7.23942E-07 2.80217E-17
7.61543E-07 2.53253E-17
1.18991E-06 1.03797E-17
1.71347E-06 5.00714E-18
2.33223E-06 2.70297E-18
3.04617E-06 1.58456E-18
3.85531E-06 9.89317E-19
4.75964E-06 6.49143E-19
5.75916E-06 4.43409E-19
6.85388E-06 3.13101E-19
8.04378E-06 2.27337E-19
9.32888E-06 1.69030E-19
1.07092E-05 1.28276E-19
1.21846E-05 9.90980E-20
1.37553E-05 7.77647E-20
1.54212E-05 6.18760E-20
1.71822E-05 4.98461E-20
1.90385E-05 4.06038E-20
2.09899E-05 3.34084E-20
2.30365E-05 2.77382E-20
2.51783E-05 2.32212E-20
2.74153E-05 1.95872E-20
2.97475E-05 1.66372E-20
3.21749E-05 1.42224E-20
3.46974E-05 1.22305E-20
3.73152E-05 1.05756E-20
4.00281E-05 9.19152E-21
4.28362E-05 8.02664E-21
4.57395E-05 7.04058E-21
4.87380E-05 6.20137E-21
5.18317E-05 5.48355E-21
5.50205E-05 4.86665E-21
5.83045E-05 4.33415E-21
6.16838E-05 3.87255E-21
6.51582E-05 3.47084E-21
6.87277E-05 3.11992E-21
7.23925E-05 2.81227E-21
7.61524E-05 2.53635E-21
9.21439E-05 1.73204E-21
1.09658E-04 1.22265E-21
1.28695E-04 8.87425E-22
1.49255E-04 6.59541E-22
1.71338E-04 5.00288E-22
1.94942E-04 3.86284E-22
2.20070E-04 3.02951E-22
2.46720E-04 2.40898E-22
2.74892E-04 1.93927E-22
3.04586E-04 1.57849E-22
3.35803E-04 1.29767E-22
3.68542E-04 1.07649E-22
4.02802E-04 9.00372E-23
4.38585E-04 7.58747E-23
4.75889E-04 6.43823E-23
5.14715E-04 5.49784E-23
5.55063E-04 4.72243E-23
5.96931E-04 4.07847E-23
6.40321E-04 3.54016E-23
6.85233E-04 3.08738E-23
7.31665E-04 2.70436E-23
7.79618E-04 2.37860E-23
8.29092E-04 2.10015E-23
8.80086E-04 1.86103E-23
9.32601E-04 1.65475E-23
9.86636E-04 1.47606E-23
1.04219E-03 1.32067E-23
1.09927E-03 1.18503E-23
1.15786E-03 1.06621E-23
1.21797E-03 9.61769E-24
1.27961E-03 8.69685E-24
1.34276E-03 7.88246E-24
1.40743E-03 7.16015E-24
1.47362E-03 6.51774E-24
1.54133E-03 5.94490E-24
1.61056E-03 5.43281E-24
1.68131E-03 4.97395E-24
1.75357E-03 4.56184E-24
1.82735E-03 4.19090E-24
1.90265E-03 3.85632E-24
1.97947E-03 3.55394E-24
2.05780E-03 3.28012E-24
2.13765E-03 3.03170E-24
2.21902E-03 2.80593E-24
2.30190E-03 2.60039E-24
2.38630E-03 2.41295E-24
2.47222E-03 2.24176E-24
2.55965E-03 2.08515E-24
2.64859E-03 1.94168E-24
2.73905E-03 1.81006E-24
2.83103E-03 1.68914E-24
2.92452E-03 1.57791E-24
3.01952E-03 1.47544E-24
3.11604E-03 1.38095E-24
3.21407E-03 1.29369E-24
3.31362E-03 1.21303E-24
3.41468E-03 1.13837E-24
3.51725E-03 1.06920E-24
3.62133E-03 1.00505E-24
3.72692E-03 9.45481E-25
3.83403E-03 8.90120E-25
3.94265E-03 8.38618E-25
4.05278E-03 7.90660E-25
4.16442E-03 7.45962E-25
4.27757E-03 7.04264E-25
4.39223E-03 6.65332E-25
4.50840E-03 6.28951E-25
4.62608E-03 5.94926E-25
4.74527E-03 5.63080E-25
4.86597E-03 5.33250E-25
4.98817E-03 5.05286E-25
5.11188E-03 4.79053E-25
5.23711E-03 4.54427E-25
5.36383E-03 4.31291E-25
5.49207E-03 4.09542E-25
5.62181E-03 3.89083E-25
5.75306E-03 3.69825E-25
5.88581E-03 3.51685E-25
6.02007E-03 3.34588E-25
6.15583E-03 3.18465E-25
6.29310E-03 3.03252E-25
6.43187E-03 2.88887E-25
6.57214E-03 2.75318E-25
6.71392E-03 2.62492E-25
6.85720E-03 2.50362E-25
7.00198E-03 2.38885E-25
7.14827E-03 2.28020E-25
7.29605E-03 2.17729E-25
7.44534E-03 2.07977E-25
7.59612E-03 1.98731E-25
7.97965E-03 1.77638E-25
8.37255E-03 1.59104E-25
8.77480E-03 1.42776E-25
9.18641E-03 1.28354E-25
9.60736E-03 1.15586E-25
1.00376E-02 1.04256E-25
1.04773E-02 9.41798E-26
1.09262E-02 8.52008E-26
1.13844E-02 7.71834E-26
1.18520E-02 7.00115E-26
1.23288E-02 6.35843E-26
1.28150E-02 5.78148E-26
1.33104E-02 5.26272E-26
1.38150E-02 4.79556E-26
1.43290E-02 4.37426E-26
1.48521E-02 3.99376E-26
1.53845E-02 3.64966E-26
1.59262E-02 3.33806E-26
1.64770E-02 3.05557E-26
1.70371E-02 2.79914E-26
1.76063E-02 2.56612E-26
1.81848E-02 2.35414E-26
1.87724E-02 2.16111E-26
1.93692E-02 1.98515E-26
1.99751E-02 1.82460E-26
2.05901E-02 1.67798E-26
2.12143E-02 1.54397E-26
2.18476E-02 1.42139E-26
2.24900E-02 1.30916E-26
2.31415E-02 1.20634E-26
2.38021E-02 1.11207E-26
2.44717E-02 1.02557E-26
2.51504E-02 9.46168E-27
2.58382E-02 8.73220E-27
2.65349E-02 8.06166E-27
2.72407E-02 7.44493E-27
2.79555E-02 6.87739E-27
2.86793E-02 6.35484E-27
2.94120E-02 5.87348E-27
3.01537E-02 5.42985E-27
3.09043E-02 5.02080E-27
3.16639E-02 4.64350E-27
3.24324E-02 4.29532E-27
3.32098E-02 3.97389E-27
3.39961E-02 3.67707E-27
3.47912E-02 3.40285E-27
3.55952E-02 3.14946E-27
3.64081E-02 2.91522E-27
3.72297E-02 2.69863E-27
3.80602E-02 2.49831E-27
3.88995E-02 2.31299E-27
3.97476E-02 2.14150E-27
4.06044E-02 1.98279E-27
4.14700E-02 1.83586E-27
4.23443E-02 1.69982E-27
4.32273E-02 1.57384E-27
4.41190E-02 1.45715E-27
4.50194E-02 1.34907E-27
4.59284E-02 1.24893E-27
4.68461E-02 1.15615E-27
4.87074E-02 9.90511E-28
5.06030E-02 8.48247E-28
5.25328E-02 7.26038E-28
5.44967E-02 6.21048E-28
5.64946E-02 5.30856E-28
5.85262E-02 4.53386E-28
6.05914E-02 3.86859E-28
6.26901E-02 3.29750E-28
6.48222E-02 2.80748E-28
6.69873E-02 2.38724E-28
6.91854E-02 2.02710E-28
7.14163E-02 1.71869E-28
7.36799E-02 1.45481E-28
7.59760E-02 1.22927E-28
7.83043E-02 1.03670E-28
8.06647E-02 8.72483E-29
8.30571E-02 7.32644E-29
8.54812E-02 6.13740E-29
8.79369E-02 5.12803E-29
9.04240E-02 4.27273E-29
9.29422E-02 3.54940E-29
9.54915E-02 2.93901E-29
9.80716E-02 2.42513E-29
1.00682E-01 1.99361E-29
1.03323E-01 1.63227E-29
1.05995E-01 1.33063E-29
1.08696E-01 1.07968E-29
1.11427E-01 8.71675E-30
1.14188E-01 6.99974E-30
1.16978E-01 5.58890E-30
1.19797E-01 4.43552E-30
1.22645E-01 3.49802E-30
1.25522E-01 2.74090E-30
1.28428E-01 2.13395E-30
1.31361E-01 1.65150E-30
1.34323E-01 1.27179E-30
1.37313E-01 9.76420E-31
1.40330E-01 7.49860E-31
1.43375E-01 5.79070E-31
1.46447E-01 4.53116E-31
1.49545E-01 3.62874E-31
1.52671E-01 3.00762E-31
1.55823E-01 2.60505E-31
1.59001E-01 2.36945E-31
1.62205E-01 2.25863E-31
1.65435E-01 2.23838E-31
1.68690E-01 2.28114E-31
1.71970E-01 2.36498E-31
1.75276E-01 2.47265E-31
1.78606E-01 2.59079E-31
1.81961E-01 2.70922E-31
1.85340E-01 2.82045E-31
1.88743E-01 2.91910E-31
1.92169E-01 3.00155E-31
1.95619E-01 3.06557E-31
1.99092E-01 3.11003E-31
2.02589E-01 3.13467E-31
2.06107E-01 3.13987E-31
2.09649E-01 3.12652E-31
2.13212E-01 3.09585E-31
2.16797E-01 3.04933E-31
2.20404E-01 2.98860E-31
2.24032E-01 2.91534E-31
2.27680E-01 2.83129E-31
2.31350E-01 2.73814E-31
2.35040E-01 2.63753E-31
2.38751E-01 2.53103E-31
2.42481E-01 2.42009E-31
2.46231E-01 2.30606E-31
2.50000E-01 2.19017E-31
2.53788E-01 2.07352E-31
2.57595E-01 1.95711E-31
2.61421E-01 1.84179E-31
2.65264E-01 1.72833E-31
2.69126E-01 1.61737E-31
2.73005E-01 1.50945E-31
2.76901E-01 1.40502E-31
2.80814E-01 1.30444E-31
2.84744E-01 1.20798E-31
2.88691E-01 1.11586E-31
2.92653E-01 1.02821E-31
2.96632E-01 9.45134E-32
3.00625E-01 8.66652E-32
3.04634E-01 7.92759E-32
3.08658E-01 7.23407E-32
3.12697E-01 6.58517E-32
3.16749E-01 5.97983E-32
3.20816E-01 5.41676E-32
3.24896E-01 4.89448E-32
3.28990E-01 4.41138E-32
3.33097E-01 3.96575E-32
3.37216E-01 3.55579E-32
3.41348E-01 3.17966E-32
3.45492E-01 2.83549E-32
3.49647E-01 2.52141E-32
3.53814E-01 2.23557E-32
3.57992E-01 1.97613E-32
3.62181E-01 1.74130E-32
3.66381E-01 1.52935E-32
3.70590E-01 1.33860E-32
3.74810E-01 1.16743E-32
3.79039E-01 1.01430E-32
3.83277E-01 8.77740E-33
3.87524E-01 7.56356E-33
3.91780E-01 6.48833E-33
3.96044E-01 5.53933E-33
4.00316E-01 4.70494E-33
4.04596E-01 3.97431E-33
4.08882E-01 3.33735E-33
4.13176E-01 2.78465E-33
4.17476E-01 2.30755E-33
4.21783E-01 1.89802E-33
4.26095E-01 1.54869E-33
4.30413E-01 1.25280E-33
4.34737E-01 1.00416E-33
4.39065E-01 7.97140E-34
4.43398E-01 6.26601E-34
4.47736E-01 4.87903E-34
4.52077E-01 3.76848E-34
4.56422E-01 2.89656E-34
4.60770E-01 2.22935E-34
4.65122E-01 1.73650E-34
4.69476E-01 1.39095E-34
4.73832E-01 1.16872E-34
4.78190E-01 1.04855E-34
4.82550E-01 1.01176E-34
4.86912E-01 1.04196E-34
4.91274E-01 1.12485E-34
4.95637E-01 1.24805E-34
5.00000E-01 1.40088E-34
5.04363E-01 1.57420E-34
5.08726E-01 1.76024E-34
5.13088E-01 1.95248E-34
5.17450E-01 2.14545E-34
5.21810E-01 2.33471E-34
5.26168E-01 2.51662E-34
5.30524E-01 2.68831E-34
5.34878E-01 2.84758E-34
5.39230E-01 2.99277E-34
5.43578E-01 3.12272E-34
5.47923E-01 3.23670E-34
5.52264E-01 3.33432E-34
5.56602E-01 3.41551E-34
5.60935E-01 3.48044E-34
5.65263E-01 3.52947E-34
5.69587E-01 3.56316E-34
5.73905E-01 3.58218E-34
5.78217E-01 3.58732E-34
5.82524E-01 3.57940E-34
5.86824E-01 3.55936E-34
5.91118E-01 3.52812E-34
5.95404E-01 3.48664E-34
5.99684E-01 3.43589E-34
6.03956E-01 3.37679E-34
6.08220E-01 3.31029E-34
6.12476E-01 3.23728E-34
6.16723E-01 3.15864E-34
6.20961E-01 3.07518E-34
6.25190E-01 2.98771E-34
6.29410E-01 2.89695E-34
6.33619E-01 2.80360E-34
6.37819E-01 2.70831E-34
6.42008E-01 2.61167E-34
6.46186E-01 2.51423E-34
6.50353E-01 2.41650E-34
6.54508E-01 2.31894E-34
6.58652E-01 2.22195E-34
6.62784E-01 2.12590E-34
6.66903E-01 2.03113E-34
6.71010E-01 1.93791E-34
6.75104E-01 1.84651E-34
6.79184E-01 1.75714E-34
6.83251E-01 1.67000E-34
6.87303E-01 1.58522E-34
6.91342E-01 1.50295E-34
6.95366E-01 1.42327E-34
6.99375E-01 1.34628E-34
7.03368E-01 1.27204E-34
7.07347E-01 1.20056E-34
7.11309E-01 1.13189E-34
7.15256E-01 1.06602E-34
7.19186E-01 1.00293E-34
7.23099E-01 9.42622E-35
7.26995E-01 8.85045E-35
7.30874E-01 8.30160E-35
7.34736E-01 7.77917E-35
7.38579E-01 7.28256E-35
7.42405E-01 6.81112E-35
7.46212E-01 6.36417E-35
7.50000E-01 5.94095E-35
7.53769E-01 5.54070E-35
7.57519E-01 5.16263E-35
7.61249E-01 4.80593E-35
7.64960E-01 4.46976E-35
7.68650E-01 4.15330E-35
7.72320E-01 3.85575E-35
7.75968E-01 3.57624E-35
7.79596E-01 3.31398E-35
7.83203E-01 3.06815E-35
7.86788E-01 2.83797E-35
7.90351E-01 2.62265E-35
7.93893E-01 2.42144E-35
7.97411E-01 2.23360E-35
8.00908E-01 2.05842E-35
8.04381E-01 1.89521E-35
8.07831E-01 1.74329E-35
8.11257E-01 1.60202E-35
8.14660E-01 1.47078E-35
8.18039E-01 1.34898E-35
8.21394E-01 1.23605E-35
8.24724E-01 1.13143E-35
8.28030E-01 1.03462E-35
8.31310E-01 9.45122E-36
8.34565E-01 8.62458E-36
8.37795E-01 7.86182E-36
8.40999E-01 7.15872E-36
8.44177E-01 6.51124E-36
8.47329E-01 5.91559E-36
8.50455E-01 5.36818E-36
8.53553E-01 4.86562E-36
8.56625E-01 4.40472E-36
8.59670E-01 3.98247E-36
8.62687E-01 3.59605E-36
8.65677E-01 3.24282E-36
8.68639E-01 2.92028E-36
8.71572E-01 2.62611E-36
8.74478E-01 2.35813E-36
8.77355E-01 2.11431E-36
8.80203E-01 1.89273E-36
8.83022E-01 1.69164E-36
8.85812E-01 1.50937E-36
8.88573E-01 1.34440E-36
8.91304E-01 1.19529E-36
8.94005E-01 1.06070E-36
8.96677E-01 9.39423E-37
8.99318E-01 8.30303E-37
9.01928E-01 7.32277E-37
9.04508E-01 6.44374E-37
9.07058E-01 5.65697E-37
9.09576E-01 4.95394E-37
9.12063E-01 4.32711E-37
9.14519E-01 3.76937E-37
9.16943E-01 3.27414E-37
9.19335E-01 2.83547E-37
9.21696E-01 2.44778E-37
9.24024E-01 2.10617E-37
9.26320E-01 1.80585E-37
9.28584E-01 1.54277E-37
9.30815E-01 1.31295E-37
9.33013E-01 1.11283E-37
9.35178E-01 9.39495E-38
9.37310E-01 7.89608E-38
9.39409E-01 6.60892E-38
9.41474E-01 5.50630E-38
9.43505E-01 4.56888E-38
9.45503E-01 3.77564E-38
9.47467E-01 3.10925E-38
9.49397E-01 2.55282E-38
9.51293E-01 2.09392E-38
9.53154E-01 1.71759E-38
9.54981E-01 1.41410E-38
9.56773E-01 1.17132E-38
9.58530E-01 9.81579E-39
9.60252E-01 8.36486E-39
9.61940E-01 7.28349E-39
9.63592E-01 6.50312E-39
9.65209E-01 5.97463E-39
9.66790E-01 5.65482E-39
9.68336E-01 5.49533E-39
9.69846E-01 5.45316E-39
9.71321E-01 5.50899E-39
9.72759E-01 5.62384E-39
9.74162E-01 5.77854E-39
9.75528E-01 5.95269E-39
9.76858E-01 6.13545E-39
9.78152E-01 6.30937E-39
9.79410E-01 6.46226E-39
9.80631E-01 6.59183E-39
9.81815E-01 6.68645E-39
9.82963E-01 6.73882E-39
9.84074E-01 6.74836E-39
9.85148E-01 6.72943E-39
9.86185E-01 6.66169E-39
9.87185E-01 6.55029E-39
9.88148E-01 6.39488E-39
9.89074E-01 6.21015E-39
9.89962E-01 5.98668E-39
9.90814E-01 5.72739E-39
9.91627E-01 5.44788E-39
9.92404E-01 5.14096E-39
9.93143E-01 4.81145E-39
9.93844E-01 4.46821E-39
9.94508E-01 4.11554E-39
9.95134E-01 3.75505E-39
9.95722E-01 3.38783E-39
9.96273E-01 3.02827E-39
9.96786E-01 2.66680E-39
9.97261E-01 2.32434E-39
9.97698E-01 1.98844E-39
9.98097E-01 1.67075E-39
9.98459E-01 1.37626E-39
9.98782E-01 1.10362E-39
9.99067E-01 8.54828E-40
9.99315E-01 6.36107E-40
9.99524E-01 4.44609E-40
9.99695E-01 2.87983E-40
9.99829E-01 1.64347E-40
9.99924E-01 7.47273E-41
9.99981E-01 1.97426E-41
1.00000E+00 2.05980E-41
