 #
 # Subroutine ELSEPA. Elastic scattering of electrons and positrons
 #                    by neutral atoms and positive ions
 #
 # Projectile: electron
 # Kinetic energy = 2.50000E+06 eV = 9.18733E+04 a.u.
 #
 # WARNING: High-energy factorization with free-atom DF screening.
 #          Absorption, polarization and exchange corrections are
 #          switched off.
 #          Phase shifts are calculated for the bare nucleus.
 #          Scattering amplitudes are not evaluated.
 #
 # Element:  S,  Z =  16,  atomic weight = 3.20660E+01 g/mol
 #
 # Nuclear model: Fermi distribution
 #                Average radius = 3.39937E-13 cm
 #                Skin thickness = 5.46000E-14 cm
 #
 # Number of electrons = 16
 #
 # Total elastic cross section = 1.07618E-18 cm**2 = 3.84309E-02 a0**2
 # 1st transport cross section = 4.21123E-23 cm**2 = 1.50386E-06 a0**2
 # 2nd transport cross section = 1.19460E-22 cm**2 = 4.26599E-06 a0**2
 #
 #
 # Differential cross section:                       MU=(1-COS(THETA))/2
 #
 #  THETA        MU          DCS          DCS        Sherman      error
 #  (deg)                 (cm**2/sr)   (a0**2/sr)    function
 #----------------------------------------------------------------------
0.00000E+00 9.23598E-14
7.61557E-13 9.23596E-14
1.18994E-12 9.23596E-14
1.71346E-12 9.23594E-14
2.33225E-12 9.23593E-14
3.04617E-12 9.23592E-14
3.85530E-12 9.23590E-14
4.75964E-12 9.23588E-14
5.75917E-12 9.23586E-14
6.85391E-12 9.23584E-14
8.04379E-12 9.23582E-14
9.32893E-12 9.23579E-14
1.07092E-11 9.23577E-14
1.21847E-11 9.23574E-14
1.37554E-11 9.23571E-14
1.54213E-11 9.23567E-14
1.71823E-11 9.23564E-14
1.90386E-11 9.23560E-14
2.09900E-11 9.23557E-14
2.30367E-11 9.23553E-14
2.51785E-11 9.23548E-14
2.74156E-11 9.23544E-14
2.97478E-11 9.23540E-14
3.21752E-11 9.23535E-14
3.46979E-11 9.23530E-14
3.73157E-11 9.23525E-14
4.00286E-11 9.23520E-14
4.28368E-11 9.23514E-14
4.57402E-11 9.23509E-14
4.87388E-11 9.23503E-14
5.18325E-11 9.23497E-14
5.50215E-11 9.23491E-14
5.83057E-11 9.23484E-14
6.16850E-11 9.23478E-14
6.51595E-11 9.23471E-14
6.87293E-11 9.23464E-14
7.23943E-11 9.23457E-14
7.61544E-11 9.23450E-14
1.18991E-10 9.23367E-14
1.71347E-10 9.23266E-14
2.33223E-10 9.23147E-14
3.04617E-10 9.23010E-14
3.85531E-10 9.22855E-14
4.75965E-10 9.22682E-14
5.75917E-10 9.22490E-14
6.85389E-10 9.22281E-14
8.04380E-10 9.22053E-14
9.32891E-10 9.21807E-14
1.07092E-09 9.21543E-14
1.21847E-09 9.21261E-14
1.37554E-09 9.20961E-14
1.54213E-09 9.20643E-14
1.71823E-09 9.20307E-14
1.90386E-09 9.19953E-14
2.09900E-09 9.19581E-14
2.30367E-09 9.19192E-14
2.51785E-09 9.18784E-14
2.74156E-09 9.18359E-14
2.97478E-09 9.17916E-14
3.21752E-09 9.17455E-14
3.46978E-09 9.16976E-14
3.73156E-09 9.16481E-14
4.00286E-09 9.15967E-14
4.28368E-09 9.15435E-14
4.57402E-09 9.14886E-14
4.87388E-09 9.14320E-14
5.18326E-09 9.13736E-14
5.50215E-09 9.13135E-14
5.83057E-09 9.12516E-14
6.16850E-09 9.11880E-14
6.51596E-09 9.11227E-14
6.87293E-09 9.10558E-14
7.23942E-09 9.09869E-14
7.61544E-09 9.09164E-14
1.18991E-08 9.01191E-14
1.71347E-08 8.91579E-14
2.33223E-08 8.80406E-14
3.04617E-08 8.67756E-14
3.85531E-08 8.53726E-14
4.75965E-08 8.38421E-14
5.75917E-08 8.21948E-14
6.85389E-08 8.04419E-14
8.04380E-08 7.85948E-14
9.32891E-08 7.66661E-14
1.07092E-07 7.46675E-14
1.21847E-07 7.26110E-14
1.37554E-07 7.05080E-14
1.54213E-07 6.83698E-14
1.71823E-07 6.62072E-14
1.90386E-07 6.39064E-14
2.09900E-07 6.16472E-14
2.30367E-07 5.94688E-14
2.51785E-07 5.73747E-14
2.74156E-07 5.53536E-14
2.97478E-07 5.31068E-14
3.21752E-07 5.09681E-14
3.46978E-07 4.89359E-14
3.73156E-07 4.70075E-14
4.00286E-07 4.51106E-14
4.28368E-07 4.31133E-14
4.57402E-07 4.12296E-14
4.87388E-07 3.94540E-14
5.18325E-07 3.77813E-14
5.50215E-07 3.61100E-14
5.83057E-07 3.44285E-14
6.16850E-07 3.28500E-14
6.51596E-07 3.13683E-14
6.87293E-07 2.99773E-14
7.23942E-07 2.85733E-14
7.61543E-07 2.72095E-14
1.18991E-06 1.68047E-14
1.71347E-06 1.04751E-14
2.33223E-06 6.71380E-15
3.04617E-06 4.46550E-15
3.85531E-06 3.09029E-15
4.75964E-06 2.22138E-15
5.75916E-06 1.65203E-15
6.85388E-06 1.26484E-15
8.04378E-06 9.91879E-16
9.32888E-06 7.93125E-16
1.07092E-05 6.44270E-16
1.21846E-05 5.30072E-16
1.37553E-05 4.40663E-16
1.54212E-05 3.69473E-16
1.71822E-05 3.12013E-16
1.90385E-05 2.64538E-16
2.09899E-05 2.26431E-16
2.30365E-05 1.94061E-16
2.51783E-05 1.67645E-16
2.74153E-05 1.44894E-16
2.97475E-05 1.26089E-16
3.21749E-05 1.09858E-16
3.46974E-05 9.62403E-17
3.73152E-05 8.44631E-17
4.00281E-05 7.44570E-17
4.28362E-05 6.57821E-17
4.57395E-05 5.83332E-17
4.87380E-05 5.18547E-17
5.18317E-05 4.62422E-17
5.50205E-05 4.13430E-17
5.83045E-05 3.70662E-17
6.16838E-05 3.33176E-17
6.51582E-05 3.00231E-17
6.87277E-05 2.71224E-17
7.23925E-05 2.45578E-17
7.61524E-05 2.22890E-17
9.21439E-05 1.54474E-17
1.09658E-04 1.10403E-17
1.28695E-04 8.10383E-18
1.49255E-04 6.08724E-18
1.71338E-04 4.66496E-18
1.94942E-04 3.63780E-18
2.20070E-04 2.88043E-18
2.46720E-04 2.31158E-18
2.74892E-04 1.87727E-18
3.04586E-04 1.54083E-18
3.35803E-04 1.27678E-18
3.68542E-04 1.06711E-18
4.02802E-04 8.98853E-19
4.38585E-04 7.62516E-19
4.75889E-04 6.51087E-19
5.14715E-04 5.59283E-19
5.55063E-04 4.83093E-19
5.96931E-04 4.19431E-19
6.40321E-04 3.65902E-19
6.85233E-04 3.20630E-19
7.31665E-04 2.82134E-19
7.79618E-04 2.49233E-19
8.29092E-04 2.20980E-19
8.80086E-04 1.96609E-19
9.32601E-04 1.75499E-19
9.86636E-04 1.57140E-19
1.04219E-03 1.41114E-19
1.09927E-03 1.27076E-19
1.15786E-03 1.14736E-19
1.21797E-03 1.03855E-19
1.27961E-03 9.42315E-20
1.34276E-03 8.56947E-20
1.40743E-03 7.81012E-20
1.47362E-03 7.13289E-20
1.54133E-03 6.52737E-20
1.61056E-03 5.98465E-20
1.68131E-03 5.49708E-20
1.75357E-03 5.05810E-20
1.82735E-03 4.66203E-20
1.90265E-03 4.30391E-20
1.97947E-03 3.97949E-20
2.05780E-03 3.68506E-20
2.13765E-03 3.41733E-20
2.21902E-03 3.17347E-20
2.30190E-03 2.95096E-20
2.38630E-03 2.74759E-20
2.47222E-03 2.56144E-20
2.55965E-03 2.39078E-20
2.64859E-03 2.23410E-20
2.73905E-03 2.09005E-20
2.83103E-03 1.95742E-20
2.92452E-03 1.83513E-20
3.01952E-03 1.72225E-20
3.11604E-03 1.61792E-20
3.21407E-03 1.52138E-20
3.31362E-03 1.43193E-20
3.41468E-03 1.34896E-20
3.51725E-03 1.27191E-20
3.62133E-03 1.20029E-20
3.72692E-03 1.13364E-20
3.83403E-03 1.07156E-20
3.94265E-03 1.01367E-20
4.05278E-03 9.59646E-21
4.16442E-03 9.09172E-21
4.27757E-03 8.61975E-21
4.39223E-03 8.17804E-21
4.50840E-03 7.76429E-21
4.62608E-03 7.37640E-21
4.74527E-03 7.01246E-21
4.86597E-03 6.67071E-21
4.98817E-03 6.34954E-21
5.11188E-03 6.04749E-21
5.23711E-03 5.76321E-21
5.36383E-03 5.49546E-21
5.49207E-03 5.24310E-21
5.62181E-03 5.00508E-21
5.75306E-03 4.78042E-21
5.88581E-03 4.56825E-21
6.02007E-03 4.36773E-21
6.15583E-03 4.17811E-21
6.29310E-03 3.99869E-21
6.43187E-03 3.82880E-21
6.57214E-03 3.66786E-21
6.71392E-03 3.51529E-21
6.85720E-03 3.37059E-21
7.00198E-03 3.23326E-21
7.14827E-03 3.10288E-21
7.29605E-03 2.97900E-21
7.44534E-03 2.86126E-21
7.59612E-03 2.74929E-21
7.97965E-03 2.49244E-21
8.37255E-03 2.26495E-21
8.77480E-03 2.06286E-21
9.18641E-03 1.88286E-21
9.60736E-03 1.72210E-21
1.00376E-02 1.57817E-21
1.04773E-02 1.44898E-21
1.09262E-02 1.33278E-21
1.13844E-02 1.22801E-21
1.18520E-02 1.13335E-21
1.23288E-02 1.04766E-21
1.28150E-02 9.69931E-22
1.33104E-02 8.99291E-22
1.38150E-02 8.34978E-22
1.43290E-02 7.76323E-22
1.48521E-02 7.22739E-22
1.53845E-02 6.73708E-22
1.59262E-02 6.28772E-22
1.64770E-02 5.87528E-22
1.70371E-02 5.49617E-22
1.76063E-02 5.14717E-22
1.81848E-02 4.82546E-22
1.87724E-02 4.52853E-22
1.93692E-02 4.25415E-22
1.99751E-02 4.00027E-22
2.05901E-02 3.76508E-22
2.12143E-02 3.54696E-22
2.18476E-02 3.34444E-22
2.24900E-02 3.15619E-22
2.31415E-02 2.98103E-22
2.38021E-02 2.81787E-22
2.44717E-02 2.66574E-22
2.51504E-02 2.52376E-22
2.58382E-02 2.39113E-22
2.65349E-02 2.26710E-22
2.72407E-02 2.15103E-22
2.79555E-02 2.04230E-22
2.86793E-02 1.94037E-22
2.94120E-02 1.84472E-22
3.01537E-02 1.75491E-22
3.09043E-02 1.67051E-22
3.16639E-02 1.59112E-22
3.24324E-02 1.51640E-22
3.32098E-02 1.44602E-22
3.39961E-02 1.37969E-22
3.47912E-02 1.31711E-22
3.55952E-02 1.25805E-22
3.64081E-02 1.20227E-22
3.72297E-02 1.14954E-22
3.80602E-02 1.09968E-22
3.88995E-02 1.05250E-22
3.97476E-02 1.00782E-22
4.06044E-02 9.65488E-23
4.14700E-02 9.25357E-23
4.23443E-02 8.87292E-23
4.32273E-02 8.51164E-23
4.41190E-02 8.16858E-23
4.50194E-02 7.84264E-23
4.59284E-02 7.53280E-23
4.68461E-02 7.23811E-23
4.87074E-02 6.69073E-23
5.06030E-02 6.19414E-23
5.25328E-02 5.74277E-23
5.44967E-02 5.33176E-23
5.64946E-02 4.95686E-23
5.85262E-02 4.61431E-23
6.05914E-02 4.30083E-23
6.26901E-02 4.01350E-23
6.48222E-02 3.74973E-23
6.69873E-02 3.50726E-23
6.91854E-02 3.28404E-23
7.14163E-02 3.07826E-23
7.36799E-02 2.88832E-23
7.59760E-02 2.71278E-23
7.83043E-02 2.55033E-23
8.06647E-02 2.39984E-23
8.30571E-02 2.26024E-23
8.54812E-02 2.13062E-23
8.79369E-02 2.01013E-23
9.04240E-02 1.89800E-23
9.29422E-02 1.79355E-23
9.54915E-02 1.69616E-23
9.80716E-02 1.60526E-23
1.00682E-01 1.52034E-23
1.03323E-01 1.44093E-23
1.05995E-01 1.36660E-23
1.08696E-01 1.29698E-23
1.11427E-01 1.23171E-23
1.14188E-01 1.17047E-23
1.16978E-01 1.11296E-23
1.19797E-01 1.05892E-23
1.22645E-01 1.00809E-23
1.25522E-01 9.60247E-24
1.28428E-01 9.15187E-24
1.31361E-01 8.72716E-24
1.34323E-01 8.32658E-24
1.37313E-01 7.94850E-24
1.40330E-01 7.59142E-24
1.43375E-01 7.25396E-24
1.46447E-01 6.93485E-24
1.49545E-01 6.63289E-24
1.52671E-01 6.34699E-24
1.55823E-01 6.07615E-24
1.59001E-01 5.81942E-24
1.62205E-01 5.57593E-24
1.65435E-01 5.34486E-24
1.68690E-01 5.12548E-24
1.71970E-01 4.91707E-24
1.75276E-01 4.71899E-24
1.78606E-01 4.53062E-24
1.81961E-01 4.35141E-24
1.85340E-01 4.18083E-24
1.88743E-01 4.01838E-24
1.92169E-01 3.86360E-24
1.95619E-01 3.71607E-24
1.99092E-01 3.57538E-24
2.02589E-01 3.44115E-24
2.06107E-01 3.31304E-24
2.09649E-01 3.19071E-24
2.13212E-01 3.07386E-24
2.16797E-01 2.96219E-24
2.20404E-01 2.85543E-24
2.24032E-01 2.75332E-24
2.27680E-01 2.65563E-24
2.31350E-01 2.56213E-24
2.35040E-01 2.47260E-24
2.38751E-01 2.38685E-24
2.42481E-01 2.30468E-24
2.46231E-01 2.22593E-24
2.50000E-01 2.15041E-24
2.53788E-01 2.07798E-24
2.57595E-01 2.00848E-24
2.61421E-01 1.94178E-24
2.65264E-01 1.87773E-24
2.69126E-01 1.81622E-24
2.73005E-01 1.75713E-24
2.76901E-01 1.70034E-24
2.80814E-01 1.64575E-24
2.84744E-01 1.59325E-24
2.88691E-01 1.54276E-24
2.92653E-01 1.49418E-24
2.96632E-01 1.44742E-24
3.00625E-01 1.40241E-24
3.04634E-01 1.35906E-24
3.08658E-01 1.31731E-24
3.12697E-01 1.27708E-24
3.16749E-01 1.23832E-24
3.20816E-01 1.20095E-24
3.24896E-01 1.16491E-24
3.28990E-01 1.13016E-24
3.33097E-01 1.09664E-24
3.37216E-01 1.06429E-24
3.41348E-01 1.03306E-24
3.45492E-01 1.00292E-24
3.49647E-01 9.73817E-25
3.53814E-01 9.45706E-25
3.57992E-01 9.18549E-25
3.62181E-01 8.92308E-25
3.66381E-01 8.66946E-25
3.70590E-01 8.42430E-25
3.74810E-01 8.18725E-25
3.79039E-01 7.95800E-25
3.83277E-01 7.73625E-25
3.87524E-01 7.52170E-25
3.91780E-01 7.31409E-25
3.96044E-01 7.11315E-25
4.00316E-01 6.91862E-25
4.04596E-01 6.73026E-25
4.08882E-01 6.54785E-25
4.13176E-01 6.37117E-25
4.17476E-01 6.19999E-25
4.21783E-01 6.03412E-25
4.26095E-01 5.87337E-25
4.30413E-01 5.71755E-25
4.34737E-01 5.56648E-25
4.39065E-01 5.42000E-25
4.43398E-01 5.27793E-25
4.47736E-01 5.14013E-25
4.52077E-01 5.00643E-25
4.56422E-01 4.87671E-25
4.60770E-01 4.75081E-25
4.65122E-01 4.62862E-25
4.69476E-01 4.50999E-25
4.73832E-01 4.39481E-25
4.78190E-01 4.28296E-25
4.82550E-01 4.17433E-25
4.86912E-01 4.06880E-25
4.91274E-01 3.96628E-25
4.95637E-01 3.86667E-25
5.00000E-01 3.76986E-25
5.04363E-01 3.67577E-25
5.08726E-01 3.58431E-25
5.13088E-01 3.49539E-25
5.17450E-01 3.40892E-25
5.21810E-01 3.32484E-25
5.26168E-01 3.24305E-25
5.30524E-01 3.16350E-25
5.34878E-01 3.08611E-25
5.39230E-01 3.01080E-25
5.43578E-01 2.93752E-25
5.47923E-01 2.86620E-25
5.52264E-01 2.79678E-25
5.56602E-01 2.72920E-25
5.60935E-01 2.66341E-25
5.65263E-01 2.59934E-25
5.69587E-01 2.53695E-25
5.73905E-01 2.47619E-25
5.78217E-01 2.41701E-25
5.82524E-01 2.35935E-25
5.86824E-01 2.30318E-25
5.91118E-01 2.24844E-25
5.95404E-01 2.19510E-25
5.99684E-01 2.14312E-25
6.03956E-01 2.09245E-25
6.08220E-01 2.04306E-25
6.12476E-01 1.99491E-25
6.16723E-01 1.94796E-25
6.20961E-01 1.90219E-25
6.25190E-01 1.85754E-25
6.29410E-01 1.81401E-25
6.33619E-01 1.77154E-25
6.37819E-01 1.73012E-25
6.42008E-01 1.68970E-25
6.46186E-01 1.65027E-25
6.50353E-01 1.61180E-25
6.54508E-01 1.57426E-25
6.58652E-01 1.53762E-25
6.62784E-01 1.50186E-25
6.66903E-01 1.46696E-25
6.71010E-01 1.43289E-25
6.75104E-01 1.39962E-25
6.79184E-01 1.36715E-25
6.83251E-01 1.33544E-25
6.87303E-01 1.30448E-25
6.91342E-01 1.27424E-25
6.95366E-01 1.24471E-25
6.99375E-01 1.21587E-25
7.03368E-01 1.18770E-25
7.07347E-01 1.16018E-25
7.11309E-01 1.13329E-25
7.15256E-01 1.10702E-25
7.19186E-01 1.08136E-25
7.23099E-01 1.05628E-25
7.26995E-01 1.03178E-25
7.30874E-01 1.00783E-25
7.34736E-01 9.84431E-26
7.38579E-01 9.61558E-26
7.42405E-01 9.39202E-26
7.46212E-01 9.17349E-26
7.50000E-01 8.95987E-26
7.53769E-01 8.75104E-26
7.57519E-01 8.54687E-26
7.61249E-01 8.34727E-26
7.64960E-01 8.15210E-26
7.68650E-01 7.96127E-26
7.72320E-01 7.77467E-26
7.75968E-01 7.59220E-26
7.79596E-01 7.41376E-26
7.83203E-01 7.23925E-26
7.86788E-01 7.06858E-26
7.90351E-01 6.90165E-26
7.93893E-01 6.73839E-26
7.97411E-01 6.57870E-26
8.00908E-01 6.42249E-26
8.04381E-01 6.26970E-26
8.07831E-01 6.12023E-26
8.11257E-01 5.97402E-26
8.14660E-01 5.83099E-26
8.18039E-01 5.69106E-26
8.21394E-01 5.55417E-26
8.24724E-01 5.42025E-26
8.28030E-01 5.28922E-26
8.31310E-01 5.16103E-26
8.34565E-01 5.03561E-26
8.37795E-01 4.91291E-26
8.40999E-01 4.79285E-26
8.44177E-01 4.67539E-26
8.47329E-01 4.56046E-26
8.50455E-01 4.44802E-26
8.53553E-01 4.33800E-26
8.56625E-01 4.23037E-26
8.59670E-01 4.12505E-26
8.62687E-01 4.02202E-26
8.65677E-01 3.92121E-26
8.68639E-01 3.82258E-26
8.71572E-01 3.72609E-26
8.74478E-01 3.63170E-26
8.77355E-01 3.53935E-26
8.80203E-01 3.44901E-26
8.83022E-01 3.36063E-26
8.85812E-01 3.27419E-26
8.88573E-01 3.18963E-26
8.91304E-01 3.10692E-26
8.94005E-01 3.02603E-26
8.96677E-01 2.94692E-26
8.99318E-01 2.86955E-26
9.01928E-01 2.79389E-26
9.04508E-01 2.71991E-26
9.07058E-01 2.64757E-26
9.09576E-01 2.57685E-26
9.12063E-01 2.50772E-26
9.14519E-01 2.44013E-26
9.16943E-01 2.37408E-26
9.19335E-01 2.30952E-26
9.21696E-01 2.24644E-26
9.24024E-01 2.18480E-26
9.26320E-01 2.12458E-26
9.28584E-01 2.06575E-26
9.30815E-01 2.00829E-26
9.33013E-01 1.95218E-26
9.35178E-01 1.89739E-26
9.37310E-01 1.84390E-26
9.39409E-01 1.79169E-26
9.41474E-01 1.74074E-26
9.43505E-01 1.69103E-26
9.45503E-01 1.64253E-26
9.47467E-01 1.59523E-26
9.49397E-01 1.54911E-26
9.51293E-01 1.50415E-26
9.53154E-01 1.46033E-26
9.54981E-01 1.41764E-26
9.56773E-01 1.37606E-26
9.58530E-01 1.33556E-26
9.60252E-01 1.29615E-26
9.61940E-01 1.25779E-26
9.63592E-01 1.22048E-26
9.65209E-01 1.18420E-26
9.66790E-01 1.14894E-26
9.68336E-01 1.11468E-26
9.69846E-01 1.08141E-26
9.71321E-01 1.04912E-26
9.72759E-01 1.01780E-26
9.74162E-01 9.87423E-27
9.75528E-01 9.57992E-27
9.76858E-01 9.29491E-27
9.78152E-01 9.01910E-27
9.79410E-01 8.75238E-27
9.80631E-01 8.49465E-27
9.81815E-01 8.24582E-27
9.82963E-01 8.00578E-27
9.84074E-01 7.77446E-27
9.85148E-01 7.55175E-27
9.86185E-01 7.33759E-27
9.87185E-01 7.13189E-27
9.88148E-01 6.93457E-27
9.89074E-01 6.74556E-27
9.89962E-01 6.56479E-27
9.90814E-01 6.39220E-27
9.91627E-01 6.22771E-27
9.92404E-01 6.07127E-27
9.93143E-01 5.92283E-27
9.93844E-01 5.78232E-27
9.94508E-01 5.64969E-27
9.95134E-01 5.52490E-27
9.95722E-01 5.40790E-27
9.96273E-01 5.29864E-27
9.96786E-01 5.19710E-27
9.97261E-01 5.10322E-27
9.97698E-01 5.01698E-27
9.98097E-01 4.93834E-27
9.98459E-01 4.86728E-27
9.98782E-01 4.80377E-27
9.99067E-01 4.74778E-27
9.99315E-01 4.69930E-27
9.99524E-01 4.65831E-27
9.99695E-01 4.62479E-27
9.99829E-01 4.59873E-27
9.99924E-01 4.58013E-27
9.99981E-01 4.56897E-27
1.00000E+00 4.56526E-27
