 #
 # Subroutine ELSEPA. Elastic scattering of electrons and positrons
 #                    by neutral atoms and positive ions
 #
 # Projectile: electron
 # Kinetic energy = 7.00000E+07 eV = 2.57245E+06 a.u.
 #
 # WARNING: High-energy factorization with free-atom DF screening.
 #          Absorption, polarization and exchange corrections are
 #          switched off.
 #          Phase shifts are calculated for the bare nucleus.
 #          Scattering amplitudes are not evaluated.
 #
 # Element: Rb,  Z =  37,  atomic weight = 8.54678E+01 g/mol
 #
 # Nuclear model: Fermi distribution
 #                Average radius = 4.71322E-13 cm
 #                Skin thickness = 5.46000E-14 cm
 #
 # Number of electrons = 37
 #
 # Total elastic cross section = 3.32836E-18 cm**2 = 1.18858E-01 a0**2
 # 1st transport cross section = 5.53439E-25 cm**2 = 1.97637E-08 a0**2
 # 2nd transport cross section = 1.63506E-24 cm**2 = 5.83891E-08 a0**2
 #
 #
 # Differential cross section:                       MU=(1-COS(THETA))/2
 #
 #  THETA        MU          DCS          DCS        Sherman      error
 #  (deg)                 (cm**2/sr)   (a0**2/sr)    function
 #----------------------------------------------------------------------
0.00000E+00 2.60335E-10
7.61557E-13 2.59426E-10
1.18994E-12 2.58918E-10
1.71346E-12 2.58299E-10
2.33225E-12 2.57571E-10
3.04617E-12 2.56735E-10
3.85530E-12 2.55793E-10
4.75964E-12 2.54748E-10
5.75917E-12 2.53601E-10
6.85391E-12 2.52355E-10
8.04379E-12 2.51012E-10
9.32893E-12 2.49575E-10
1.07092E-11 2.48048E-10
1.21847E-11 2.46433E-10
1.37554E-11 2.44733E-10
1.54213E-11 2.42952E-10
1.71823E-11 2.41093E-10
1.90386E-11 2.39160E-10
2.09900E-11 2.37156E-10
2.30367E-11 2.35087E-10
2.51785E-11 2.32954E-10
2.74156E-11 2.30761E-10
2.97478E-11 2.28513E-10
3.21752E-11 2.26214E-10
3.46979E-11 2.23866E-10
3.73157E-11 2.21474E-10
4.00286E-11 2.19043E-10
4.28368E-11 2.16576E-10
4.57402E-11 2.14075E-10
4.87388E-11 2.11603E-10
5.18325E-11 2.09098E-10
5.50215E-11 2.06552E-10
5.83057E-11 2.03970E-10
6.16850E-11 2.01352E-10
6.51595E-11 1.98703E-10
6.87293E-11 1.96023E-10
7.23943E-11 1.93332E-10
7.61544E-11 1.90770E-10
1.18991E-10 1.64924E-10
1.71347E-10 1.41073E-10
2.33223E-10 1.20293E-10
3.04617E-10 1.03119E-10
3.85531E-10 8.89477E-11
4.75965E-10 7.73444E-11
5.75917E-10 6.78764E-11
6.85389E-10 6.00702E-11
8.04380E-10 5.35226E-11
9.32891E-10 4.79650E-11
1.07092E-09 4.31858E-11
1.21847E-09 3.90214E-11
1.37554E-09 3.53600E-11
1.54213E-09 3.21093E-11
1.71823E-09 2.92032E-11
1.90386E-09 2.66011E-11
2.09900E-09 2.42638E-11
2.30367E-09 2.21470E-11
2.51785E-09 2.02382E-11
2.74156E-09 1.85156E-11
2.97478E-09 1.69556E-11
3.21752E-09 1.55414E-11
3.46978E-09 1.42632E-11
3.73156E-09 1.31070E-11
4.00286E-09 1.20564E-11
4.28368E-09 1.11052E-11
4.57402E-09 1.02437E-11
4.87388E-09 9.42363E-12
5.18326E-09 8.68868E-12
5.50215E-09 8.03449E-12
5.83057E-09 7.45045E-12
6.16850E-09 6.92754E-12
6.51596E-09 6.45806E-12
6.87293E-09 6.03541E-12
7.23942E-09 5.65039E-12
7.61544E-09 5.26789E-12
1.18991E-08 2.87268E-12
1.71347E-08 1.73941E-12
2.33223E-08 1.12575E-12
3.04617E-08 7.54235E-13
3.85531E-08 5.20630E-13
4.75965E-08 3.67985E-13
5.75917E-08 2.65195E-13
6.85389E-08 1.94770E-13
8.04380E-08 1.45863E-13
9.32891E-08 1.11251E-13
1.07092E-07 8.62670E-14
1.21847E-07 6.79664E-14
1.37554E-07 5.43198E-14
1.54213E-07 4.39863E-14
1.71823E-07 3.60402E-14
1.90386E-07 2.98429E-14
2.09900E-07 2.49436E-14
2.30367E-07 2.10187E-14
2.51785E-07 1.78443E-14
2.74156E-07 1.52525E-14
2.97478E-07 1.31169E-14
3.21752E-07 1.13429E-14
3.46978E-07 9.85947E-15
3.73156E-07 8.61058E-15
4.00286E-07 7.55122E-15
4.28368E-07 6.64881E-15
4.57402E-07 5.87633E-15
4.87388E-07 5.20821E-15
5.18325E-07 4.63394E-15
5.50215E-07 4.13881E-15
5.83057E-07 3.70445E-15
6.16850E-07 3.32532E-15
6.51596E-07 2.99454E-15
6.87293E-07 2.70234E-15
7.23942E-07 2.44435E-15
7.61543E-07 2.21699E-15
1.18991E-06 9.29859E-16
1.71347E-06 4.54863E-16
2.33223E-06 2.48231E-16
3.04617E-06 1.46845E-16
3.85531E-06 9.23842E-17
4.75964E-06 6.10055E-17
5.75916E-06 4.18919E-17
6.85388E-06 2.97109E-17
8.04378E-06 2.16512E-17
9.32888E-06 1.61469E-17
1.07092E-05 1.22845E-17
1.21846E-05 9.51009E-18
1.37553E-05 7.47599E-18
1.54212E-05 5.95740E-18
1.71822E-05 4.80527E-18
1.90385E-05 3.91801E-18
2.09899E-05 3.22726E-18
2.30365E-05 2.68204E-18
2.51783E-05 2.24700E-18
2.74153E-05 1.89650E-18
2.97475E-05 1.61165E-18
3.21749E-05 1.37830E-18
3.46974E-05 1.18572E-18
3.73152E-05 1.02568E-18
4.00281E-05 8.91782E-19
4.28362E-05 7.79056E-19
4.57395E-05 6.83591E-19
4.87380E-05 6.02297E-19
5.18317E-05 5.32721E-19
5.50205E-05 4.72898E-19
5.83045E-05 4.21236E-19
6.16838E-05 3.76443E-19
6.51582E-05 3.37454E-19
6.87277E-05 3.03392E-19
7.23925E-05 2.73527E-19
7.61524E-05 2.47304E-19
9.21439E-05 1.69073E-19
1.09658E-04 1.19477E-19
1.28695E-04 8.68162E-20
1.49255E-04 6.45930E-20
1.71338E-04 4.90527E-20
1.94942E-04 3.79192E-20
2.20070E-04 2.97749E-20
2.46720E-04 2.37061E-20
2.74892E-04 1.91086E-20
3.04586E-04 1.55747E-20
3.35803E-04 1.28218E-20
3.68542E-04 1.06519E-20
4.02802E-04 8.92255E-21
4.38585E-04 7.53072E-21
4.75889E-04 6.40033E-21
5.14715E-04 5.47450E-21
5.55063E-04 4.71042E-21
5.96931E-04 4.07526E-21
6.40321E-04 3.54377E-21
6.85233E-04 3.09629E-21
7.31665E-04 2.71735E-21
7.79618E-04 2.39474E-21
8.29092E-04 2.11867E-21
8.80086E-04 1.88132E-21
9.32601E-04 1.67635E-21
9.86636E-04 1.49859E-21
1.04219E-03 1.34381E-21
1.09927E-03 1.20854E-21
1.15786E-03 1.08990E-21
1.21797E-03 9.85488E-22
1.27961E-03 8.93303E-22
1.34276E-03 8.11669E-22
1.40743E-03 7.39163E-22
1.47362E-03 6.74590E-22
1.54133E-03 6.16928E-22
1.61056E-03 5.65306E-22
1.68131E-03 5.18983E-22
1.75357E-03 4.77314E-22
1.82735E-03 4.39753E-22
1.90265E-03 4.05819E-22
1.97947E-03 3.75102E-22
2.05780E-03 3.47242E-22
2.13765E-03 3.21925E-22
2.21902E-03 2.98877E-22
2.30190E-03 2.77858E-22
2.38630E-03 2.58658E-22
2.47222E-03 2.41090E-22
2.55965E-03 2.24991E-22
2.64859E-03 2.10215E-22
2.73905E-03 1.96634E-22
2.83103E-03 1.84134E-22
2.92452E-03 1.72612E-22
3.01952E-03 1.61979E-22
3.11604E-03 1.52153E-22
3.21407E-03 1.43062E-22
3.31362E-03 1.34640E-22
3.41468E-03 1.26830E-22
3.51725E-03 1.19579E-22
3.62133E-03 1.12838E-22
3.72692E-03 1.06567E-22
3.83403E-03 1.00725E-22
3.94265E-03 9.52791E-23
4.05278E-03 9.01962E-23
4.16442E-03 8.54479E-23
4.27757E-03 8.10081E-23
4.39223E-03 7.68531E-23
4.50840E-03 7.29612E-23
4.62608E-03 6.93126E-23
4.74527E-03 6.58893E-23
4.86597E-03 6.26748E-23
4.98817E-03 5.96539E-23
5.11188E-03 5.68128E-23
5.23711E-03 5.41388E-23
5.36383E-03 5.16203E-23
5.49207E-03 4.92464E-23
5.62181E-03 4.70074E-23
5.75306E-03 4.48941E-23
5.88581E-03 4.28982E-23
6.02007E-03 4.10118E-23
6.15583E-03 3.92279E-23
6.29310E-03 3.75399E-23
6.43187E-03 3.59416E-23
6.57214E-03 3.44273E-23
6.71392E-03 3.29918E-23
6.85720E-03 3.16303E-23
7.00198E-03 3.03381E-23
7.14827E-03 2.91111E-23
7.29605E-03 2.79455E-23
7.44534E-03 2.68374E-23
7.59612E-03 2.57836E-23
7.97965E-03 2.33663E-23
8.37255E-03 2.12251E-23
8.77480E-03 1.93228E-23
9.18641E-03 1.76283E-23
9.60736E-03 1.61149E-23
1.00376E-02 1.47598E-23
1.04773E-02 1.35436E-23
1.09262E-02 1.24494E-23
1.13844E-02 1.14630E-23
1.18520E-02 1.05718E-23
1.23288E-02 9.76507E-24
1.28150E-02 9.03330E-24
1.33104E-02 8.36832E-24
1.38150E-02 7.76294E-24
1.43290E-02 7.21089E-24
1.48521E-02 6.70662E-24
1.53845E-02 6.24527E-24
1.59262E-02 5.82252E-24
1.64770E-02 5.43458E-24
1.70371E-02 5.07806E-24
1.76063E-02 4.74996E-24
1.81848E-02 4.44763E-24
1.87724E-02 4.16866E-24
1.93692E-02 3.91093E-24
1.99751E-02 3.67254E-24
2.05901E-02 3.45178E-24
2.12143E-02 3.24710E-24
2.18476E-02 3.05713E-24
2.24900E-02 2.88062E-24
2.31415E-02 2.71645E-24
2.38021E-02 2.56360E-24
2.44717E-02 2.42115E-24
2.51504E-02 2.28827E-24
2.58382E-02 2.16420E-24
2.65349E-02 2.04825E-24
2.72407E-02 1.93979E-24
2.79555E-02 1.83826E-24
2.86793E-02 1.74314E-24
2.94120E-02 1.65394E-24
3.01537E-02 1.57024E-24
3.09043E-02 1.49163E-24
3.16639E-02 1.41775E-24
3.24324E-02 1.34826E-24
3.32098E-02 1.28287E-24
3.39961E-02 1.22127E-24
3.47912E-02 1.16323E-24
3.55952E-02 1.10848E-24
3.64081E-02 1.05682E-24
3.72297E-02 1.00804E-24
3.80602E-02 9.61955E-25
3.88995E-02 9.18382E-25
3.97476E-02 8.77164E-25
4.06044E-02 8.38152E-25
4.14700E-02 8.01207E-25
4.23443E-02 7.66201E-25
4.32273E-02 7.33014E-25
4.41190E-02 7.01536E-25
4.50194E-02 6.71663E-25
4.59284E-02 6.43299E-25
4.68461E-02 6.16356E-25
4.87074E-02 5.66401E-25
5.06030E-02 5.21199E-25
5.25328E-02 4.80224E-25
5.44967E-02 4.43018E-25
5.64946E-02 4.09179E-25
5.85262E-02 3.78355E-25
6.05914E-02 3.50235E-25
6.26901E-02 3.24545E-25
6.48222E-02 3.01042E-25
6.69873E-02 2.79511E-25
6.91854E-02 2.59761E-25
7.14163E-02 2.41622E-25
7.36799E-02 2.24944E-25
7.59760E-02 2.09590E-25
7.83043E-02 1.95440E-25
8.06647E-02 1.82386E-25
8.30571E-02 1.70330E-25
8.54812E-02 1.59184E-25
8.79369E-02 1.48870E-25
9.04240E-02 1.39317E-25
9.29422E-02 1.30460E-25
9.54915E-02 1.22243E-25
9.80716E-02 1.14611E-25
1.00682E-01 1.07518E-25
1.03323E-01 1.00920E-25
1.05995E-01 9.47783E-26
1.08696E-01 8.90566E-26
1.11427E-01 8.37226E-26
1.14188E-01 7.87464E-26
1.16978E-01 7.41010E-26
1.19797E-01 6.97614E-26
1.22645E-01 6.57049E-26
1.25522E-01 6.19108E-26
1.28428E-01 5.83599E-26
1.31361E-01 5.50347E-26
1.34323E-01 5.19190E-26
1.37313E-01 4.89982E-26
1.40330E-01 4.62585E-26
1.43375E-01 4.36874E-26
1.46447E-01 4.12732E-26
1.49545E-01 3.90054E-26
1.52671E-01 3.68740E-26
1.55823E-01 3.48698E-26
1.59001E-01 3.29846E-26
1.62205E-01 3.12103E-26
1.65435E-01 2.95398E-26
1.68690E-01 2.79664E-26
1.71970E-01 2.64839E-26
1.75276E-01 2.50864E-26
1.78606E-01 2.37686E-26
1.81961E-01 2.25254E-26
1.85340E-01 2.13523E-26
1.88743E-01 2.02448E-26
1.92169E-01 1.91991E-26
1.95619E-01 1.82112E-26
1.99092E-01 1.72778E-26
2.02589E-01 1.63955E-26
2.06107E-01 1.55613E-26
2.09649E-01 1.47723E-26
2.13212E-01 1.40258E-26
2.16797E-01 1.33195E-26
2.20404E-01 1.26509E-26
2.24032E-01 1.20179E-26
2.27680E-01 1.14183E-26
2.31350E-01 1.08504E-26
2.35040E-01 1.03123E-26
2.38751E-01 9.80232E-27
2.42481E-01 9.31887E-27
2.46231E-01 8.86049E-27
2.50000E-01 8.42578E-27
2.53788E-01 8.01343E-27
2.57595E-01 7.62221E-27
2.61421E-01 7.25096E-27
2.65264E-01 6.89860E-27
2.69126E-01 6.56411E-27
2.73005E-01 6.24651E-27
2.76901E-01 5.94491E-27
2.80814E-01 5.65845E-27
2.84744E-01 5.38633E-27
2.88691E-01 5.12778E-27
2.92653E-01 4.88210E-27
2.96632E-01 4.64859E-27
3.00625E-01 4.42664E-27
3.04634E-01 4.21563E-27
3.08658E-01 4.01500E-27
3.12697E-01 3.82422E-27
3.16749E-01 3.64277E-27
3.20816E-01 3.47018E-27
3.24896E-01 3.30599E-27
3.28990E-01 3.14978E-27
3.33097E-01 3.00115E-27
3.37216E-01 2.85970E-27
3.41348E-01 2.72508E-27
3.45492E-01 2.59695E-27
3.49647E-01 2.47497E-27
3.53814E-01 2.35885E-27
3.57992E-01 2.24829E-27
3.62181E-01 2.14301E-27
3.66381E-01 2.04276E-27
3.70590E-01 1.94728E-27
3.74810E-01 1.85635E-27
3.79039E-01 1.76973E-27
3.83277E-01 1.68722E-27
3.87524E-01 1.60861E-27
3.91780E-01 1.53372E-27
3.96044E-01 1.46237E-27
4.00316E-01 1.39438E-27
4.04596E-01 1.32959E-27
4.08882E-01 1.26784E-27
4.13176E-01 1.20900E-27
4.17476E-01 1.15292E-27
4.21783E-01 1.09946E-27
4.26095E-01 1.04851E-27
4.30413E-01 9.99944E-28
4.34737E-01 9.53644E-28
4.39065E-01 9.09506E-28
4.43398E-01 8.67425E-28
4.47736E-01 8.27306E-28
4.52077E-01 7.89055E-28
4.56422E-01 7.52583E-28
4.60770E-01 7.17806E-28
4.65122E-01 6.84646E-28
4.69476E-01 6.53025E-28
4.73832E-01 6.22871E-28
4.78190E-01 5.94115E-28
4.82550E-01 5.66692E-28
4.86912E-01 5.40539E-28
4.91274E-01 5.15597E-28
4.95637E-01 4.91810E-28
5.00000E-01 4.69122E-28
5.04363E-01 4.47484E-28
5.08726E-01 4.26846E-28
5.13088E-01 4.07161E-28
5.17450E-01 3.88386E-28
5.21810E-01 3.70478E-28
5.26168E-01 3.53397E-28
5.30524E-01 3.37104E-28
5.34878E-01 3.21563E-28
5.39230E-01 3.06739E-28
5.43578E-01 2.92598E-28
5.47923E-01 2.79110E-28
5.52264E-01 2.66245E-28
5.56602E-01 2.53972E-28
5.60935E-01 2.42265E-28
5.65263E-01 2.31098E-28
5.69587E-01 2.20446E-28
5.73905E-01 2.10286E-28
5.78217E-01 2.00593E-28
5.82524E-01 1.91348E-28
5.86824E-01 1.82529E-28
5.91118E-01 1.74116E-28
5.95404E-01 1.66092E-28
5.99684E-01 1.58437E-28
6.03956E-01 1.51136E-28
6.08220E-01 1.44171E-28
6.12476E-01 1.37528E-28
6.16723E-01 1.31191E-28
6.20961E-01 1.25146E-28
6.25190E-01 1.19381E-28
6.29410E-01 1.13881E-28
6.33619E-01 1.08636E-28
6.37819E-01 1.03632E-28
6.42008E-01 9.88600E-29
6.46186E-01 9.43081E-29
6.50353E-01 8.99664E-29
6.54508E-01 8.58253E-29
6.58652E-01 8.18756E-29
6.62784E-01 7.81084E-29
6.66903E-01 7.45153E-29
6.71010E-01 7.10883E-29
6.75104E-01 6.78198E-29
6.79184E-01 6.47025E-29
6.83251E-01 6.17293E-29
6.87303E-01 5.88936E-29
6.91342E-01 5.61892E-29
6.95366E-01 5.36099E-29
6.99375E-01 5.11499E-29
7.03368E-01 4.88038E-29
7.07347E-01 4.65663E-29
7.11309E-01 4.44323E-29
7.15256E-01 4.23971E-29
7.19186E-01 4.04562E-29
7.23099E-01 3.86051E-29
7.26995E-01 3.68396E-29
7.30874E-01 3.51560E-29
7.34736E-01 3.35502E-29
7.38579E-01 3.20188E-29
7.42405E-01 3.05582E-29
7.46212E-01 2.91653E-29
7.50000E-01 2.78368E-29
7.53769E-01 2.65698E-29
7.57519E-01 2.53614E-29
7.61249E-01 2.42088E-29
7.64960E-01 2.31095E-29
7.68650E-01 2.20611E-29
7.72320E-01 2.10611E-29
7.75968E-01 2.01072E-29
7.79596E-01 1.91974E-29
7.83203E-01 1.83296E-29
7.86788E-01 1.75018E-29
7.90351E-01 1.67121E-29
7.93893E-01 1.59588E-29
7.97411E-01 1.52402E-29
8.00908E-01 1.45546E-29
8.04381E-01 1.39006E-29
8.07831E-01 1.32766E-29
8.11257E-01 1.26812E-29
8.14660E-01 1.21131E-29
8.18039E-01 1.15710E-29
8.21394E-01 1.10537E-29
8.24724E-01 1.05600E-29
8.28030E-01 1.00888E-29
8.31310E-01 9.63914E-30
8.34565E-01 9.20992E-30
8.37795E-01 8.80021E-30
8.40999E-01 8.40908E-30
8.44177E-01 8.03566E-30
8.47329E-01 7.67913E-30
8.50455E-01 7.33870E-30
8.53553E-01 7.01360E-30
8.56625E-01 6.70313E-30
8.59670E-01 6.40658E-30
8.62687E-01 6.12332E-30
8.65677E-01 5.85272E-30
8.68639E-01 5.59418E-30
8.71572E-01 5.34714E-30
8.74478E-01 5.11107E-30
8.77355E-01 4.88544E-30
8.80203E-01 4.66978E-30
8.83022E-01 4.46361E-30
8.85812E-01 4.26649E-30
8.88573E-01 4.07801E-30
8.91304E-01 3.89775E-30
8.94005E-01 3.72534E-30
8.96677E-01 3.56042E-30
8.99318E-01 3.40263E-30
9.01928E-01 3.25164E-30
9.04508E-01 3.10714E-30
9.07058E-01 2.96884E-30
9.09576E-01 2.83644E-30
9.12063E-01 2.70967E-30
9.14519E-01 2.58828E-30
9.16943E-01 2.47202E-30
9.19335E-01 2.36066E-30
9.21696E-01 2.25397E-30
9.24024E-01 2.15175E-30
9.26320E-01 2.05379E-30
9.28584E-01 1.95989E-30
9.30815E-01 1.86989E-30
9.33013E-01 1.78360E-30
9.35178E-01 1.70086E-30
9.37310E-01 1.62151E-30
9.39409E-01 1.54541E-30
9.41474E-01 1.47240E-30
9.43505E-01 1.40237E-30
9.45503E-01 1.33517E-30
9.47467E-01 1.27070E-30
9.49397E-01 1.20882E-30
9.51293E-01 1.14944E-30
9.53154E-01 1.09245E-30
9.54981E-01 1.03774E-30
9.56773E-01 9.85229E-31
9.58530E-01 9.34823E-31
9.60252E-01 8.86436E-31
9.61940E-01 8.39989E-31
9.63592E-01 7.95404E-31
9.65209E-01 7.52610E-31
9.66790E-01 7.11536E-31
9.68336E-01 6.72118E-31
9.69846E-01 6.34294E-31
9.71321E-01 5.98004E-31
9.72759E-01 5.63192E-31
9.74162E-01 5.29806E-31
9.75528E-01 4.97796E-31
9.76858E-01 4.67114E-31
9.78152E-01 4.37714E-31
9.79410E-01 4.09555E-31
9.80631E-01 3.82596E-31
9.81815E-01 3.56799E-31
9.82963E-01 3.32127E-31
9.84074E-01 3.08547E-31
9.85148E-01 2.86026E-31
9.86185E-01 2.64534E-31
9.87185E-01 2.44042E-31
9.88148E-01 2.24523E-31
9.89074E-01 2.05952E-31
9.89962E-01 1.88304E-31
9.90814E-01 1.71557E-31
9.91627E-01 1.55690E-31
9.92404E-01 1.40683E-31
9.93143E-01 1.26517E-31
9.93844E-01 1.13175E-31
9.94508E-01 1.00640E-31
9.95134E-01 8.88980E-32
9.95722E-01 7.79344E-32
9.96273E-01 6.77362E-32
9.96786E-01 5.82913E-32
9.97261E-01 4.95888E-32
9.97698E-01 4.16185E-32
9.98097E-01 3.43713E-32
9.98459E-01 2.78387E-32
9.98782E-01 2.20135E-32
9.99067E-01 1.68889E-32
9.99315E-01 1.24591E-32
9.99524E-01 8.71917E-33
9.99695E-01 5.66493E-33
9.99829E-01 3.29294E-33
9.99924E-01 1.60054E-33
9.99981E-01 5.85847E-34
1.00000E+00 2.47762E-34
