 #
 # Subroutine ELSEPA. Elastic scattering of electrons and positrons
 #                    by neutral atoms and positive ions
 #
 # Projectile: electron
 # Kinetic energy = 3.50000E+08 eV = 1.28623E+07 a.u.
 #
 # WARNING: High-energy factorization with free-atom DF screening.
 #          Absorption, polarization and exchange corrections are
 #          switched off.
 #          Phase shifts are calculated for the bare nucleus.
 #          Scattering amplitudes are not evaluated.
 #
 # Element: Rb,  Z =  37,  atomic weight = 8.54678E+01 g/mol
 #
 # Nuclear model: Fermi distribution
 #                Average radius = 4.71322E-13 cm
 #                Skin thickness = 5.46000E-14 cm
 #
 # Number of electrons = 37
 #
 # Total elastic cross section = 3.32406E-18 cm**2 = 1.18704E-01 a0**2
 # 1st transport cross section = 2.24688E-26 cm**2 = 8.02375E-10 a0**2
 # 2nd transport cross section = 6.73487E-26 cm**2 = 2.40507E-09 a0**2
 #
 #
 # Differential cross section:                       MU=(1-COS(THETA))/2
 #
 #  THETA        MU          DCS          DCS        Sherman      error
 #  (deg)                 (cm**2/sr)   (a0**2/sr)    function
 #----------------------------------------------------------------------
0.00000E+00 6.43312E-09
7.61557E-13 5.91547E-09
1.18994E-12 5.65483E-09
1.71346E-12 5.36240E-09
2.33225E-12 5.05323E-09
3.04617E-12 4.72875E-09
3.85530E-12 4.40761E-09
4.75964E-12 4.09325E-09
5.75917E-12 3.78720E-09
6.85391E-12 3.50547E-09
8.04379E-12 3.23952E-09
9.32893E-12 2.99224E-09
1.07092E-11 2.77072E-09
1.21847E-11 2.56576E-09
1.37554E-11 2.38053E-09
1.54213E-11 2.21450E-09
1.71823E-11 2.06243E-09
1.90386E-11 1.92647E-09
2.09900E-11 1.80326E-09
2.30367E-11 1.69057E-09
2.51785E-11 1.58943E-09
2.74156E-11 1.49660E-09
2.97478E-11 1.41145E-09
3.21752E-11 1.33381E-09
3.46979E-11 1.26194E-09
3.73157E-11 1.19558E-09
4.00286E-11 1.13402E-09
4.28368E-11 1.07674E-09
4.57402E-11 1.02328E-09
4.87388E-11 9.73183E-10
5.18325E-11 9.26334E-10
5.50215E-11 8.82117E-10
5.83057E-11 8.40510E-10
6.16850E-11 8.01439E-10
6.51595E-11 7.64197E-10
6.87293E-11 7.29139E-10
7.23943E-11 6.95998E-10
7.61544E-11 6.64379E-10
1.18991E-10 4.24325E-10
1.71347E-10 2.78320E-10
2.33223E-10 1.86888E-10
3.04617E-10 1.32266E-10
3.85531E-10 9.60957E-11
4.75965E-10 7.21217E-11
5.75917E-10 5.57242E-11
6.85389E-10 4.36680E-11
8.04380E-10 3.48810E-11
9.32891E-10 2.82680E-11
1.07092E-09 2.30258E-11
1.21847E-09 1.89758E-11
1.37554E-09 1.57354E-11
1.54213E-09 1.31059E-11
1.71823E-09 1.10026E-11
1.90386E-09 9.26853E-12
2.09900E-09 7.84908E-12
2.30367E-09 6.68824E-12
2.51785E-09 5.71649E-12
2.74156E-09 4.91346E-12
2.97478E-09 4.24480E-12
3.21752E-09 3.68041E-12
3.46978E-09 3.20749E-12
3.73156E-09 2.80740E-12
4.00286E-09 2.46704E-12
4.28368E-09 2.17748E-12
4.57402E-09 1.92928E-12
4.87388E-09 1.71556E-12
5.18326E-09 1.53112E-12
5.50215E-09 1.37102E-12
5.83057E-09 1.23177E-12
6.16850E-09 1.11021E-12
6.51596E-09 1.00346E-12
6.87293E-09 9.09586E-13
7.23942E-09 8.26691E-13
7.61544E-09 7.53130E-13
1.18991E-08 3.31056E-13
1.71347E-08 1.67857E-13
2.33223E-08 9.35594E-14
3.04617E-08 5.59942E-14
3.85531E-08 3.54451E-14
4.75965E-08 2.34910E-14
5.75917E-08 1.61681E-14
6.85389E-08 1.14908E-14
8.04380E-08 8.39032E-15
9.32891E-08 6.27015E-15
1.07092E-07 4.78061E-15
1.21847E-07 3.70880E-15
1.37554E-07 2.92177E-15
1.54213E-07 2.33308E-15
1.71823E-07 1.88559E-15
1.90386E-07 1.54052E-15
2.09900E-07 1.27089E-15
2.30367E-07 1.05777E-15
2.51785E-07 8.87495E-16
2.74156E-07 7.50133E-16
2.97478E-07 6.38338E-16
3.21752E-07 5.46592E-16
3.46978E-07 4.70746E-16
3.73156E-07 4.07595E-16
4.00286E-07 3.54679E-16
4.28368E-07 3.10071E-16
4.57402E-07 2.72250E-16
4.87388E-07 2.40021E-16
5.18325E-07 2.12416E-16
5.50215E-07 1.88664E-16
5.83057E-07 1.68138E-16
6.16850E-07 1.50325E-16
6.51596E-07 1.34809E-16
6.87293E-07 1.21241E-16
7.23942E-07 1.09336E-16
7.61543E-07 9.88564E-17
1.18991E-06 4.06331E-17
1.71347E-06 1.96316E-17
2.33223E-06 1.06082E-17
3.04617E-06 6.22284E-18
3.85531E-06 3.88690E-18
4.75964E-06 2.55121E-18
5.75916E-06 1.74308E-18
6.85388E-06 1.23107E-18
8.04378E-06 8.94004E-19
9.32888E-06 6.64809E-19
1.07092E-05 5.04584E-19
1.21846E-05 3.89854E-19
1.37553E-05 3.05962E-19
1.54212E-05 2.43472E-19
1.71822E-05 1.96155E-19
1.90385E-05 1.59778E-19
2.09899E-05 1.31497E-19
2.30365E-05 1.09202E-19
2.51783E-05 9.14310E-20
2.74153E-05 7.71272E-20
2.97475E-05 6.55117E-20
3.21749E-05 5.60032E-20
3.46974E-05 4.81607E-20
3.73152E-05 4.16468E-20
4.00281E-05 3.61998E-20
4.28362E-05 3.16160E-20
4.57395E-05 2.77355E-20
4.87380E-05 2.44323E-20
5.18317E-05 2.16061E-20
5.50205E-05 1.91767E-20
5.83045E-05 1.70792E-20
6.16838E-05 1.52610E-20
6.51582E-05 1.36788E-20
6.87277E-05 1.22967E-20
7.23925E-05 1.10851E-20
7.61524E-05 1.00175E-20
9.21439E-05 6.84356E-21
1.09658E-04 4.83238E-21
1.28695E-04 3.50850E-21
1.49255E-04 2.60806E-21
1.71338E-04 1.97864E-21
1.94942E-04 1.52790E-21
2.20070E-04 1.19832E-21
2.46720E-04 9.52844E-22
2.74892E-04 7.66975E-22
3.04586E-04 6.24184E-22
3.35803E-04 5.13017E-22
3.68542E-04 4.25443E-22
4.02802E-04 3.55704E-22
4.38585E-04 2.99616E-22
4.75889E-04 2.54101E-22
5.14715E-04 2.16855E-22
5.55063E-04 1.86144E-22
5.96931E-04 1.60640E-22
6.40321E-04 1.39322E-22
6.85233E-04 1.21393E-22
7.31665E-04 1.06229E-22
7.79618E-04 9.33340E-23
8.29092E-04 8.23145E-23
8.80086E-04 7.28536E-23
9.32601E-04 6.46950E-23
9.86636E-04 5.76301E-23
1.04219E-03 5.14887E-23
1.09927E-03 4.61300E-23
1.15786E-03 4.14382E-23
1.21797E-03 3.73166E-23
1.27961E-03 3.36845E-23
1.34276E-03 3.04742E-23
1.40743E-03 2.76287E-23
1.47362E-03 2.50998E-23
1.54133E-03 2.28465E-23
1.61056E-03 2.08337E-23
1.68131E-03 1.90316E-23
1.75357E-03 1.74146E-23
1.82735E-03 1.59605E-23
1.90265E-03 1.46502E-23
1.97947E-03 1.34671E-23
2.05780E-03 1.23970E-23
2.13765E-03 1.14273E-23
2.21902E-03 1.05470E-23
2.30190E-03 9.74652E-24
2.38630E-03 9.01752E-24
2.47222E-03 8.35255E-24
2.55965E-03 7.74510E-24
2.64859E-03 7.18940E-24
2.73905E-03 6.68033E-24
2.83103E-03 6.21336E-24
2.92452E-03 5.78447E-24
3.01952E-03 5.39006E-24
3.11604E-03 5.02692E-24
3.21407E-03 4.69219E-24
3.31362E-03 4.38330E-24
3.41468E-03 4.09794E-24
3.51725E-03 3.83406E-24
3.62133E-03 3.58979E-24
3.72692E-03 3.36344E-24
3.83403E-03 3.15351E-24
3.94265E-03 2.95863E-24
4.05278E-03 2.77756E-24
4.16442E-03 2.60916E-24
4.27757E-03 2.45244E-24
4.39223E-03 2.30645E-24
4.50840E-03 2.17036E-24
4.62608E-03 2.04339E-24
4.74527E-03 1.92486E-24
4.86597E-03 1.81411E-24
4.98817E-03 1.71057E-24
5.11188E-03 1.61370E-24
5.23711E-03 1.52301E-24
5.36383E-03 1.43806E-24
5.49207E-03 1.35843E-24
5.62181E-03 1.28374E-24
5.75306E-03 1.21364E-24
5.88581E-03 1.14782E-24
6.02007E-03 1.08598E-24
6.15583E-03 1.02785E-24
6.29310E-03 9.73176E-25
6.43187E-03 9.21725E-25
6.57214E-03 8.73286E-25
6.71392E-03 8.27660E-25
6.85720E-03 7.84662E-25
7.00198E-03 7.44124E-25
7.14827E-03 7.05887E-25
7.29605E-03 6.69805E-25
7.44534E-03 6.35743E-25
7.59612E-03 6.03574E-25
7.97965E-03 5.30683E-25
8.37255E-03 4.67291E-25
8.77480E-03 4.12037E-25
9.18641E-03 3.63775E-25
9.60736E-03 3.21539E-25
1.00376E-02 2.84509E-25
1.04773E-02 2.51988E-25
1.09262E-02 2.23381E-25
1.13844E-02 1.98182E-25
1.18520E-02 1.75952E-25
1.23288E-02 1.56317E-25
1.28150E-02 1.38954E-25
1.33104E-02 1.23583E-25
1.38150E-02 1.09961E-25
1.43290E-02 9.78783E-26
1.48521E-02 8.71515E-26
1.53845E-02 7.76209E-26
1.59262E-02 6.91471E-26
1.64770E-02 6.16080E-26
1.70371E-02 5.48966E-26
1.76063E-02 4.89188E-26
1.81848E-02 4.35921E-26
1.87724E-02 3.88436E-26
1.93692E-02 3.46092E-26
1.99751E-02 3.08320E-26
2.05901E-02 2.74619E-26
2.12143E-02 2.44545E-26
2.18476E-02 2.17705E-26
2.24900E-02 1.93749E-26
2.31415E-02 1.72366E-26
2.38021E-02 1.53281E-26
2.44717E-02 1.36248E-26
2.51504E-02 1.21048E-26
2.58382E-02 1.07487E-26
2.65349E-02 9.53908E-27
2.72407E-02 8.46038E-27
2.79555E-02 7.49876E-27
2.86793E-02 6.64184E-27
2.94120E-02 5.87855E-27
3.01537E-02 5.19897E-27
3.09043E-02 4.59426E-27
3.16639E-02 4.05647E-27
3.24324E-02 3.57851E-27
3.32098E-02 3.15400E-27
3.39961E-02 2.77726E-27
3.47912E-02 2.44317E-27
3.55952E-02 2.14717E-27
3.64081E-02 1.88515E-27
3.72297E-02 1.65343E-27
3.80602E-02 1.44874E-27
3.88995E-02 1.26811E-27
3.97476E-02 1.10891E-27
4.06044E-02 9.68774E-28
4.14700E-02 8.45578E-28
4.23443E-02 7.37428E-28
4.32273E-02 6.42628E-28
4.41190E-02 5.59659E-28
4.50194E-02 4.87166E-28
4.59284E-02 4.23935E-28
4.68461E-02 3.68885E-28
4.87074E-02 2.79566E-28
5.06030E-02 2.12675E-28
5.25328E-02 1.63031E-28
5.44967E-02 1.26546E-28
5.64946E-02 1.00010E-28
5.85262E-02 8.09118E-29
6.05914E-02 6.73053E-29
6.26901E-02 5.76903E-29
6.48222E-02 5.09222E-29
6.69873E-02 4.61369E-29
6.91854E-02 4.26907E-29
7.14163E-02 4.01120E-29
7.36799E-02 3.80621E-29
7.59760E-02 3.63047E-29
7.83043E-02 3.46806E-29
8.06647E-02 3.30888E-29
8.30571E-02 3.14704E-29
8.54812E-02 2.97973E-29
8.79369E-02 2.80622E-29
9.04240E-02 2.62721E-29
9.29422E-02 2.44427E-29
9.54915E-02 2.25943E-29
9.80716E-02 2.07490E-29
1.00682E-01 1.89288E-29
1.03323E-01 1.71541E-29
1.05995E-01 1.54427E-29
1.08696E-01 1.38098E-29
1.11427E-01 1.22672E-29
1.14188E-01 1.08238E-29
1.16978E-01 9.48547E-30
1.19797E-01 8.25547E-30
1.22645E-01 7.13464E-30
1.25522E-01 6.12182E-30
1.28428E-01 5.21409E-30
1.31361E-01 4.40722E-30
1.34323E-01 3.69587E-30
1.37313E-01 3.07396E-30
1.40330E-01 2.53485E-30
1.43375E-01 2.07163E-30
1.46447E-01 1.67729E-30
1.49545E-01 1.34483E-30
1.52671E-01 1.06746E-30
1.55823E-01 8.38669E-31
1.59001E-01 6.52293E-31
1.62205E-01 5.02585E-31
1.65435E-01 3.84249E-31
1.68690E-01 2.92452E-31
1.71970E-01 2.22840E-31
1.75276E-01 1.71525E-31
1.78606E-01 1.35076E-31
1.81961E-01 1.10496E-31
1.85340E-01 9.51953E-32
1.88743E-01 8.69638E-32
1.92169E-01 8.39386E-32
1.95619E-01 8.45711E-32
1.99092E-01 8.75943E-32
2.02589E-01 9.19904E-32
2.06107E-01 9.69596E-32
2.09649E-01 1.01891E-31
2.13212E-01 1.06335E-31
2.16797E-01 1.09976E-31
2.20404E-01 1.12614E-31
2.24032E-01 1.14138E-31
2.27680E-01 1.14512E-31
2.31350E-01 1.13756E-31
2.35040E-01 1.11934E-31
2.38751E-01 1.09140E-31
2.42481E-01 1.05489E-31
2.46231E-01 1.01110E-31
2.50000E-01 9.61334E-32
2.53788E-01 9.06937E-32
2.57595E-01 8.49189E-32
2.61421E-01 7.89296E-32
2.65264E-01 7.28367E-32
2.69126E-01 6.67395E-32
2.73005E-01 6.07252E-32
2.76901E-01 5.48681E-32
2.80814E-01 4.92302E-32
2.84744E-01 4.38611E-32
2.88691E-01 3.87993E-32
2.92653E-01 3.40723E-32
2.96632E-01 2.96984E-32
3.00625E-01 2.56871E-32
3.04634E-01 2.20406E-32
3.08658E-01 1.87547E-32
3.12697E-01 1.58198E-32
3.16749E-01 1.32220E-32
3.20816E-01 1.09441E-32
3.24896E-01 8.96622E-33
3.28990E-01 7.26671E-33
3.33097E-01 5.82284E-33
3.37216E-01 4.61136E-33
3.41348E-01 3.60900E-33
3.45492E-01 2.79288E-33
3.49647E-01 2.14087E-33
3.53814E-01 1.63187E-33
3.57992E-01 1.24602E-33
3.62181E-01 9.64820E-34
3.66381E-01 7.71267E-34
3.70590E-01 6.49884E-34
3.74810E-01 5.86750E-34
3.79039E-01 5.69476E-34
3.83277E-01 5.87169E-34
3.87524E-01 6.30366E-34
3.91780E-01 6.90953E-34
3.96044E-01 7.62080E-34
4.00316E-01 8.38059E-34
4.04596E-01 9.14260E-34
4.08882E-01 9.87006E-34
4.13176E-01 1.05347E-33
4.17476E-01 1.11158E-33
4.21783E-01 1.15989E-33
4.26095E-01 1.19753E-33
4.30413E-01 1.22410E-33
4.34737E-01 1.23957E-33
4.39065E-01 1.24424E-33
4.43398E-01 1.23865E-33
4.47736E-01 1.22352E-33
4.52077E-01 1.19974E-33
4.56422E-01 1.16824E-33
4.60770E-01 1.13005E-33
4.65122E-01 1.08619E-33
4.69476E-01 1.03769E-33
4.73832E-01 9.85534E-34
4.78190E-01 9.30677E-34
4.82550E-01 8.74001E-34
4.86912E-01 8.16322E-34
4.91274E-01 7.58380E-34
4.95637E-01 7.00833E-34
5.00000E-01 6.44260E-34
5.04363E-01 5.89158E-34
5.08726E-01 5.35943E-34
5.13088E-01 4.84961E-34
5.17450E-01 4.36480E-34
5.21810E-01 3.90709E-34
5.26168E-01 3.47790E-34
5.30524E-01 3.07814E-34
5.34878E-01 2.70823E-34
5.39230E-01 2.36814E-34
5.43578E-01 2.05751E-34
5.47923E-01 1.77561E-34
5.52264E-01 1.52149E-34
5.56602E-01 1.29398E-34
5.60935E-01 1.09173E-34
5.65263E-01 9.13275E-35
5.69587E-01 7.57060E-35
5.73905E-01 6.21478E-35
5.78217E-01 5.04898E-35
5.82524E-01 4.05689E-35
5.86824E-01 3.22246E-35
5.91118E-01 2.53002E-35
5.95404E-01 1.96450E-35
5.99684E-01 1.51149E-35
6.03956E-01 1.15738E-35
6.08220E-01 8.89373E-36
6.12476E-01 6.95584E-36
6.16723E-01 5.65031E-36
6.20961E-01 4.87655E-36
6.25190E-01 4.54310E-36
6.29410E-01 4.56752E-36
6.33619E-01 4.87603E-36
6.37819E-01 5.40320E-36
6.42008E-01 6.09154E-36
6.46186E-01 6.89100E-36
6.50353E-01 7.75847E-36
6.54508E-01 8.65732E-36
6.58652E-01 9.55683E-36
6.62784E-01 1.04316E-35
6.66903E-01 1.12613E-35
6.71010E-01 1.20297E-35
6.75104E-01 1.27247E-35
6.79184E-01 1.33374E-35
6.83251E-01 1.38621E-35
6.87303E-01 1.42954E-35
6.91342E-01 1.46365E-35
6.95366E-01 1.48859E-35
6.99375E-01 1.50462E-35
7.03368E-01 1.51209E-35
7.07347E-01 1.51144E-35
7.11309E-01 1.50322E-35
7.15256E-01 1.48800E-35
7.19186E-01 1.46641E-35
7.23099E-01 1.43908E-35
7.26995E-01 1.40666E-35
7.30874E-01 1.36980E-35
7.34736E-01 1.32912E-35
7.38579E-01 1.28524E-35
7.42405E-01 1.23874E-35
7.46212E-01 1.19018E-35
7.50000E-01 1.14007E-35
7.53769E-01 1.08889E-35
7.57519E-01 1.03708E-35
7.61249E-01 9.85043E-36
7.64960E-01 9.33145E-36
7.68650E-01 8.81710E-36
7.72320E-01 8.31018E-36
7.75968E-01 7.81323E-36
7.79596E-01 7.32838E-36
7.83203E-01 6.85743E-36
7.86788E-01 6.40189E-36
7.90351E-01 5.96300E-36
7.93893E-01 5.54169E-36
7.97411E-01 5.13866E-36
8.00908E-01 4.75440E-36
8.04381E-01 4.38925E-36
8.07831E-01 4.04326E-36
8.11257E-01 3.71642E-36
8.14660E-01 3.40856E-36
8.18039E-01 3.11934E-36
8.21394E-01 2.84840E-36
8.24724E-01 2.59523E-36
8.28030E-01 2.35928E-36
8.31310E-01 2.13994E-36
8.34565E-01 1.93654E-36
8.37795E-01 1.74838E-36
8.40999E-01 1.57475E-36
8.44177E-01 1.41492E-36
8.47329E-01 1.26815E-36
8.50455E-01 1.13369E-36
8.53553E-01 1.01081E-36
8.56625E-01 8.98802E-37
8.59670E-01 7.96943E-37
8.62687E-01 7.04563E-37
8.65677E-01 6.20984E-37
8.68639E-01 5.45571E-37
8.71572E-01 4.77711E-37
8.74478E-01 4.16820E-37
8.77355E-01 3.62344E-37
8.80203E-01 3.13746E-37
8.83022E-01 2.70538E-37
8.85812E-01 2.32244E-37
8.88573E-01 1.98432E-37
8.91304E-01 1.68679E-37
8.94005E-01 1.42613E-37
8.96677E-01 1.19872E-37
8.99318E-01 1.00123E-37
9.01928E-01 8.30596E-38
9.04508E-01 6.84014E-38
9.07058E-01 5.58880E-38
9.09576E-01 4.52795E-38
9.12063E-01 3.63586E-38
9.14519E-01 2.89239E-38
9.16943E-01 2.27971E-38
9.19335E-01 1.78099E-38
9.21696E-01 1.38157E-38
9.24024E-01 1.06800E-38
9.26320E-01 8.28129E-39
9.28584E-01 6.51141E-39
9.30815E-01 5.27440E-39
9.33013E-01 4.48303E-39
9.35178E-01 4.06178E-39
9.37310E-01 3.94270E-39
9.39409E-01 4.06668E-39
9.41474E-01 4.38172E-39
9.43505E-01 4.84257E-39
9.45503E-01 5.41002E-39
9.47467E-01 6.05000E-39
9.49397E-01 6.73421E-39
9.51293E-01 7.43786E-39
9.53154E-01 8.14018E-39
9.54981E-01 8.82441E-39
9.56773E-01 9.47619E-39
9.58530E-01 1.00841E-38
9.60252E-01 1.06398E-38
9.61940E-01 1.11353E-38
9.63592E-01 1.15681E-38
9.65209E-01 1.19322E-38
9.66790E-01 1.22281E-38
9.68336E-01 1.24530E-38
9.69846E-01 1.26085E-38
9.71321E-01 1.26959E-38
9.72759E-01 1.27168E-38
9.74162E-01 1.26749E-38
9.75528E-01 1.25721E-38
9.76858E-01 1.24118E-38
9.78152E-01 1.21989E-38
9.79410E-01 1.19377E-38
9.80631E-01 1.16316E-38
9.81815E-01 1.12852E-38
9.82963E-01 1.09036E-38
9.84074E-01 1.04903E-38
9.85148E-01 1.00508E-38
9.86185E-01 9.58784E-39
9.87185E-01 9.10769E-39
9.88148E-01 8.61328E-39
9.89074E-01 8.10665E-39
9.89962E-01 7.59449E-39
9.90814E-01 7.07812E-39
9.91627E-01 6.56360E-39
9.92404E-01 6.05177E-39
9.93143E-01 5.54594E-39
9.93844E-01 5.04966E-39
9.94508E-01 4.56549E-39
9.95134E-01 4.09501E-39
9.95722E-01 3.64109E-39
9.96273E-01 3.20668E-39
9.96786E-01 2.79305E-39
9.97261E-01 2.40208E-39
9.97698E-01 2.03476E-39
9.98097E-01 1.69579E-39
9.98459E-01 1.38276E-39
9.98782E-01 1.09982E-39
9.99067E-01 8.46629E-40
9.99315E-01 6.25544E-40
9.99524E-01 4.36361E-40
9.99695E-01 2.80532E-40
9.99829E-01 1.58468E-40
9.99924E-01 7.13896E-41
9.99981E-01 1.84421E-41
1.00000E+00 1.14148E-42
