 #
 # Subroutine ELSEPA. Elastic scattering of electrons and positrons
 #                    by neutral atoms and positive ions
 #
 # Projectile: electron
 # Kinetic energy = 1.50000E+07 eV = 5.51240E+05 a.u.
 #
 # WARNING: High-energy factorization with free-atom DF screening.
 #          Absorption, polarization and exchange corrections are
 #          switched off.
 #          Phase shifts are calculated for the bare nucleus.
 #          Scattering amplitudes are not evaluated.
 #
 # Element: Rb,  Z =  37,  atomic weight = 8.54678E+01 g/mol
 #
 # Nuclear model: Fermi distribution
 #                Average radius = 4.71322E-13 cm
 #                Skin thickness = 5.46000E-14 cm
 #
 # Number of electrons = 37
 #
 # Total elastic cross section = 3.33197E-18 cm**2 = 1.18987E-01 a0**2
 # 1st transport cross section = 1.03374E-23 cm**2 = 3.69157E-07 a0**2
 # 2nd transport cross section = 2.95294E-23 cm**2 = 1.05451E-06 a0**2
 #
 #
 # Differential cross section:                       MU=(1-COS(THETA))/2
 #
 #  THETA        MU          DCS          DCS        Sherman      error
 #  (deg)                 (cm**2/sr)   (a0**2/sr)    function
 #----------------------------------------------------------------------
0.00000E+00 1.25979E-11
7.61557E-13 1.25957E-11
1.18994E-12 1.25946E-11
1.71346E-12 1.25931E-11
2.33225E-12 1.25914E-11
3.04617E-12 1.25894E-11
3.85530E-12 1.25871E-11
4.75964E-12 1.25846E-11
5.75917E-12 1.25818E-11
6.85391E-12 1.25787E-11
8.04379E-12 1.25754E-11
9.32893E-12 1.25718E-11
1.07092E-11 1.25680E-11
1.21847E-11 1.25639E-11
1.37554E-11 1.25595E-11
1.54213E-11 1.25549E-11
1.71823E-11 1.25500E-11
1.90386E-11 1.25448E-11
2.09900E-11 1.25394E-11
2.30367E-11 1.25337E-11
2.51785E-11 1.25278E-11
2.74156E-11 1.25216E-11
2.97478E-11 1.25151E-11
3.21752E-11 1.25084E-11
3.46979E-11 1.25015E-11
3.73157E-11 1.24942E-11
4.00286E-11 1.24868E-11
4.28368E-11 1.24790E-11
4.57402E-11 1.24711E-11
4.87388E-11 1.24628E-11
5.18325E-11 1.24543E-11
5.50215E-11 1.24456E-11
5.83057E-11 1.24366E-11
6.16850E-11 1.24274E-11
6.51595E-11 1.24179E-11
6.87293E-11 1.24082E-11
7.23943E-11 1.23982E-11
7.61544E-11 1.23880E-11
1.18991E-10 1.22725E-11
1.71347E-10 1.21338E-11
2.33223E-10 1.19734E-11
3.04617E-10 1.17927E-11
3.85531E-10 1.15935E-11
4.75965E-10 1.13776E-11
5.75917E-10 1.11469E-11
6.85389E-10 1.09035E-11
8.04380E-10 1.06492E-11
9.32891E-10 1.03861E-11
1.07092E-09 1.01211E-11
1.21847E-09 9.84801E-12
1.37554E-09 9.56688E-12
1.54213E-09 9.28447E-12
1.71823E-09 9.00922E-12
1.90386E-09 8.72983E-12
2.09900E-09 8.44745E-12
2.30367E-09 8.17805E-12
2.51785E-09 7.91219E-12
2.74156E-09 7.64610E-12
2.97478E-09 7.38496E-12
3.21752E-09 7.14011E-12
3.46978E-09 6.89688E-12
3.73156E-09 6.65586E-12
4.00286E-09 6.42992E-12
4.28368E-09 6.21248E-12
4.57402E-09 5.99816E-12
4.87388E-09 5.78962E-12
5.18326E-09 5.59816E-12
5.50215E-09 5.41023E-12
5.83057E-09 5.22606E-12
6.16850E-09 5.05373E-12
6.51596E-09 4.89028E-12
6.87293E-09 4.73056E-12
7.23942E-09 4.57534E-12
7.61544E-09 4.43364E-12
1.18991E-08 3.28753E-12
1.71347E-08 2.53498E-12
2.33223E-08 2.00812E-12
3.04617E-08 1.61619E-12
3.85531E-08 1.31294E-12
4.75965E-08 1.07315E-12
5.75917E-08 8.81589E-13
6.85389E-08 7.27770E-13
8.04380E-08 6.04089E-13
9.32891E-08 5.04535E-13
1.07092E-07 4.21200E-13
1.21847E-07 3.55875E-13
1.37554E-07 3.04605E-13
1.54213E-07 2.62592E-13
1.71823E-07 2.26370E-13
1.90386E-07 1.97111E-13
2.09900E-07 1.73226E-13
2.30367E-07 1.52387E-13
2.51785E-07 1.34800E-13
2.74156E-07 1.20120E-13
2.97478E-07 1.07562E-13
3.21752E-07 9.62842E-14
3.46978E-07 8.67004E-14
3.73156E-07 7.85035E-14
4.00286E-07 7.10453E-14
4.28368E-07 6.44393E-14
4.57402E-07 5.87156E-14
4.87388E-07 5.36707E-14
5.18325E-07 4.89298E-14
5.50215E-07 4.47791E-14
5.83057E-07 4.11295E-14
6.16850E-07 3.77487E-14
6.51596E-07 3.46629E-14
6.87293E-07 3.19279E-14
7.23942E-07 2.94841E-14
7.61543E-07 2.71546E-14
1.18991E-06 1.28681E-14
1.71347E-06 6.69786E-15
2.33223E-06 3.79979E-15
3.04617E-06 2.31975E-15
3.85531E-06 1.50337E-15
4.75964E-06 1.02056E-15
5.75916E-06 7.18332E-16
6.85388E-06 5.20570E-16
8.04378E-06 3.86361E-16
9.32888E-06 2.92517E-16
1.07092E-05 2.25142E-16
1.21846E-05 1.76116E-16
1.37553E-05 1.39669E-16
1.54212E-05 1.12011E-16
1.71822E-05 9.08620E-17
1.90385E-05 7.44543E-17
2.09899E-05 6.15770E-17
2.30365E-05 5.13558E-17
2.51783E-05 4.31669E-17
2.74153E-05 3.65426E-17
2.97475E-05 3.11360E-17
3.21749E-05 2.66958E-17
3.46974E-05 2.30222E-17
3.73152E-05 1.99598E-17
4.00281E-05 1.73922E-17
4.28362E-05 1.52263E-17
4.57395E-05 1.33879E-17
4.87380E-05 1.18189E-17
5.18317E-05 1.04737E-17
5.50205E-05 9.31505E-18
5.83045E-05 8.31212E-18
6.16838E-05 7.44110E-18
6.51582E-05 6.68174E-18
6.87277E-05 6.01702E-18
7.23925E-05 5.43316E-18
7.61524E-05 4.91877E-18
9.21439E-05 3.38134E-18
1.09658E-04 2.40071E-18
1.28695E-04 1.75142E-18
1.49255E-04 1.30751E-18
1.71338E-04 9.95793E-19
1.94942E-04 7.71653E-19
2.20070E-04 6.07170E-19
2.46720E-04 4.84265E-19
2.74892E-04 3.90934E-19
3.04586E-04 3.19047E-19
3.35803E-04 2.62947E-19
3.68542E-04 2.18657E-19
4.02802E-04 1.83313E-19
4.38585E-04 1.54832E-19
4.75889E-04 1.31677E-19
5.14715E-04 1.12695E-19
5.55063E-04 9.70156E-20
5.96931E-04 8.39729E-20
6.40321E-04 7.30520E-20
6.85233E-04 6.38520E-20
7.31665E-04 5.60572E-20
7.79618E-04 4.94179E-20
8.29092E-04 4.37342E-20
8.80086E-04 3.88458E-20
9.32601E-04 3.46228E-20
9.86636E-04 3.09591E-20
1.04219E-03 2.77684E-20
1.09927E-03 2.49790E-20
1.15786E-03 2.25319E-20
1.21797E-03 2.03779E-20
1.27961E-03 1.84757E-20
1.34276E-03 1.67908E-20
1.40743E-03 1.52942E-20
1.47362E-03 1.39610E-20
1.54133E-03 1.27703E-20
1.61056E-03 1.17042E-20
1.68131E-03 1.07473E-20
1.75357E-03 9.88649E-21
1.82735E-03 9.11040E-21
1.90265E-03 8.40920E-21
1.97947E-03 7.77438E-21
2.05780E-03 7.19851E-21
2.13765E-03 6.67515E-21
2.21902E-03 6.19865E-21
2.30190E-03 5.76404E-21
2.38630E-03 5.36699E-21
2.47222E-03 5.00365E-21
2.55965E-03 4.67065E-21
2.64859E-03 4.36499E-21
2.73905E-03 4.08402E-21
2.83103E-03 3.82537E-21
2.92452E-03 3.58695E-21
3.01952E-03 3.36689E-21
3.11604E-03 3.16351E-21
3.21407E-03 2.97532E-21
3.31362E-03 2.80096E-21
3.41468E-03 2.63925E-21
3.51725E-03 2.48908E-21
3.62133E-03 2.34949E-21
3.72692E-03 2.21959E-21
3.83403E-03 2.09858E-21
3.94265E-03 1.98574E-21
4.05278E-03 1.88041E-21
4.16442E-03 1.78201E-21
4.27757E-03 1.68999E-21
4.39223E-03 1.60386E-21
4.50840E-03 1.52317E-21
4.62608E-03 1.44751E-21
4.74527E-03 1.37652E-21
4.86597E-03 1.30985E-21
4.98817E-03 1.24718E-21
5.11188E-03 1.18823E-21
5.23711E-03 1.13275E-21
5.36383E-03 1.08048E-21
5.49207E-03 1.03120E-21
5.62181E-03 9.84721E-22
5.75306E-03 9.40841E-22
5.88581E-03 8.99391E-22
6.02007E-03 8.60209E-22
6.15583E-03 8.23150E-22
6.29310E-03 7.88075E-22
6.43187E-03 7.54859E-22
6.57214E-03 7.23384E-22
6.71392E-03 6.93541E-22
6.85720E-03 6.65230E-22
7.00198E-03 6.38357E-22
7.14827E-03 6.12834E-22
7.29605E-03 5.88582E-22
7.44534E-03 5.65524E-22
7.59612E-03 5.43591E-22
7.97965E-03 4.93259E-22
8.37255E-03 4.48651E-22
8.77480E-03 4.09001E-22
9.18641E-03 3.73661E-22
9.60736E-03 3.42078E-22
1.00376E-02 3.13781E-22
1.04773E-02 2.88367E-22
1.09262E-02 2.65491E-22
1.13844E-02 2.44852E-22
1.18520E-02 2.26193E-22
1.23288E-02 2.09288E-22
1.28150E-02 1.93943E-22
1.33104E-02 1.79989E-22
1.38150E-02 1.67275E-22
1.43290E-02 1.55671E-22
1.48521E-02 1.45063E-22
1.53845E-02 1.35349E-22
1.59262E-02 1.26440E-22
1.64770E-02 1.18257E-22
1.70371E-02 1.10730E-22
1.76063E-02 1.03796E-22
1.81848E-02 9.74006E-23
1.87724E-02 9.14935E-23
1.93692E-02 8.60305E-23
1.99751E-02 8.09719E-23
2.05901E-02 7.62823E-23
2.12143E-02 7.19298E-23
2.18476E-02 6.78855E-23
2.24900E-02 6.41234E-23
2.31415E-02 6.06201E-23
2.38021E-02 5.73545E-23
2.44717E-02 5.43075E-23
2.51504E-02 5.14615E-23
2.58382E-02 4.88007E-23
2.65349E-02 4.63110E-23
2.72407E-02 4.39791E-23
2.79555E-02 4.17933E-23
2.86793E-02 3.97424E-23
2.94120E-02 3.78166E-23
3.01537E-02 3.60070E-23
3.09043E-02 3.43050E-23
3.16639E-02 3.27031E-23
3.24324E-02 3.11942E-23
3.32098E-02 2.97719E-23
3.39961E-02 2.84304E-23
3.47912E-02 2.71641E-23
3.55952E-02 2.59679E-23
3.64081E-02 2.48372E-23
3.72297E-02 2.37679E-23
3.80602E-02 2.27559E-23
3.88995E-02 2.17975E-23
3.97476E-02 2.08893E-23
4.06044E-02 2.00282E-23
4.14700E-02 1.92114E-23
4.23443E-02 1.84360E-23
4.32273E-02 1.76994E-23
4.41190E-02 1.69997E-23
4.50194E-02 1.63343E-23
4.59284E-02 1.57013E-23
4.68461E-02 1.50989E-23
4.87074E-02 1.39788E-23
5.06030E-02 1.29611E-23
5.25328E-02 1.20348E-23
5.44967E-02 1.11902E-23
5.64946E-02 1.04187E-23
5.85262E-02 9.71287E-24
6.05914E-02 9.06602E-24
6.26901E-02 8.47231E-24
6.48222E-02 7.92657E-24
6.69873E-02 7.42421E-24
6.91854E-02 6.96113E-24
7.14163E-02 6.53368E-24
7.36799E-02 6.13861E-24
7.59760E-02 5.77300E-24
7.83043E-02 5.43425E-24
8.06647E-02 5.12001E-24
8.30571E-02 4.82817E-24
8.54812E-02 4.55684E-24
8.79369E-02 4.30429E-24
9.04240E-02 4.06900E-24
9.29422E-02 3.84954E-24
9.54915E-02 3.64466E-24
9.80716E-02 3.45321E-24
1.00682E-01 3.27413E-24
1.03323E-01 3.10648E-24
1.05995E-01 2.94939E-24
1.08696E-01 2.80207E-24
1.11427E-01 2.66379E-24
1.14188E-01 2.53390E-24
1.16978E-01 2.41178E-24
1.19797E-01 2.29689E-24
1.22645E-01 2.18872E-24
1.25522E-01 2.08679E-24
1.28428E-01 1.99069E-24
1.31361E-01 1.90001E-24
1.34323E-01 1.81439E-24
1.37313E-01 1.73350E-24
1.40330E-01 1.65701E-24
1.43375E-01 1.58466E-24
1.46447E-01 1.51617E-24
1.49545E-01 1.45129E-24
1.52671E-01 1.38981E-24
1.55823E-01 1.33150E-24
1.59001E-01 1.27618E-24
1.62205E-01 1.22366E-24
1.65435E-01 1.17377E-24
1.68690E-01 1.12636E-24
1.71970E-01 1.08128E-24
1.75276E-01 1.03839E-24
1.78606E-01 9.97572E-25
1.81961E-01 9.58701E-25
1.85340E-01 9.21667E-25
1.88743E-01 8.86369E-25
1.92169E-01 8.52709E-25
1.95619E-01 8.20596E-25
1.99092E-01 7.89947E-25
2.02589E-01 7.60682E-25
2.06107E-01 7.32727E-25
2.09649E-01 7.06012E-25
2.13212E-01 6.80473E-25
2.16797E-01 6.56046E-25
2.20404E-01 6.32676E-25
2.24032E-01 6.10308E-25
2.27680E-01 5.88890E-25
2.31350E-01 5.68375E-25
2.35040E-01 5.48718E-25
2.38751E-01 5.29877E-25
2.42481E-01 5.11810E-25
2.46231E-01 4.94481E-25
2.50000E-01 4.77854E-25
2.53788E-01 4.61894E-25
2.57595E-01 4.46571E-25
2.61421E-01 4.31855E-25
2.65264E-01 4.17716E-25
2.69126E-01 4.04128E-25
2.73005E-01 3.91065E-25
2.76901E-01 3.78504E-25
2.80814E-01 3.66422E-25
2.84744E-01 3.54797E-25
2.88691E-01 3.43609E-25
2.92653E-01 3.32838E-25
2.96632E-01 3.22466E-25
3.00625E-01 3.12475E-25
3.04634E-01 3.02850E-25
3.08658E-01 2.93573E-25
3.12697E-01 2.84631E-25
3.16749E-01 2.76009E-25
3.20816E-01 2.67694E-25
3.24896E-01 2.59672E-25
3.28990E-01 2.51931E-25
3.33097E-01 2.44461E-25
3.37216E-01 2.37249E-25
3.41348E-01 2.30285E-25
3.45492E-01 2.23560E-25
3.49647E-01 2.17063E-25
3.53814E-01 2.10785E-25
3.57992E-01 2.04718E-25
3.62181E-01 1.98853E-25
3.66381E-01 1.93183E-25
3.70590E-01 1.87700E-25
3.74810E-01 1.82397E-25
3.79039E-01 1.77266E-25
3.83277E-01 1.72301E-25
3.87524E-01 1.67496E-25
3.91780E-01 1.62845E-25
3.96044E-01 1.58342E-25
4.00316E-01 1.53981E-25
4.04596E-01 1.49758E-25
4.08882E-01 1.45667E-25
4.13176E-01 1.41703E-25
4.17476E-01 1.37862E-25
4.21783E-01 1.34139E-25
4.26095E-01 1.30530E-25
4.30413E-01 1.27030E-25
4.34737E-01 1.23637E-25
4.39065E-01 1.20347E-25
4.43398E-01 1.17154E-25
4.47736E-01 1.14057E-25
4.52077E-01 1.11052E-25
4.56422E-01 1.08136E-25
4.60770E-01 1.05305E-25
4.65122E-01 1.02557E-25
4.69476E-01 9.98892E-26
4.73832E-01 9.72984E-26
4.78190E-01 9.47822E-26
4.82550E-01 9.23381E-26
4.86912E-01 8.99638E-26
4.91274E-01 8.76568E-26
4.95637E-01 8.54150E-26
5.00000E-01 8.32363E-26
5.04363E-01 8.11186E-26
5.08726E-01 7.90599E-26
5.13088E-01 7.70583E-26
5.17450E-01 7.51120E-26
5.21810E-01 7.32192E-26
5.26168E-01 7.13783E-26
5.30524E-01 6.95875E-26
5.34878E-01 6.78453E-26
5.39230E-01 6.61501E-26
5.43578E-01 6.45006E-26
5.47923E-01 6.28953E-26
5.52264E-01 6.13328E-26
5.56602E-01 5.98118E-26
5.60935E-01 5.83310E-26
5.65263E-01 5.68893E-26
5.69587E-01 5.54854E-26
5.73905E-01 5.41182E-26
5.78217E-01 5.27866E-26
5.82524E-01 5.14895E-26
5.86824E-01 5.02259E-26
5.91118E-01 4.89949E-26
5.95404E-01 4.77954E-26
5.99684E-01 4.66266E-26
6.03956E-01 4.54874E-26
6.08220E-01 4.43772E-26
6.12476E-01 4.32950E-26
6.16723E-01 4.22400E-26
6.20961E-01 4.12115E-26
6.25190E-01 4.02087E-26
6.29410E-01 3.92309E-26
6.33619E-01 3.82773E-26
6.37819E-01 3.73473E-26
6.42008E-01 3.64402E-26
6.46186E-01 3.55554E-26
6.50353E-01 3.46922E-26
6.54508E-01 3.38501E-26
6.58652E-01 3.30285E-26
6.62784E-01 3.22268E-26
6.66903E-01 3.14445E-26
6.71010E-01 3.06810E-26
6.75104E-01 2.99358E-26
6.79184E-01 2.92085E-26
6.83251E-01 2.84986E-26
6.87303E-01 2.78055E-26
6.91342E-01 2.71289E-26
6.95366E-01 2.64683E-26
6.99375E-01 2.58233E-26
7.03368E-01 2.51935E-26
7.07347E-01 2.45784E-26
7.11309E-01 2.39777E-26
7.15256E-01 2.33911E-26
7.19186E-01 2.28181E-26
7.23099E-01 2.22584E-26
7.26995E-01 2.17117E-26
7.30874E-01 2.11776E-26
7.34736E-01 2.06558E-26
7.38579E-01 2.01460E-26
7.42405E-01 1.96479E-26
7.46212E-01 1.91612E-26
7.50000E-01 1.86856E-26
7.53769E-01 1.82209E-26
7.57519E-01 1.77667E-26
7.61249E-01 1.73229E-26
7.64960E-01 1.68890E-26
7.68650E-01 1.64650E-26
7.72320E-01 1.60506E-26
7.75968E-01 1.56455E-26
7.79596E-01 1.52495E-26
7.83203E-01 1.48624E-26
7.86788E-01 1.44839E-26
7.90351E-01 1.41139E-26
7.93893E-01 1.37522E-26
7.97411E-01 1.33986E-26
8.00908E-01 1.30528E-26
8.04381E-01 1.27148E-26
8.07831E-01 1.23842E-26
8.11257E-01 1.20610E-26
8.14660E-01 1.17449E-26
8.18039E-01 1.14359E-26
8.21394E-01 1.11337E-26
8.24724E-01 1.08382E-26
8.28030E-01 1.05492E-26
8.31310E-01 1.02665E-26
8.34565E-01 9.99018E-27
8.37795E-01 9.71991E-27
8.40999E-01 9.45560E-27
8.44177E-01 9.19712E-27
8.47329E-01 8.94434E-27
8.50455E-01 8.69713E-27
8.53553E-01 8.45538E-27
8.56625E-01 8.21896E-27
8.59670E-01 7.98776E-27
8.62687E-01 7.76166E-27
8.65677E-01 7.54056E-27
8.68639E-01 7.32435E-27
8.71572E-01 7.11292E-27
8.74478E-01 6.90617E-27
8.77355E-01 6.70401E-27
8.80203E-01 6.50633E-27
8.83022E-01 6.31305E-27
8.85812E-01 6.12408E-27
8.88573E-01 5.93932E-27
8.91304E-01 5.75869E-27
8.94005E-01 5.58210E-27
8.96677E-01 5.40948E-27
8.99318E-01 5.24075E-27
9.01928E-01 5.07582E-27
9.04508E-01 4.91463E-27
9.07058E-01 4.75709E-27
9.09576E-01 4.60314E-27
9.12063E-01 4.45271E-27
9.14519E-01 4.30573E-27
9.16943E-01 4.16214E-27
9.19335E-01 4.02187E-27
9.21696E-01 3.88485E-27
9.24024E-01 3.75103E-27
9.26320E-01 3.62036E-27
9.28584E-01 3.49276E-27
9.30815E-01 3.36819E-27
9.33013E-01 3.24659E-27
9.35178E-01 3.12791E-27
9.37310E-01 3.01209E-27
9.39409E-01 2.89910E-27
9.41474E-01 2.78887E-27
9.43505E-01 2.68136E-27
9.45503E-01 2.57653E-27
9.47467E-01 2.47433E-27
9.49397E-01 2.37471E-27
9.51293E-01 2.27764E-27
9.53154E-01 2.18307E-27
9.54981E-01 2.09097E-27
9.56773E-01 2.00129E-27
9.58530E-01 1.91400E-27
9.60252E-01 1.82906E-27
9.61940E-01 1.74644E-27
9.63592E-01 1.66610E-27
9.65209E-01 1.58801E-27
9.66790E-01 1.51213E-27
9.68336E-01 1.43844E-27
9.69846E-01 1.36690E-27
9.71321E-01 1.29748E-27
9.72759E-01 1.23017E-27
9.74162E-01 1.16492E-27
9.75528E-01 1.10171E-27
9.76858E-01 1.04052E-27
9.78152E-01 9.81324E-28
9.79410E-01 9.24094E-28
9.80631E-01 8.68809E-28
9.81815E-01 8.15446E-28
9.82963E-01 7.63984E-28
9.84074E-01 7.14403E-28
9.85148E-01 6.66682E-28
9.86185E-01 6.20801E-28
9.87185E-01 5.76744E-28
9.88148E-01 5.34492E-28
9.89074E-01 4.94029E-28
9.89962E-01 4.55337E-28
9.90814E-01 4.18403E-28
9.91627E-01 3.83211E-28
9.92404E-01 3.49747E-28
9.93143E-01 3.17998E-28
9.93844E-01 2.87951E-28
9.94508E-01 2.59595E-28
9.95134E-01 2.32919E-28
9.95722E-01 2.07911E-28
9.96273E-01 1.84563E-28
9.96786E-01 1.62864E-28
9.97261E-01 1.42807E-28
9.97698E-01 1.24382E-28
9.98097E-01 1.07585E-28
9.98459E-01 9.24063E-29
9.98782E-01 7.88417E-29
9.99067E-01 6.68853E-29
9.99315E-01 5.65326E-29
9.99524E-01 4.77795E-29
9.99695E-01 4.06225E-29
9.99829E-01 3.50588E-29
9.99924E-01 3.10863E-29
9.99981E-01 2.87035E-29
1.00000E+00 2.79093E-29
