 #
 # Subroutine ELSEPA. Elastic scattering of electrons and positrons
 #                    by neutral atoms and positive ions
 #
 # Projectile: electron
 # Kinetic energy = 5.00000E+06 eV = 1.83747E+05 a.u.
 #
 # WARNING: High-energy factorization with free-atom DF screening.
 #          Absorption, polarization and exchange corrections are
 #          switched off.
 #          Phase shifts are calculated for the bare nucleus.
 #          Scattering amplitudes are not evaluated.
 #
 # Element: Rb,  Z =  37,  atomic weight = 8.54678E+01 g/mol
 #
 # Nuclear model: Fermi distribution
 #                Average radius = 4.71322E-13 cm
 #                Skin thickness = 5.46000E-14 cm
 #
 # Number of electrons = 37
 #
 # Total elastic cross section = 3.36222E-18 cm**2 = 1.20067E-01 a0**2
 # 1st transport cross section = 7.16770E-23 cm**2 = 2.55963E-06 a0**2
 # 2nd transport cross section = 2.02038E-22 cm**2 = 7.21489E-06 a0**2
 #
 #
 # Differential cross section:                       MU=(1-COS(THETA))/2
 #
 #  THETA        MU          DCS          DCS        Sherman      error
 #  (deg)                 (cm**2/sr)   (a0**2/sr)    function
 #----------------------------------------------------------------------
0.00000E+00 1.59030E-12
7.61557E-13 1.59027E-12
1.18994E-12 1.59025E-12
1.71346E-12 1.59022E-12
2.33225E-12 1.59020E-12
3.04617E-12 1.59016E-12
3.85530E-12 1.59013E-12
4.75964E-12 1.59009E-12
5.75917E-12 1.59005E-12
6.85391E-12 1.59000E-12
8.04379E-12 1.58994E-12
9.32893E-12 1.58989E-12
1.07092E-11 1.58983E-12
1.21847E-11 1.58976E-12
1.37554E-11 1.58969E-12
1.54213E-11 1.58962E-12
1.71823E-11 1.58954E-12
1.90386E-11 1.58946E-12
2.09900E-11 1.58937E-12
2.30367E-11 1.58928E-12
2.51785E-11 1.58919E-12
2.74156E-11 1.58909E-12
2.97478E-11 1.58899E-12
3.21752E-11 1.58888E-12
3.46979E-11 1.58877E-12
3.73157E-11 1.58865E-12
4.00286E-11 1.58853E-12
4.28368E-11 1.58841E-12
4.57402E-11 1.58828E-12
4.87388E-11 1.58815E-12
5.18325E-11 1.58801E-12
5.50215E-11 1.58787E-12
5.83057E-11 1.58773E-12
6.16850E-11 1.58758E-12
6.51595E-11 1.58742E-12
6.87293E-11 1.58727E-12
7.23943E-11 1.58711E-12
7.61544E-11 1.58694E-12
1.18991E-10 1.58506E-12
1.71347E-10 1.58276E-12
2.33223E-10 1.58005E-12
3.04617E-10 1.57693E-12
3.85531E-10 1.57341E-12
4.75965E-10 1.56950E-12
5.75917E-10 1.56519E-12
6.85389E-10 1.56049E-12
8.04380E-10 1.55541E-12
9.32891E-10 1.54995E-12
1.07092E-09 1.54413E-12
1.21847E-09 1.53795E-12
1.37554E-09 1.53141E-12
1.54213E-09 1.52453E-12
1.71823E-09 1.51732E-12
1.90386E-09 1.50977E-12
2.09900E-09 1.50191E-12
2.30367E-09 1.49374E-12
2.51785E-09 1.48527E-12
2.74156E-09 1.47651E-12
2.97478E-09 1.46748E-12
3.21752E-09 1.45817E-12
3.46978E-09 1.44861E-12
3.73156E-09 1.43880E-12
4.00286E-09 1.42875E-12
4.28368E-09 1.41848E-12
4.57402E-09 1.40800E-12
4.87388E-09 1.39731E-12
5.18326E-09 1.38642E-12
5.50215E-09 1.37536E-12
5.83057E-09 1.36413E-12
6.16850E-09 1.35273E-12
6.51596E-09 1.34119E-12
6.87293E-09 1.32952E-12
7.23942E-09 1.31771E-12
7.61544E-09 1.30579E-12
1.18991E-08 1.18246E-12
1.71347E-08 1.05792E-12
2.33223E-08 9.39215E-13
3.04617E-08 8.30704E-13
3.85531E-08 7.34427E-13
4.75965E-08 6.50709E-13
5.75917E-08 5.78801E-13
6.85389E-08 5.17398E-13
8.04380E-08 4.65003E-13
9.32891E-08 4.20153E-13
1.07092E-07 3.81533E-13
1.21847E-07 3.48022E-13
1.37554E-07 3.18698E-13
1.54213E-07 2.92815E-13
1.71823E-07 2.69780E-13
1.90386E-07 2.49125E-13
2.09900E-07 2.30480E-13
2.30367E-07 2.13556E-13
2.51785E-07 1.98123E-13
2.74156E-07 1.83999E-13
2.97478E-07 1.71033E-13
3.21752E-07 1.59103E-13
3.46978E-07 1.48109E-13
3.73156E-07 1.37962E-13
4.00286E-07 1.28591E-13
4.28368E-07 1.19929E-13
4.57402E-07 1.11920E-13
4.87388E-07 1.04510E-13
5.18325E-07 9.76534E-14
5.50215E-07 9.13077E-14
5.83057E-07 8.54339E-14
6.16850E-07 7.99958E-14
6.51596E-07 7.49598E-14
6.87293E-07 7.02953E-14
7.23942E-07 6.59736E-14
7.61543E-07 6.19686E-14
1.18991E-06 3.47577E-14
1.71347E-06 2.12456E-14
2.33223E-06 1.39385E-14
3.04617E-06 9.62082E-15
3.85531E-06 6.87386E-15
4.75964E-06 5.02972E-15
5.75916E-06 3.74599E-15
6.85388E-06 2.83058E-15
8.04378E-06 2.16673E-15
9.32888E-06 1.67901E-15
1.07092E-05 1.31664E-15
1.21846E-05 1.04454E-15
1.37553E-05 8.38082E-16
1.54212E-05 6.79772E-16
1.71822E-05 5.57095E-16
1.90385E-05 4.61028E-16
2.09899E-05 3.85017E-16
2.30365E-05 3.24264E-16
2.51783E-05 2.75233E-16
2.74153E-05 2.35295E-16
2.97475E-05 2.02477E-16
3.21749E-05 1.75287E-16
3.46974E-05 1.52586E-16
3.73152E-05 1.33498E-16
4.00281E-05 1.17341E-16
4.28362E-05 1.03579E-16
4.57395E-05 9.17927E-17
4.87380E-05 8.16446E-17
5.18317E-05 7.28644E-17
5.50205E-05 6.52338E-17
5.83045E-05 5.85748E-17
6.16838E-05 5.27414E-17
6.51582E-05 4.76127E-17
6.87277E-05 4.30884E-17
7.23925E-05 3.90850E-17
7.61524E-05 3.55321E-17
9.21439E-05 2.47628E-17
1.09658E-04 1.77540E-17
1.28695E-04 1.30429E-17
1.49255E-04 9.78779E-18
1.71338E-04 7.48407E-18
1.94942E-04 5.81858E-18
2.20070E-04 4.59135E-18
2.46720E-04 3.67144E-18
2.74892E-04 2.97114E-18
3.04586E-04 2.43048E-18
3.35803E-04 2.00771E-18
3.68542E-04 1.67327E-18
4.02802E-04 1.40587E-18
4.38585E-04 1.18998E-18
4.75889E-04 1.01412E-18
5.14715E-04 8.69680E-19
5.55063E-04 7.50140E-19
5.96931E-04 6.50510E-19
6.40321E-04 5.66929E-19
6.85233E-04 4.96386E-19
7.31665E-04 4.36507E-19
7.79618E-04 3.85412E-19
8.29092E-04 3.41595E-19
8.80086E-04 3.03844E-19
9.32601E-04 2.71177E-19
9.86636E-04 2.42792E-19
1.04219E-03 2.18033E-19
1.09927E-03 1.96356E-19
1.15786E-03 1.77311E-19
1.21797E-03 1.60524E-19
1.27961E-03 1.45681E-19
1.34276E-03 1.32517E-19
1.40743E-03 1.20809E-19
1.47362E-03 1.10369E-19
1.54133E-03 1.01034E-19
1.61056E-03 9.26666E-20
1.68131E-03 8.51496E-20
1.75357E-03 7.83808E-20
1.82735E-03 7.22726E-20
1.90265E-03 6.67492E-20
1.97947E-03 6.17444E-20
2.05780E-03 5.72009E-20
2.13765E-03 5.30687E-20
2.21902E-03 4.93037E-20
2.30190E-03 4.58674E-20
2.38630E-03 4.27261E-20
2.47222E-03 3.98498E-20
2.55965E-03 3.72120E-20
2.64859E-03 3.47895E-20
2.73905E-03 3.25615E-20
2.83103E-03 3.05094E-20
2.92452E-03 2.86170E-20
3.01952E-03 2.68694E-20
3.11604E-03 2.52536E-20
3.21407E-03 2.37579E-20
3.31362E-03 2.23716E-20
3.41468E-03 2.10852E-20
3.51725E-03 1.98903E-20
3.62133E-03 1.87792E-20
3.72692E-03 1.77448E-20
3.83403E-03 1.67809E-20
3.94265E-03 1.58818E-20
4.05278E-03 1.50424E-20
4.16442E-03 1.42579E-20
4.27757E-03 1.35241E-20
4.39223E-03 1.28370E-20
4.50840E-03 1.21933E-20
4.62608E-03 1.15895E-20
4.74527E-03 1.10228E-20
4.86597E-03 1.04905E-20
4.98817E-03 9.99005E-21
5.11188E-03 9.51924E-21
5.23711E-03 9.07596E-21
5.36383E-03 8.65830E-21
5.49207E-03 8.26450E-21
5.62181E-03 7.89294E-21
5.75306E-03 7.54213E-21
5.88581E-03 7.21069E-21
6.02007E-03 6.89735E-21
6.15583E-03 6.60093E-21
6.29310E-03 6.32035E-21
6.43187E-03 6.05459E-21
6.57214E-03 5.80273E-21
6.71392E-03 5.56390E-21
6.85720E-03 5.33729E-21
7.00198E-03 5.12217E-21
7.14827E-03 4.91784E-21
7.29605E-03 4.72365E-21
7.44534E-03 4.53900E-21
7.59612E-03 4.36335E-21
7.97965E-03 3.96018E-21
8.37255E-03 3.60277E-21
8.77480E-03 3.28502E-21
9.18641E-03 3.00174E-21
9.60736E-03 2.74852E-21
1.00376E-02 2.52161E-21
1.04773E-02 2.31779E-21
1.09262E-02 2.13427E-21
1.13844E-02 1.96869E-21
1.18520E-02 1.81896E-21
1.23288E-02 1.68329E-21
1.28150E-02 1.56013E-21
1.33104E-02 1.44810E-21
1.38150E-02 1.34602E-21
1.43290E-02 1.25285E-21
1.48521E-02 1.16766E-21
1.53845E-02 1.08964E-21
1.59262E-02 1.01808E-21
1.64770E-02 9.52339E-22
1.70371E-02 8.91863E-22
1.76063E-02 8.36150E-22
1.81848E-02 7.84754E-22
1.87724E-02 7.37278E-22
1.93692E-02 6.93368E-22
1.99751E-02 6.52705E-22
2.05901E-02 6.15004E-22
2.12143E-02 5.80009E-22
2.18476E-02 5.47488E-22
2.24900E-02 5.17234E-22
2.31415E-02 4.89060E-22
2.38021E-02 4.62794E-22
2.44717E-02 4.38283E-22
2.51504E-02 4.15387E-22
2.58382E-02 3.93981E-22
2.65349E-02 3.73947E-22
2.72407E-02 3.55182E-22
2.79555E-02 3.37590E-22
2.86793E-02 3.21083E-22
2.94120E-02 3.05582E-22
3.01537E-02 2.91014E-22
3.09043E-02 2.77311E-22
3.16639E-02 2.64413E-22
3.24324E-02 2.52263E-22
3.32098E-02 2.40809E-22
3.39961E-02 2.30003E-22
3.47912E-02 2.19803E-22
3.55952E-02 2.10167E-22
3.64081E-02 2.01057E-22
3.72297E-02 1.92441E-22
3.80602E-02 1.84286E-22
3.88995E-02 1.76561E-22
3.97476E-02 1.69241E-22
4.06044E-02 1.62300E-22
4.14700E-02 1.55715E-22
4.23443E-02 1.49463E-22
4.32273E-02 1.43524E-22
4.41190E-02 1.37881E-22
4.50194E-02 1.32514E-22
4.59284E-02 1.27409E-22
4.68461E-02 1.22549E-22
4.87074E-02 1.13510E-22
5.06030E-02 1.05297E-22
5.25328E-02 9.78198E-23
5.44967E-02 9.10000E-23
5.64946E-02 8.47691E-23
5.85262E-02 7.90667E-23
6.05914E-02 7.38397E-23
6.26901E-02 6.90409E-23
6.48222E-02 6.46286E-23
6.69873E-02 6.05659E-23
6.91854E-02 5.68198E-23
7.14163E-02 5.33610E-23
7.36799E-02 5.01632E-23
7.59760E-02 4.72031E-23
7.83043E-02 4.44595E-23
8.06647E-02 4.19136E-23
8.30571E-02 3.95485E-23
8.54812E-02 3.73489E-23
8.79369E-02 3.53010E-23
9.04240E-02 3.33922E-23
9.29422E-02 3.16115E-23
9.54915E-02 2.99483E-23
9.80716E-02 2.83937E-23
1.00682E-01 2.69389E-23
1.03323E-01 2.55766E-23
1.05995E-01 2.42996E-23
1.08696E-01 2.31016E-23
1.11427E-01 2.19767E-23
1.14188E-01 2.09196E-23
1.16978E-01 1.99254E-23
1.19797E-01 1.89896E-23
1.22645E-01 1.81083E-23
1.25522E-01 1.72775E-23
1.28428E-01 1.64938E-23
1.31361E-01 1.57541E-23
1.34323E-01 1.50553E-23
1.37313E-01 1.43948E-23
1.40330E-01 1.37701E-23
1.43375E-01 1.31789E-23
1.46447E-01 1.26189E-23
1.49545E-01 1.20883E-23
1.52671E-01 1.15852E-23
1.55823E-01 1.11079E-23
1.59001E-01 1.06548E-23
1.62205E-01 1.02244E-23
1.65435E-01 9.81546E-24
1.68690E-01 9.42661E-24
1.71970E-01 9.05669E-24
1.75276E-01 8.70460E-24
1.78606E-01 8.36931E-24
1.81961E-01 8.04986E-24
1.85340E-01 7.74536E-24
1.88743E-01 7.45498E-24
1.92169E-01 7.17793E-24
1.95619E-01 6.91350E-24
1.99092E-01 6.66097E-24
2.02589E-01 6.41971E-24
2.06107E-01 6.18913E-24
2.09649E-01 5.96865E-24
2.13212E-01 5.75776E-24
2.16797E-01 5.55596E-24
2.20404E-01 5.36278E-24
2.24032E-01 5.17776E-24
2.27680E-01 5.00051E-24
2.31350E-01 4.83063E-24
2.35040E-01 4.66776E-24
2.38751E-01 4.51155E-24
2.42481E-01 4.36169E-24
2.46231E-01 4.21785E-24
2.50000E-01 4.07976E-24
2.53788E-01 3.94713E-24
2.57595E-01 3.81971E-24
2.61421E-01 3.69725E-24
2.65264E-01 3.57953E-24
2.69126E-01 3.46632E-24
2.73005E-01 3.35743E-24
2.76901E-01 3.25265E-24
2.80814E-01 3.15180E-24
2.84744E-01 3.05470E-24
2.88691E-01 2.96118E-24
2.92653E-01 2.87109E-24
2.96632E-01 2.78428E-24
3.00625E-01 2.70062E-24
3.04634E-01 2.61995E-24
3.08658E-01 2.54216E-24
3.12697E-01 2.46711E-24
3.16749E-01 2.39469E-24
3.20816E-01 2.32481E-24
3.24896E-01 2.25735E-24
3.28990E-01 2.19221E-24
3.33097E-01 2.12930E-24
3.37216E-01 2.06851E-24
3.41348E-01 2.00977E-24
3.45492E-01 1.95300E-24
3.49647E-01 1.89813E-24
3.53814E-01 1.84507E-24
3.57992E-01 1.79375E-24
3.62181E-01 1.74410E-24
3.66381E-01 1.69606E-24
3.70590E-01 1.64957E-24
3.74810E-01 1.60457E-24
3.79039E-01 1.56101E-24
3.83277E-01 1.51882E-24
3.87524E-01 1.47795E-24
3.91780E-01 1.43836E-24
3.96044E-01 1.40000E-24
4.00316E-01 1.36283E-24
4.04596E-01 1.32680E-24
4.08882E-01 1.29186E-24
4.13176E-01 1.25799E-24
4.17476E-01 1.22514E-24
4.21783E-01 1.19327E-24
4.26095E-01 1.16235E-24
4.30413E-01 1.13235E-24
4.34737E-01 1.10324E-24
4.39065E-01 1.07497E-24
4.43398E-01 1.04754E-24
4.47736E-01 1.02089E-24
4.52077E-01 9.95020E-25
4.56422E-01 9.69888E-25
4.60770E-01 9.45472E-25
4.65122E-01 9.21750E-25
4.69476E-01 8.98699E-25
4.73832E-01 8.76295E-25
4.78190E-01 8.54516E-25
4.82550E-01 8.33343E-25
4.86912E-01 8.12755E-25
4.91274E-01 7.92734E-25
4.95637E-01 7.73262E-25
5.00000E-01 7.54320E-25
5.04363E-01 7.35891E-25
5.08726E-01 7.17960E-25
5.13088E-01 7.00510E-25
5.17450E-01 6.83527E-25
5.21810E-01 6.66995E-25
5.26168E-01 6.50901E-25
5.30524E-01 6.35231E-25
5.34878E-01 6.19972E-25
5.39230E-01 6.05111E-25
5.43578E-01 5.90636E-25
5.47923E-01 5.76536E-25
5.52264E-01 5.62799E-25
5.56602E-01 5.49414E-25
5.60935E-01 5.36370E-25
5.65263E-01 5.23658E-25
5.69587E-01 5.11268E-25
5.73905E-01 4.99190E-25
5.78217E-01 4.87415E-25
5.82524E-01 4.75934E-25
5.86824E-01 4.64739E-25
5.91118E-01 4.53821E-25
5.95404E-01 4.43173E-25
5.99684E-01 4.32786E-25
6.03956E-01 4.22653E-25
6.08220E-01 4.12767E-25
6.12476E-01 4.03122E-25
6.16723E-01 3.93710E-25
6.20961E-01 3.84524E-25
6.25190E-01 3.75559E-25
6.29410E-01 3.66808E-25
6.33619E-01 3.58266E-25
6.37819E-01 3.49927E-25
6.42008E-01 3.41784E-25
6.46186E-01 3.33834E-25
6.50353E-01 3.26070E-25
6.54508E-01 3.18488E-25
6.58652E-01 3.11083E-25
6.62784E-01 3.03850E-25
6.66903E-01 2.96784E-25
6.71010E-01 2.89881E-25
6.75104E-01 2.83137E-25
6.79184E-01 2.76548E-25
6.83251E-01 2.70109E-25
6.87303E-01 2.63817E-25
6.91342E-01 2.57668E-25
6.95366E-01 2.51658E-25
6.99375E-01 2.45783E-25
7.03368E-01 2.40041E-25
7.07347E-01 2.34428E-25
7.11309E-01 2.28940E-25
7.15256E-01 2.23575E-25
7.19186E-01 2.18329E-25
7.23099E-01 2.13200E-25
7.26995E-01 2.08184E-25
7.30874E-01 2.03278E-25
7.34736E-01 1.98481E-25
7.38579E-01 1.93789E-25
7.42405E-01 1.89200E-25
7.46212E-01 1.84711E-25
7.50000E-01 1.80320E-25
7.53769E-01 1.76025E-25
7.57519E-01 1.71823E-25
7.61249E-01 1.67711E-25
7.64960E-01 1.63689E-25
7.68650E-01 1.59754E-25
7.72320E-01 1.55903E-25
7.75968E-01 1.52135E-25
7.79596E-01 1.48447E-25
7.83203E-01 1.44839E-25
7.86788E-01 1.41308E-25
7.90351E-01 1.37852E-25
7.93893E-01 1.34470E-25
7.97411E-01 1.31160E-25
8.00908E-01 1.27920E-25
8.04381E-01 1.24749E-25
8.07831E-01 1.21646E-25
8.11257E-01 1.18608E-25
8.14660E-01 1.15634E-25
8.18039E-01 1.12723E-25
8.21394E-01 1.09874E-25
8.24724E-01 1.07084E-25
8.28030E-01 1.04354E-25
8.31310E-01 1.01681E-25
8.34565E-01 9.90647E-26
8.37795E-01 9.65033E-26
8.40999E-01 9.39959E-26
8.44177E-01 9.15414E-26
8.47329E-01 8.91385E-26
8.50455E-01 8.67863E-26
8.53553E-01 8.44837E-26
8.56625E-01 8.22296E-26
8.59670E-01 8.00231E-26
8.62687E-01 7.78631E-26
8.65677E-01 7.57488E-26
8.68639E-01 7.36792E-26
8.71572E-01 7.16535E-26
8.74478E-01 6.96707E-26
8.77355E-01 6.77299E-26
8.80203E-01 6.58305E-26
8.83022E-01 6.39715E-26
8.85812E-01 6.21522E-26
8.88573E-01 6.03718E-26
8.91304E-01 5.86296E-26
8.94005E-01 5.69248E-26
8.96677E-01 5.52568E-26
8.99318E-01 5.36248E-26
9.01928E-01 5.20281E-26
9.04508E-01 5.04662E-26
9.07058E-01 4.89384E-26
9.09576E-01 4.74441E-26
9.12063E-01 4.59826E-26
9.14519E-01 4.45534E-26
9.16943E-01 4.31559E-26
9.19335E-01 4.17896E-26
9.21696E-01 4.04538E-26
9.24024E-01 3.91482E-26
9.26320E-01 3.78721E-26
9.28584E-01 3.66251E-26
9.30815E-01 3.54066E-26
9.33013E-01 3.42163E-26
9.35178E-01 3.30536E-26
9.37310E-01 3.19181E-26
9.39409E-01 3.08093E-26
9.41474E-01 2.97269E-26
9.43505E-01 2.86705E-26
9.45503E-01 2.76395E-26
9.47467E-01 2.66336E-26
9.49397E-01 2.56525E-26
9.51293E-01 2.46958E-26
9.53154E-01 2.37631E-26
9.54981E-01 2.28541E-26
9.56773E-01 2.19684E-26
9.58530E-01 2.11057E-26
9.60252E-01 2.02657E-26
9.61940E-01 1.94480E-26
9.63592E-01 1.86525E-26
9.65209E-01 1.78787E-26
9.66790E-01 1.71264E-26
9.68336E-01 1.63953E-26
9.69846E-01 1.56851E-26
9.71321E-01 1.49957E-26
9.72759E-01 1.43267E-26
9.74162E-01 1.36779E-26
9.75528E-01 1.30491E-26
9.76858E-01 1.24400E-26
9.78152E-01 1.18504E-26
9.79410E-01 1.12802E-26
9.80631E-01 1.07290E-26
9.81815E-01 1.01968E-26
9.82963E-01 9.68331E-27
9.84074E-01 9.18835E-27
9.85148E-01 8.71175E-27
9.86185E-01 8.25335E-27
9.87185E-01 7.81297E-27
9.88148E-01 7.39048E-27
9.89074E-01 6.98572E-27
9.89962E-01 6.59855E-27
9.90814E-01 6.22882E-27
9.91627E-01 5.87642E-27
9.92404E-01 5.54122E-27
9.93143E-01 5.22310E-27
9.93844E-01 4.92195E-27
9.94508E-01 4.63767E-27
9.95134E-01 4.37016E-27
9.95722E-01 4.11932E-27
9.96273E-01 3.88506E-27
9.96786E-01 3.66731E-27
9.97261E-01 3.46599E-27
9.97698E-01 3.28104E-27
9.98097E-01 3.11237E-27
9.98459E-01 2.95995E-27
9.98782E-01 2.82371E-27
9.99067E-01 2.70361E-27
9.99315E-01 2.59961E-27
9.99524E-01 2.51167E-27
9.99695E-01 2.43976E-27
9.99829E-01 2.38385E-27
9.99924E-01 2.34393E-27
9.99981E-01 2.31999E-27
1.00000E+00 2.31201E-27
