 #
 # Subroutine ELSEPA. Elastic scattering of electrons and positrons
 #                    by neutral atoms and positive ions
 #
 # Projectile: electron
 # Kinetic energy = 4.00000E+08 eV = 1.46997E+07 a.u.
 #
 # WARNING: High-energy factorization with free-atom DF screening.
 #          Absorption, polarization and exchange corrections are
 #          switched off.
 #          Phase shifts are calculated for the bare nucleus.
 #          Scattering amplitudes are not evaluated.
 #
 # Element: Rb,  Z =  37,  atomic weight = 8.54678E+01 g/mol
 #
 # Nuclear model: Fermi distribution
 #                Average radius = 4.71322E-13 cm
 #                Skin thickness = 5.46000E-14 cm
 #
 # Number of electrons = 37
 #
 # Total elastic cross section = 3.32262E-18 cm**2 = 1.18653E-01 a0**2
 # 1st transport cross section = 1.72046E-26 cm**2 = 6.14387E-10 a0**2
 # 2nd transport cross section = 5.15797E-26 cm**2 = 1.84195E-09 a0**2
 #
 #
 # Differential cross section:                       MU=(1-COS(THETA))/2
 #
 #  THETA        MU          DCS          DCS        Sherman      error
 #  (deg)                 (cm**2/sr)   (a0**2/sr)    function
 #----------------------------------------------------------------------
0.00000E+00 8.39938E-09
7.61557E-13 7.53532E-09
1.18994E-12 7.11424E-09
1.71346E-12 6.65739E-09
2.33225E-12 6.17466E-09
3.04617E-12 5.69466E-09
3.85530E-12 5.23048E-09
4.75964E-12 4.78721E-09
5.75917E-12 4.37198E-09
6.85391E-12 3.99867E-09
8.04379E-12 3.65862E-09
9.32893E-12 3.35069E-09
1.07092E-11 3.07536E-09
1.21847E-11 2.83332E-09
1.37554E-11 2.61599E-09
1.54213E-11 2.42135E-09
1.71823E-11 2.24853E-09
1.90386E-11 2.09409E-09
2.09900E-11 1.95453E-09
2.30367E-11 1.82831E-09
2.51785E-11 1.71431E-09
2.74156E-11 1.61019E-09
2.97478E-11 1.51476E-09
3.21752E-11 1.42712E-09
3.46979E-11 1.34609E-09
3.73157E-11 1.27100E-09
4.00286E-11 1.20131E-09
4.28368E-11 1.13633E-09
4.57402E-11 1.07542E-09
4.87388E-11 1.01851E-09
5.18325E-11 9.65255E-10
5.50215E-11 9.15019E-10
5.83057E-11 8.67734E-10
6.16850E-11 8.23337E-10
6.51595E-11 7.81615E-10
6.87293E-11 7.41963E-10
7.23943E-11 7.04659E-10
7.61544E-11 6.69550E-10
1.18991E-10 4.08815E-10
1.71347E-10 2.57594E-10
2.33223E-10 1.72779E-10
3.04617E-10 1.20402E-10
3.85531E-10 8.72190E-11
4.75965E-10 6.53279E-11
5.75917E-10 5.02247E-11
6.85389E-10 3.91229E-11
8.04380E-10 3.09440E-11
9.32891E-10 2.47896E-11
1.07092E-09 2.00385E-11
1.21847E-09 1.62766E-11
1.37554E-09 1.33373E-11
1.54213E-09 1.10119E-11
1.71823E-09 9.14156E-12
1.90386E-09 7.63403E-12
2.09900E-09 6.41941E-12
2.30367E-09 5.43255E-12
2.51785E-09 4.62152E-12
2.74156E-09 3.95537E-12
2.97478E-09 3.40509E-12
3.21752E-09 2.94737E-12
3.46978E-09 2.56389E-12
3.73156E-09 2.24141E-12
4.00286E-09 1.96867E-12
4.28368E-09 1.73678E-12
4.57402E-09 1.53861E-12
4.87388E-09 1.36856E-12
5.18326E-09 1.22193E-12
5.50215E-09 1.09474E-12
5.83057E-09 9.83972E-13
6.16850E-09 8.87155E-13
6.51596E-09 8.02187E-13
6.87293E-09 7.27179E-13
7.23942E-09 6.60869E-13
7.61544E-09 6.02057E-13
1.18991E-08 2.63318E-13
1.71347E-08 1.32276E-13
2.33223E-08 7.31588E-14
3.04617E-08 4.35528E-14
3.85531E-08 2.74841E-14
4.75965E-08 1.81828E-14
5.75917E-08 1.25060E-14
6.85389E-08 8.88409E-15
8.04380E-08 6.48546E-15
9.32891E-08 4.84571E-15
1.07092E-07 3.69370E-15
1.21847E-07 2.86498E-15
1.37554E-07 2.25636E-15
1.54213E-07 1.80115E-15
1.71823E-07 1.45518E-15
1.90386E-07 1.18842E-15
2.09900E-07 9.80071E-16
2.30367E-07 8.15419E-16
2.51785E-07 6.83913E-16
2.74156E-07 5.77854E-16
2.97478E-07 4.91563E-16
3.21752E-07 4.20780E-16
3.46978E-07 3.62279E-16
3.73156E-07 3.13590E-16
4.00286E-07 2.72804E-16
4.28368E-07 2.38431E-16
4.57402E-07 2.09299E-16
4.87388E-07 1.84480E-16
5.18325E-07 1.63229E-16
5.50215E-07 1.44949E-16
5.83057E-07 1.29156E-16
6.16850E-07 1.15454E-16
6.51596E-07 1.03520E-16
6.87293E-07 9.30876E-17
7.23942E-07 8.39361E-17
7.61543E-07 7.58811E-17
1.18991E-06 3.11619E-17
1.71347E-06 1.50485E-17
2.33223E-06 8.12955E-18
3.04617E-06 4.76806E-18
3.85531E-06 2.97791E-18
4.75964E-06 1.95445E-18
5.75916E-06 1.33528E-18
6.85388E-06 9.43024E-19
8.04378E-06 6.84808E-19
9.32888E-06 5.09234E-19
1.07092E-05 3.86498E-19
1.21846E-05 2.98614E-19
1.37553E-05 2.34353E-19
1.54212E-05 1.86488E-19
1.71822E-05 1.50244E-19
1.90385E-05 1.22380E-19
2.09899E-05 1.00718E-19
2.30365E-05 8.36411E-20
2.51783E-05 7.00298E-20
2.74153E-05 5.90738E-20
2.97475E-05 5.01771E-20
3.21749E-05 4.28942E-20
3.46974E-05 3.68874E-20
3.73152E-05 3.18982E-20
4.00281E-05 2.77261E-20
4.28362E-05 2.42153E-20
4.57395E-05 2.12432E-20
4.87380E-05 1.87131E-20
5.18317E-05 1.65485E-20
5.50205E-05 1.46877E-20
5.83045E-05 1.30812E-20
6.16838E-05 1.16886E-20
6.51582E-05 1.04767E-20
6.87277E-05 9.41821E-21
7.23925E-05 8.49026E-21
7.61524E-05 7.66797E-21
9.21439E-05 5.23725E-21
1.09658E-04 3.69710E-21
1.28695E-04 2.68342E-21
1.49255E-04 1.99404E-21
1.71338E-04 1.51223E-21
1.94942E-04 1.16725E-21
2.20070E-04 9.15037E-22
2.46720E-04 7.27226E-22
2.74892E-04 5.85050E-22
3.04586E-04 4.75850E-22
3.35803E-04 3.90857E-22
3.68542E-04 3.23922E-22
4.02802E-04 2.70633E-22
4.38585E-04 2.27789E-22
4.75889E-04 1.93034E-22
5.14715E-04 1.64603E-22
5.55063E-04 1.41169E-22
5.96931E-04 1.21717E-22
6.40321E-04 1.05464E-22
6.85233E-04 9.18021E-23
7.31665E-04 8.02515E-23
7.79618E-04 7.04350E-23
8.29092E-04 6.20503E-23
8.80086E-04 5.48556E-23
9.32601E-04 4.86547E-23
9.86636E-04 4.32884E-23
1.04219E-03 3.86263E-23
1.09927E-03 3.45611E-23
1.15786E-03 3.10042E-23
1.21797E-03 2.78817E-23
1.27961E-03 2.51321E-23
1.34276E-03 2.27036E-23
1.40743E-03 2.05528E-23
1.47362E-03 1.86428E-23
1.54133E-03 1.69422E-23
1.61056E-03 1.54246E-23
1.68131E-03 1.40670E-23
1.75357E-03 1.28499E-23
1.82735E-03 1.17564E-23
1.90265E-03 1.07721E-23
1.97947E-03 9.88420E-24
2.05780E-03 9.08188E-24
2.13765E-03 8.35558E-24
2.21902E-03 7.69696E-24
2.30190E-03 7.09875E-24
2.38630E-03 6.55454E-24
2.47222E-03 6.05872E-24
2.55965E-03 5.60631E-24
2.64859E-03 5.19295E-24
2.73905E-03 4.81475E-24
2.83103E-03 4.46827E-24
2.92452E-03 4.15045E-24
3.01952E-03 3.85858E-24
3.11604E-03 3.59021E-24
3.21407E-03 3.34318E-24
3.31362E-03 3.11555E-24
3.41468E-03 2.90557E-24
3.51725E-03 2.71168E-24
3.62133E-03 2.53247E-24
3.72692E-03 2.36667E-24
3.83403E-03 2.21314E-24
3.94265E-03 2.07084E-24
4.05278E-03 1.93885E-24
4.16442E-03 1.81630E-24
4.27757E-03 1.70244E-24
4.39223E-03 1.59657E-24
4.50840E-03 1.49805E-24
4.62608E-03 1.40631E-24
4.74527E-03 1.32082E-24
4.86597E-03 1.24109E-24
4.98817E-03 1.16670E-24
5.11188E-03 1.09724E-24
5.23711E-03 1.03234E-24
5.36383E-03 9.71664E-25
5.49207E-03 9.14908E-25
5.62181E-03 8.61788E-25
5.75306E-03 8.12043E-25
5.88581E-03 7.65434E-25
6.02007E-03 7.21740E-25
6.15583E-03 6.80759E-25
6.29310E-03 6.42304E-25
6.43187E-03 6.06202E-25
6.57214E-03 5.72293E-25
6.71392E-03 5.40430E-25
6.85720E-03 5.10478E-25
7.00198E-03 4.82308E-25
7.14827E-03 4.55806E-25
7.29605E-03 4.30862E-25
7.44534E-03 4.07376E-25
7.59612E-03 3.85254E-25
7.97965E-03 3.35366E-25
8.37255E-03 2.92283E-25
8.77480E-03 2.55005E-25
9.18641E-03 2.22691E-25
9.60736E-03 1.94634E-25
1.00376E-02 1.70236E-25
1.04773E-02 1.48990E-25
1.09262E-02 1.30466E-25
1.13844E-02 1.14295E-25
1.18520E-02 1.00165E-25
1.23288E-02 8.78064E-26
1.28150E-02 7.69874E-26
1.33104E-02 6.75095E-26
1.38150E-02 5.92009E-26
1.43290E-02 5.19133E-26
1.48521E-02 4.55182E-26
1.53845E-02 3.99040E-26
1.59262E-02 3.49739E-26
1.64770E-02 3.06435E-26
1.70371E-02 2.68393E-26
1.76063E-02 2.34971E-26
1.81848E-02 2.05608E-26
1.87724E-02 1.79813E-26
1.93692E-02 1.57155E-26
1.99751E-02 1.37258E-26
2.05901E-02 1.19790E-26
2.12143E-02 1.04461E-26
2.18476E-02 9.10138E-27
2.24900E-02 7.92244E-27
2.31415E-02 6.88942E-27
2.38021E-02 5.98488E-27
2.44717E-02 5.19343E-27
2.51504E-02 4.50150E-27
2.58382E-02 3.89711E-27
2.65349E-02 3.36973E-27
2.72407E-02 2.91003E-27
2.79555E-02 2.50979E-27
2.86793E-02 2.16175E-27
2.94120E-02 1.85952E-27
3.01537E-02 1.59745E-27
3.09043E-02 1.37055E-27
3.16639E-02 1.17443E-27
3.24324E-02 1.00521E-27
3.32098E-02 8.59474E-28
3.39961E-02 7.34217E-28
3.47912E-02 6.26789E-28
3.55952E-02 5.34862E-28
3.64081E-02 4.56386E-28
3.72297E-02 3.89564E-28
3.80602E-02 3.32817E-28
3.88995E-02 2.84762E-28
3.97476E-02 2.44189E-28
4.06044E-02 2.10040E-28
4.14700E-02 1.81390E-28
4.23443E-02 1.57434E-28
4.32273E-02 1.37472E-28
4.41190E-02 1.20895E-28
4.50194E-02 1.07177E-28
4.59284E-02 9.58620E-29
4.68461E-02 8.65565E-29
4.87074E-02 7.26719E-29
5.06030E-02 6.33641E-29
5.25328E-02 5.70683E-29
5.44967E-02 5.26711E-29
5.64946E-02 4.93980E-29
5.85262E-02 4.67268E-29
6.05914E-02 4.43201E-29
6.26901E-02 4.19741E-29
6.48222E-02 3.95785E-29
6.69873E-02 3.70875E-29
6.91854E-02 3.44973E-29
7.14163E-02 3.18299E-29
7.36799E-02 2.91214E-29
7.59760E-02 2.64137E-29
7.83043E-02 2.37489E-29
8.06647E-02 2.11659E-29
8.30571E-02 1.86979E-29
8.54812E-02 1.63717E-29
8.79369E-02 1.42072E-29
9.04240E-02 1.22177E-29
9.29422E-02 1.04105E-29
9.54915E-02 8.78744E-30
9.80716E-02 7.34584E-30
1.00682E-01 6.07941E-30
1.03323E-01 4.97904E-30
1.05995E-01 4.03352E-30
1.08696E-01 3.23027E-30
1.11427E-01 2.55592E-30
1.14188E-01 1.99683E-30
1.16978E-01 1.53947E-30
1.19797E-01 1.17074E-30
1.22645E-01 8.78264E-31
1.25522E-01 6.50507E-31
1.28428E-01 4.76921E-31
1.31361E-01 3.48001E-31
1.34323E-01 2.55303E-31
1.37313E-01 1.91438E-31
1.40330E-01 1.50026E-31
1.43375E-01 1.25643E-31
1.46447E-01 1.13749E-31
1.49545E-01 1.10605E-31
1.52671E-01 1.13194E-31
1.55823E-01 1.19128E-31
1.59001E-01 1.26574E-31
1.62205E-01 1.34164E-31
1.65435E-01 1.40928E-31
1.68690E-01 1.46219E-31
1.71970E-01 1.49654E-31
1.75276E-01 1.51059E-31
1.78606E-01 1.50418E-31
1.81961E-01 1.47832E-31
1.85340E-01 1.43488E-31
1.88743E-01 1.37622E-31
1.92169E-01 1.30502E-31
1.95619E-01 1.22407E-31
1.99092E-01 1.13611E-31
2.02589E-01 1.04374E-31
2.06107E-01 9.49336E-32
2.09649E-01 8.54994E-32
2.13212E-01 7.62522E-32
2.16797E-01 6.73414E-32
2.20404E-01 5.88861E-32
2.24032E-01 5.09764E-32
2.27680E-01 4.36754E-32
2.31350E-01 3.70223E-32
2.35040E-01 3.10351E-32
2.38751E-01 2.57136E-32
2.42481E-01 2.10429E-32
2.46231E-01 1.69959E-32
2.50000E-01 1.35362E-32
2.53788E-01 1.06210E-32
2.57595E-01 8.20274E-33
2.61421E-01 6.23159E-33
2.65264E-01 4.65684E-33
2.69126E-01 3.42838E-33
2.73005E-01 2.49784E-33
2.76901E-01 1.81938E-33
2.80814E-01 1.35038E-33
2.84744E-01 1.05189E-33
2.88691E-01 8.88821E-34
2.92653E-01 8.30123E-34
2.96632E-01 8.48729E-34
3.00625E-01 9.21458E-34
3.04634E-01 1.02882E-33
3.08658E-01 1.15477E-33
3.12697E-01 1.28641E-33
3.16749E-01 1.41370E-33
3.20816E-01 1.52910E-33
3.24896E-01 1.62727E-33
3.28990E-01 1.70474E-33
3.33097E-01 1.75963E-33
3.37216E-01 1.79132E-33
3.41348E-01 1.80025E-33
3.45492E-01 1.78764E-33
3.49647E-01 1.75529E-33
3.53814E-01 1.70542E-33
3.57992E-01 1.64050E-33
3.62181E-01 1.56310E-33
3.66381E-01 1.47583E-33
3.70590E-01 1.38121E-33
3.74810E-01 1.28163E-33
3.79039E-01 1.17929E-33
3.83277E-01 1.07617E-33
3.87524E-01 9.74025E-34
3.91780E-01 8.74337E-34
3.96044E-01 7.78355E-34
4.00316E-01 6.87080E-34
4.04596E-01 6.01284E-34
4.08882E-01 5.21525E-34
4.13176E-01 4.48168E-34
4.17476E-01 3.81405E-34
4.21783E-01 3.21276E-34
4.26095E-01 2.67693E-34
4.30413E-01 2.20463E-34
4.34737E-01 1.79303E-34
4.39065E-01 1.43867E-34
4.43398E-01 1.13756E-34
4.47736E-01 8.85413E-35
4.52077E-01 6.77715E-35
4.56422E-01 5.09896E-35
4.60770E-01 3.77415E-35
4.65122E-01 2.75846E-35
4.69476E-01 2.00947E-35
4.73832E-01 1.48715E-35
4.78190E-01 1.15422E-35
4.82550E-01 9.76471E-36
4.86912E-01 9.22872E-36
4.91274E-01 9.65666E-36
4.95637E-01 1.08035E-35
5.00000E-01 1.24559E-35
5.04363E-01 1.44309E-35
5.08726E-01 1.65745E-35
5.13088E-01 1.87592E-35
5.17450E-01 2.08821E-35
5.21810E-01 2.28625E-35
5.26168E-01 2.46396E-35
5.30524E-01 2.61699E-35
5.34878E-01 2.74252E-35
5.39230E-01 2.83901E-35
5.43578E-01 2.90604E-35
5.47923E-01 2.94406E-35
5.52264E-01 2.95423E-35
5.56602E-01 2.93828E-35
5.60935E-01 2.89836E-35
5.65263E-01 2.83690E-35
5.69587E-01 2.75650E-35
5.73905E-01 2.65987E-35
5.78217E-01 2.54969E-35
5.82524E-01 2.42862E-35
5.86824E-01 2.29919E-35
5.91118E-01 2.16379E-35
5.95404E-01 2.02465E-35
5.99684E-01 1.88376E-35
6.03956E-01 1.74295E-35
6.08220E-01 1.60379E-35
6.12476E-01 1.46767E-35
6.16723E-01 1.33576E-35
6.20961E-01 1.20900E-35
6.25190E-01 1.08819E-35
6.29410E-01 9.73896E-36
6.33619E-01 8.66561E-36
6.37819E-01 7.66462E-36
6.42008E-01 6.73748E-36
6.46186E-01 5.88449E-36
6.50353E-01 5.10496E-36
6.54508E-01 4.39734E-36
6.58652E-01 3.75937E-36
6.62784E-01 3.18821E-36
6.66903E-01 2.68058E-36
6.71010E-01 2.23280E-36
6.75104E-01 1.84101E-36
6.79184E-01 1.50119E-36
6.83251E-01 1.20921E-36
6.87303E-01 9.60985E-37
6.91342E-01 7.52445E-37
6.95366E-01 5.79641E-37
6.99375E-01 4.38776E-37
7.03368E-01 3.26203E-37
7.07347E-01 2.38491E-37
7.11309E-01 1.72419E-37
7.15256E-01 1.24992E-37
7.19186E-01 9.34498E-38
7.23099E-01 7.52650E-38
7.26995E-01 6.81447E-38
7.30874E-01 7.00236E-38
7.34736E-01 7.90564E-38
7.38579E-01 9.36087E-38
7.42405E-01 1.12245E-37
7.46212E-01 1.33717E-37
7.50000E-01 1.56954E-37
7.53769E-01 1.81040E-37
7.57519E-01 2.05211E-37
7.61249E-01 2.28835E-37
7.64960E-01 2.51402E-37
7.68650E-01 2.72504E-37
7.72320E-01 2.91839E-37
7.75968E-01 3.09178E-37
7.79596E-01 3.24371E-37
7.83203E-01 3.37334E-37
7.86788E-01 3.48028E-37
7.90351E-01 3.56463E-37
7.93893E-01 3.62693E-37
7.97411E-01 3.66795E-37
8.00908E-01 3.68872E-37
8.04381E-01 3.69038E-37
8.07831E-01 3.67439E-37
8.11257E-01 3.64212E-37
8.14660E-01 3.59508E-37
8.18039E-01 3.53481E-37
8.21394E-01 3.46279E-37
8.24724E-01 3.38052E-37
8.28030E-01 3.28944E-37
8.31310E-01 3.19093E-37
8.34565E-01 3.08632E-37
8.37795E-01 2.97684E-37
8.40999E-01 2.86362E-37
8.44177E-01 2.74775E-37
8.47329E-01 2.63018E-37
8.50455E-01 2.51182E-37
8.53553E-01 2.39345E-37
8.56625E-01 2.27575E-37
8.59670E-01 2.15940E-37
8.62687E-01 2.04489E-37
8.65677E-01 1.93274E-37
8.68639E-01 1.82335E-37
8.71572E-01 1.71704E-37
8.74478E-01 1.61409E-37
8.77355E-01 1.51472E-37
8.80203E-01 1.41914E-37
8.83022E-01 1.32743E-37
8.85812E-01 1.23970E-37
8.88573E-01 1.15598E-37
8.91304E-01 1.07634E-37
8.94005E-01 1.00069E-37
8.96677E-01 9.29019E-38
8.99318E-01 8.61279E-38
9.01928E-01 7.97387E-38
9.04508E-01 7.37234E-38
9.07058E-01 6.80707E-38
9.09576E-01 6.27694E-38
9.12063E-01 5.78057E-38
9.14519E-01 5.31679E-38
9.16943E-01 4.88384E-38
9.19335E-01 4.48074E-38
9.21696E-01 4.10578E-38
9.24024E-01 3.75749E-38
9.26320E-01 3.43458E-38
9.28584E-01 3.13564E-38
9.30815E-01 2.85906E-38
9.33013E-01 2.60387E-38
9.35178E-01 2.36839E-38
9.37310E-01 2.15163E-38
9.39409E-01 1.95236E-38
9.41474E-01 1.76936E-38
9.43505E-01 1.60154E-38
9.45503E-01 1.44787E-38
9.47467E-01 1.30728E-38
9.49397E-01 1.17895E-38
9.51293E-01 1.06190E-38
9.53154E-01 9.55286E-39
9.54981E-01 8.58330E-39
9.56773E-01 7.70256E-39
9.58530E-01 6.90337E-39
9.60252E-01 6.17967E-39
9.61940E-01 5.52428E-39
9.63592E-01 4.93310E-39
9.65209E-01 4.39885E-39
9.66790E-01 3.91799E-39
9.68336E-01 3.48468E-39
9.69846E-01 3.09521E-39
9.71321E-01 2.74562E-39
9.72759E-01 2.43206E-39
9.74162E-01 2.15150E-39
9.75528E-01 1.90039E-39
9.76858E-01 1.67586E-39
9.78152E-01 1.47567E-39
9.79410E-01 1.29745E-39
9.80631E-01 1.13878E-39
9.81815E-01 9.97799E-40
9.82963E-01 8.72833E-40
9.84074E-01 7.62035E-40
9.85148E-01 6.64225E-40
9.86185E-01 5.77648E-40
9.87185E-01 5.01583E-40
9.88148E-01 4.34671E-40
9.89074E-01 3.75528E-40
9.89962E-01 3.23868E-40
9.90814E-01 2.78442E-40
9.91627E-01 2.39006E-40
9.92404E-01 2.04474E-40
9.93143E-01 1.74320E-40
9.93844E-01 1.48125E-40
9.94508E-01 1.25406E-40
9.95134E-01 1.05590E-40
9.95722E-01 8.83992E-41
9.96273E-01 7.36095E-41
9.96786E-01 6.08223E-41
9.97261E-01 4.97855E-41
9.97698E-01 4.01754E-41
9.98097E-01 3.22066E-41
9.98459E-01 2.52077E-41
9.98782E-01 1.93955E-41
9.99067E-01 1.44539E-41
9.99315E-01 1.04365E-41
9.99524E-01 7.12625E-42
9.99695E-01 4.51296E-42
9.99829E-01 2.51053E-42
9.99924E-01 1.17849E-42
9.99981E-01 3.40232E-43
1.00000E+00 5.74115E-44
