 #
 # Subroutine ELSEPA. Elastic scattering of electrons and positrons
 #                    by neutral atoms and positive ions
 #
 # Projectile: electron
 # Kinetic energy = 2.50000E+07 eV = 9.18733E+05 a.u.
 #
 # WARNING: High-energy factorization with free-atom DF screening.
 #          Absorption, polarization and exchange corrections are
 #          switched off.
 #          Phase shifts are calculated for the bare nucleus.
 #          Scattering amplitudes are not evaluated.
 #
 # Element: Rb,  Z =  37,  atomic weight = 8.54678E+01 g/mol
 #
 # Nuclear model: Fermi distribution
 #                Average radius = 4.71322E-13 cm
 #                Skin thickness = 5.46000E-14 cm
 #
 # Number of electrons = 37
 #
 # Total elastic cross section = 3.32847E-18 cm**2 = 1.18862E-01 a0**2
 # 1st transport cross section = 4.02294E-24 cm**2 = 1.43662E-07 a0**2
 # 2nd transport cross section = 1.15912E-23 cm**2 = 4.13930E-07 a0**2
 #
 #
 # Differential cross section:                       MU=(1-COS(THETA))/2
 #
 #  THETA        MU          DCS          DCS        Sherman      error
 #  (deg)                 (cm**2/sr)   (a0**2/sr)    function
 #----------------------------------------------------------------------
0.00000E+00 3.40779E-11
7.61557E-13 3.40623E-11
1.18994E-12 3.40535E-11
1.71346E-12 3.40428E-11
2.33225E-12 3.40301E-11
3.04617E-12 3.40156E-11
3.85530E-12 3.39990E-11
4.75964E-12 3.39806E-11
5.75917E-12 3.39602E-11
6.85391E-12 3.39380E-11
8.04379E-12 3.39138E-11
9.32893E-12 3.38877E-11
1.07092E-11 3.38597E-11
1.21847E-11 3.38299E-11
1.37554E-11 3.37981E-11
1.54213E-11 3.37645E-11
1.71823E-11 3.37291E-11
1.90386E-11 3.36918E-11
2.09900E-11 3.36526E-11
2.30367E-11 3.36116E-11
2.51785E-11 3.35688E-11
2.74156E-11 3.35242E-11
2.97478E-11 3.34779E-11
3.21752E-11 3.34297E-11
3.46979E-11 3.33798E-11
3.73157E-11 3.33281E-11
4.00286E-11 3.32747E-11
4.28368E-11 3.32196E-11
4.57402E-11 3.31628E-11
4.87388E-11 3.31042E-11
5.18325E-11 3.30440E-11
5.50215E-11 3.29822E-11
5.83057E-11 3.29187E-11
6.16850E-11 3.28536E-11
6.51595E-11 3.27868E-11
6.87293E-11 3.27185E-11
7.23943E-11 3.26486E-11
7.61544E-11 3.25772E-11
1.18991E-10 3.17819E-11
1.71347E-10 3.08541E-11
2.33223E-10 2.98165E-11
3.04617E-10 2.86926E-11
3.85531E-10 2.75173E-11
4.75965E-10 2.62974E-11
5.75917E-10 2.50424E-11
6.85389E-10 2.38093E-11
8.04380E-10 2.25602E-11
9.32891E-10 2.13783E-11
1.07092E-09 2.01948E-11
1.21847E-09 1.91002E-11
1.37554E-09 1.80239E-11
1.54213E-09 1.70304E-11
1.71823E-09 1.60758E-11
1.90386E-09 1.51917E-11
2.09900E-09 1.43591E-11
2.30367E-09 1.35829E-11
2.51785E-09 1.28641E-11
2.74156E-09 1.21886E-11
2.97478E-09 1.15707E-11
3.21752E-09 1.09855E-11
3.46978E-09 1.04543E-11
3.73156E-09 9.94779E-12
4.00286E-09 9.48938E-12
4.28368E-09 9.05252E-12
4.57402E-09 8.65230E-12
4.87388E-09 8.27356E-12
5.18326E-09 7.92200E-12
5.50215E-09 7.59094E-12
5.83057E-09 7.28051E-12
6.16850E-09 6.98858E-12
6.51596E-09 6.71292E-12
6.87293E-09 6.45321E-12
7.23942E-09 6.20701E-12
7.61544E-09 5.97402E-12
1.18991E-08 4.16831E-12
1.71347E-08 2.97834E-12
2.33223E-08 2.15787E-12
3.04617E-08 1.58633E-12
3.85531E-08 1.17872E-12
4.75965E-08 8.95740E-13
5.75917E-08 6.99675E-13
6.85389E-08 5.51922E-13
8.04380E-08 4.45974E-13
9.32891E-08 3.63136E-13
1.07092E-07 3.01594E-13
1.21847E-07 2.51552E-13
1.37554E-07 2.12949E-13
1.54213E-07 1.80858E-13
1.71823E-07 1.55116E-13
1.90386E-07 1.33474E-13
2.09900E-07 1.15517E-13
2.30367E-07 1.00375E-13
2.51785E-07 8.74653E-14
2.74156E-07 7.65831E-14
2.97478E-07 6.71193E-14
3.21752E-07 5.91428E-14
3.46978E-07 5.21125E-14
3.73156E-07 4.61770E-14
4.00286E-07 4.09018E-14
4.28368E-07 3.64115E-14
4.57402E-07 3.24381E-14
4.87388E-07 2.90093E-14
5.18325E-07 2.59874E-14
5.50215E-07 2.33491E-14
5.83057E-07 2.10262E-14
6.16850E-07 1.89800E-14
6.51596E-07 1.71761E-14
6.87293E-07 1.55761E-14
7.23942E-07 1.41613E-14
7.61543E-07 1.28993E-14
1.18991E-06 5.65892E-15
1.71347E-06 2.89355E-15
2.33223E-06 1.63864E-15
3.04617E-06 9.97027E-16
3.85531E-06 6.39068E-16
4.75964E-06 4.27729E-16
5.75916E-06 2.96419E-16
6.85388E-06 2.11579E-16
8.04378E-06 1.54880E-16
9.32888E-06 1.15919E-16
1.07092E-05 8.84662E-17
1.21846E-05 6.86831E-17
1.37553E-05 5.41397E-17
1.54212E-05 4.32564E-17
1.71822E-05 3.49800E-17
1.90385E-05 2.85919E-17
2.09899E-05 2.36082E-17
2.30365E-05 1.96659E-17
2.51783E-05 1.65134E-17
2.74153E-05 1.39681E-17
2.97475E-05 1.18948E-17
3.21749E-05 1.01925E-17
3.46974E-05 8.78480E-18
3.73152E-05 7.61250E-18
4.00281E-05 6.62982E-18
4.28362E-05 5.80092E-18
4.57395E-05 5.09764E-18
4.87380E-05 4.49762E-18
5.18317E-05 3.98324E-18
5.50205E-05 3.54024E-18
5.83045E-05 3.15710E-18
6.16838E-05 2.82441E-18
6.51582E-05 2.53444E-18
6.87277E-05 2.28074E-18
7.23925E-05 2.05803E-18
7.61524E-05 1.86194E-18
9.21439E-05 1.27650E-18
1.09658E-04 9.03991E-19
1.28695E-04 6.57977E-19
1.49255E-04 4.90199E-19
1.71338E-04 3.72655E-19
1.94942E-04 2.88319E-19
2.20070E-04 2.26550E-19
2.46720E-04 1.80477E-19
2.74892E-04 1.45545E-19
3.04586E-04 1.18675E-19
3.35803E-04 9.77324E-20
3.68542E-04 8.12155E-20
4.02802E-04 6.80477E-20
4.38585E-04 5.74457E-20
4.75889E-04 4.88326E-20
5.14715E-04 4.17763E-20
5.55063E-04 3.59514E-20
5.96931E-04 3.11084E-20
6.40321E-04 2.70551E-20
6.85233E-04 2.36420E-20
7.31665E-04 2.07512E-20
7.79618E-04 1.82898E-20
8.29092E-04 1.61833E-20
8.80086E-04 1.43721E-20
9.32601E-04 1.28078E-20
9.86636E-04 1.14510E-20
1.04219E-03 1.02695E-20
1.09927E-03 9.23688E-21
1.15786E-03 8.33111E-21
1.21797E-03 7.53392E-21
1.27961E-03 6.83005E-21
1.34276E-03 6.20668E-21
1.40743E-03 5.65299E-21
1.47362E-03 5.15985E-21
1.54133E-03 4.71945E-21
1.61056E-03 4.32517E-21
1.68131E-03 3.97133E-21
1.75357E-03 3.65303E-21
1.82735E-03 3.36608E-21
1.90265E-03 3.10684E-21
1.97947E-03 2.87216E-21
2.05780E-03 2.65928E-21
2.13765E-03 2.46582E-21
2.21902E-03 2.28969E-21
2.30190E-03 2.12906E-21
2.38630E-03 1.98232E-21
2.47222E-03 1.84804E-21
2.55965E-03 1.72498E-21
2.64859E-03 1.61203E-21
2.73905E-03 1.50820E-21
2.83103E-03 1.41263E-21
2.92452E-03 1.32453E-21
3.01952E-03 1.24322E-21
3.11604E-03 1.16808E-21
3.21407E-03 1.09855E-21
3.31362E-03 1.03414E-21
3.41468E-03 9.74394E-22
3.51725E-03 9.18920E-22
3.62133E-03 8.67352E-22
3.72692E-03 8.19365E-22
3.83403E-03 7.74664E-22
3.94265E-03 7.32982E-22
4.05278E-03 6.94078E-22
4.16442E-03 6.57731E-22
4.27757E-03 6.23743E-22
4.39223E-03 5.91930E-22
4.50840E-03 5.62129E-22
4.62608E-03 5.34186E-22
4.74527E-03 5.07967E-22
4.86597E-03 4.83343E-22
4.98817E-03 4.60201E-22
5.11188E-03 4.38432E-22
5.23711E-03 4.17941E-22
5.36383E-03 3.98639E-22
5.49207E-03 3.80443E-22
5.62181E-03 3.63278E-22
5.75306E-03 3.47075E-22
5.88581E-03 3.31770E-22
6.02007E-03 3.17302E-22
6.15583E-03 3.03619E-22
6.29310E-03 2.90668E-22
6.43187E-03 2.78404E-22
6.57214E-03 2.66783E-22
6.71392E-03 2.55765E-22
6.85720E-03 2.45312E-22
7.00198E-03 2.35391E-22
7.14827E-03 2.25969E-22
7.29605E-03 2.17015E-22
7.44534E-03 2.08503E-22
7.59612E-03 2.00406E-22
7.97965E-03 1.81827E-22
8.37255E-03 1.65361E-22
8.77480E-03 1.50726E-22
9.18641E-03 1.37683E-22
9.60736E-03 1.26027E-22
1.00376E-02 1.15584E-22
1.04773E-02 1.06207E-22
1.09262E-02 9.77655E-23
1.13844E-02 9.01507E-23
1.18520E-02 8.32666E-23
1.23288E-02 7.70302E-23
1.28150E-02 7.13701E-23
1.33104E-02 6.62226E-23
1.38150E-02 6.15333E-23
1.43290E-02 5.72540E-23
1.48521E-02 5.33418E-23
1.53845E-02 4.97602E-23
1.59262E-02 4.64751E-23
1.64770E-02 4.34585E-23
1.70371E-02 4.06835E-23
1.76063E-02 3.81278E-23
1.81848E-02 3.57705E-23
1.87724E-02 3.35934E-23
1.93692E-02 3.15804E-23
1.99751E-02 2.97164E-23
2.05901E-02 2.79887E-23
2.12143E-02 2.63852E-23
2.18476E-02 2.48955E-23
2.24900E-02 2.35099E-23
2.31415E-02 2.22197E-23
2.38021E-02 2.10172E-23
2.44717E-02 1.98953E-23
2.51504E-02 1.88475E-23
2.58382E-02 1.78681E-23
2.65349E-02 1.69518E-23
2.72407E-02 1.60936E-23
2.79555E-02 1.52893E-23
2.86793E-02 1.45347E-23
2.94120E-02 1.38263E-23
3.01537E-02 1.31607E-23
3.09043E-02 1.25348E-23
3.16639E-02 1.19457E-23
3.24324E-02 1.13910E-23
3.32098E-02 1.08682E-23
3.39961E-02 1.03751E-23
3.47912E-02 9.90970E-24
3.55952E-02 9.47018E-24
3.64081E-02 9.05481E-24
3.72297E-02 8.66202E-24
3.80602E-02 8.29033E-24
3.88995E-02 7.93839E-24
3.97476E-02 7.60496E-24
4.06044E-02 7.28888E-24
4.14700E-02 6.98907E-24
4.23443E-02 6.70453E-24
4.32273E-02 6.43433E-24
4.41190E-02 6.17762E-24
4.50194E-02 5.93358E-24
4.59284E-02 5.70148E-24
4.68461E-02 5.48062E-24
4.87074E-02 5.07006E-24
5.06030E-02 4.69720E-24
5.25328E-02 4.35796E-24
5.44967E-02 4.04876E-24
5.64946E-02 3.76644E-24
5.85262E-02 3.50825E-24
6.05914E-02 3.27175E-24
6.26901E-02 3.05477E-24
6.48222E-02 2.85542E-24
6.69873E-02 2.67200E-24
6.91854E-02 2.50300E-24
7.14163E-02 2.34708E-24
7.36799E-02 2.20304E-24
7.59760E-02 2.06981E-24
7.83043E-02 1.94643E-24
8.06647E-02 1.83203E-24
8.30571E-02 1.72585E-24
8.54812E-02 1.62718E-24
8.79369E-02 1.53540E-24
9.04240E-02 1.44993E-24
9.29422E-02 1.37026E-24
9.54915E-02 1.29593E-24
9.80716E-02 1.22651E-24
1.00682E-01 1.16162E-24
1.03323E-01 1.10090E-24
1.05995E-01 1.04404E-24
1.08696E-01 9.90757E-25
1.11427E-01 9.40774E-25
1.14188E-01 8.93851E-25
1.16978E-01 8.49768E-25
1.19797E-01 8.08322E-25
1.22645E-01 7.69325E-25
1.25522E-01 7.32606E-25
1.28428E-01 6.98008E-25
1.31361E-01 6.65386E-25
1.34323E-01 6.34607E-25
1.37313E-01 6.05547E-25
1.40330E-01 5.78093E-25
1.43375E-01 5.52140E-25
1.46447E-01 5.27592E-25
1.49545E-01 5.04358E-25
1.52671E-01 4.82355E-25
1.55823E-01 4.61506E-25
1.59001E-01 4.41740E-25
1.62205E-01 4.22990E-25
1.65435E-01 4.05195E-25
1.68690E-01 3.88297E-25
1.71970E-01 3.72244E-25
1.75276E-01 3.56984E-25
1.78606E-01 3.42473E-25
1.81961E-01 3.28666E-25
1.85340E-01 3.15524E-25
1.88743E-01 3.03009E-25
1.92169E-01 2.91085E-25
1.95619E-01 2.79720E-25
1.99092E-01 2.68882E-25
2.02589E-01 2.58544E-25
2.06107E-01 2.48678E-25
2.09649E-01 2.39258E-25
2.13212E-01 2.30261E-25
2.16797E-01 2.21665E-25
2.20404E-01 2.13449E-25
2.24032E-01 2.05593E-25
2.27680E-01 1.98078E-25
2.31350E-01 1.90887E-25
2.35040E-01 1.84004E-25
2.38751E-01 1.77413E-25
2.42481E-01 1.71100E-25
2.46231E-01 1.65050E-25
2.50000E-01 1.59252E-25
2.53788E-01 1.53693E-25
2.57595E-01 1.48361E-25
2.61421E-01 1.43246E-25
2.65264E-01 1.38337E-25
2.69126E-01 1.33624E-25
2.73005E-01 1.29099E-25
2.76901E-01 1.24752E-25
2.80814E-01 1.20576E-25
2.84744E-01 1.16562E-25
2.88691E-01 1.12704E-25
2.92653E-01 1.08994E-25
2.96632E-01 1.05425E-25
3.00625E-01 1.01992E-25
3.04634E-01 9.86884E-26
3.08658E-01 9.55083E-26
3.12697E-01 9.24464E-26
3.16749E-01 8.94977E-26
3.20816E-01 8.66573E-26
3.24896E-01 8.39206E-26
3.28990E-01 8.12833E-26
3.33097E-01 7.87410E-26
3.37216E-01 7.62900E-26
3.41348E-01 7.39263E-26
3.45492E-01 7.16463E-26
3.49647E-01 6.94467E-26
3.53814E-01 6.73241E-26
3.57992E-01 6.52755E-26
3.62181E-01 6.32978E-26
3.66381E-01 6.13882E-26
3.70590E-01 5.95440E-26
3.74810E-01 5.77627E-26
3.79039E-01 5.60417E-26
3.83277E-01 5.43787E-26
3.87524E-01 5.27715E-26
3.91780E-01 5.12179E-26
3.96044E-01 4.97158E-26
4.00316E-01 4.82632E-26
4.04596E-01 4.68584E-26
4.08882E-01 4.54994E-26
4.13176E-01 4.41847E-26
4.17476E-01 4.29124E-26
4.21783E-01 4.16811E-26
4.26095E-01 4.04892E-26
4.30413E-01 3.93354E-26
4.34737E-01 3.82181E-26
4.39065E-01 3.71361E-26
4.43398E-01 3.60881E-26
4.47736E-01 3.50728E-26
4.52077E-01 3.40892E-26
4.56422E-01 3.31361E-26
4.60770E-01 3.22123E-26
4.65122E-01 3.13170E-26
4.69476E-01 3.04490E-26
4.73832E-01 2.96074E-26
4.78190E-01 2.87914E-26
4.82550E-01 2.79999E-26
4.86912E-01 2.72323E-26
4.91274E-01 2.64876E-26
4.95637E-01 2.57651E-26
5.00000E-01 2.50641E-26
5.04363E-01 2.43838E-26
5.08726E-01 2.37235E-26
5.13088E-01 2.30825E-26
5.17450E-01 2.24603E-26
5.21810E-01 2.18562E-26
5.26168E-01 2.12696E-26
5.30524E-01 2.06999E-26
5.34878E-01 2.01465E-26
5.39230E-01 1.96090E-26
5.43578E-01 1.90869E-26
5.47923E-01 1.85796E-26
5.52264E-01 1.80866E-26
5.56602E-01 1.76076E-26
5.60935E-01 1.71420E-26
5.65263E-01 1.66895E-26
5.69587E-01 1.62496E-26
5.73905E-01 1.58219E-26
5.78217E-01 1.54061E-26
5.82524E-01 1.50018E-26
5.86824E-01 1.46086E-26
5.91118E-01 1.42262E-26
5.95404E-01 1.38542E-26
5.99684E-01 1.34924E-26
6.03956E-01 1.31404E-26
6.08220E-01 1.27979E-26
6.12476E-01 1.24646E-26
6.16723E-01 1.21404E-26
6.20961E-01 1.18248E-26
6.25190E-01 1.15177E-26
6.29410E-01 1.12187E-26
6.33619E-01 1.09277E-26
6.37819E-01 1.06444E-26
6.42008E-01 1.03685E-26
6.46186E-01 1.01000E-26
6.50353E-01 9.83847E-27
6.54508E-01 9.58379E-27
6.58652E-01 9.33577E-27
6.62784E-01 9.09420E-27
6.66903E-01 8.85890E-27
6.71010E-01 8.62969E-27
6.75104E-01 8.40640E-27
6.79184E-01 8.18886E-27
6.83251E-01 7.97690E-27
6.87303E-01 7.77037E-27
6.91342E-01 7.56911E-27
6.95366E-01 7.37299E-27
6.99375E-01 7.18184E-27
7.03368E-01 6.99555E-27
7.07347E-01 6.81396E-27
7.11309E-01 6.63696E-27
7.15256E-01 6.46441E-27
7.19186E-01 6.29619E-27
7.23099E-01 6.13219E-27
7.26995E-01 5.97228E-27
7.30874E-01 5.81637E-27
7.34736E-01 5.66434E-27
7.38579E-01 5.51608E-27
7.42405E-01 5.37150E-27
7.46212E-01 5.23049E-27
7.50000E-01 5.09296E-27
7.53769E-01 4.95882E-27
7.57519E-01 4.82798E-27
7.61249E-01 4.70035E-27
7.64960E-01 4.57585E-27
7.68650E-01 4.45439E-27
7.72320E-01 4.33590E-27
7.75968E-01 4.22029E-27
7.79596E-01 4.10750E-27
7.83203E-01 3.99745E-27
7.86788E-01 3.89006E-27
7.90351E-01 3.78528E-27
7.93893E-01 3.68303E-27
7.97411E-01 3.58325E-27
8.00908E-01 3.48588E-27
8.04381E-01 3.39085E-27
8.07831E-01 3.29811E-27
8.11257E-01 3.20760E-27
8.14660E-01 3.11926E-27
8.18039E-01 3.03303E-27
8.21394E-01 2.94888E-27
8.24724E-01 2.86674E-27
8.28030E-01 2.78656E-27
8.31310E-01 2.70830E-27
8.34565E-01 2.63191E-27
8.37795E-01 2.55735E-27
8.40999E-01 2.48456E-27
8.44177E-01 2.41351E-27
8.47329E-01 2.34415E-27
8.50455E-01 2.27645E-27
8.53553E-01 2.21036E-27
8.56625E-01 2.14584E-27
8.59670E-01 2.08286E-27
8.62687E-01 2.02139E-27
8.65677E-01 1.96138E-27
8.68639E-01 1.90280E-27
8.71572E-01 1.84562E-27
8.74478E-01 1.78980E-27
8.77355E-01 1.73532E-27
8.80203E-01 1.68214E-27
8.83022E-01 1.63023E-27
8.85812E-01 1.57957E-27
8.88573E-01 1.53012E-27
8.91304E-01 1.48186E-27
8.94005E-01 1.43476E-27
8.96677E-01 1.38880E-27
8.99318E-01 1.34395E-27
9.01928E-01 1.30018E-27
9.04508E-01 1.25748E-27
9.07058E-01 1.21581E-27
9.09576E-01 1.17516E-27
9.12063E-01 1.13550E-27
9.14519E-01 1.09681E-27
9.16943E-01 1.05907E-27
9.19335E-01 1.02227E-27
9.21696E-01 9.86377E-28
9.24024E-01 9.51376E-28
9.26320E-01 9.17248E-28
9.28584E-01 8.83976E-28
9.30815E-01 8.51542E-28
9.33013E-01 8.19929E-28
9.35178E-01 7.89121E-28
9.37310E-01 7.59100E-28
9.39409E-01 7.29852E-28
9.41474E-01 7.01362E-28
9.43505E-01 6.73613E-28
9.45503E-01 6.46593E-28
9.47467E-01 6.20287E-28
9.49397E-01 5.94682E-28
9.51293E-01 5.69764E-28
9.53154E-01 5.45521E-28
9.54981E-01 5.21941E-28
9.56773E-01 4.99010E-28
9.58530E-01 4.76718E-28
9.60252E-01 4.55054E-28
9.61940E-01 4.34005E-28
9.63592E-01 4.13563E-28
9.65209E-01 3.93716E-28
9.66790E-01 3.74454E-28
9.68336E-01 3.55768E-28
9.69846E-01 3.37649E-28
9.71321E-01 3.20086E-28
9.72759E-01 3.03073E-28
9.74162E-01 2.86599E-28
9.75528E-01 2.70657E-28
9.76858E-01 2.55240E-28
9.78152E-01 2.40338E-28
9.79410E-01 2.25946E-28
9.80631E-01 2.12055E-28
9.81815E-01 1.98660E-28
9.82963E-01 1.85753E-28
9.84074E-01 1.73328E-28
9.85148E-01 1.61379E-28
9.86185E-01 1.49900E-28
9.87185E-01 1.38886E-28
9.88148E-01 1.28330E-28
9.89074E-01 1.18229E-28
9.89962E-01 1.08577E-28
9.90814E-01 9.93695E-29
9.91627E-01 9.06017E-29
9.92404E-01 8.22695E-29
9.93143E-01 7.43689E-29
9.93844E-01 6.68961E-29
9.94508E-01 5.98475E-29
9.95134E-01 5.32196E-29
9.95722E-01 4.70092E-29
9.96273E-01 4.12134E-29
9.96786E-01 3.58293E-29
9.97261E-01 3.08544E-29
9.97698E-01 2.62862E-29
9.98097E-01 2.21226E-29
9.98459E-01 1.83615E-29
9.98782E-01 1.50012E-29
9.99067E-01 1.20399E-29
9.99315E-01 9.47642E-30
9.99524E-01 7.30937E-30
9.99695E-01 5.53775E-30
9.99829E-01 4.16070E-30
9.99924E-01 3.17757E-30
9.99981E-01 2.58788E-30
1.00000E+00 2.39134E-30
