 #
 # Subroutine ELSEPA. Elastic scattering of electrons and positrons
 #                    by neutral atoms and positive ions
 #
 # Projectile: electron
 # Kinetic energy = 2.50000E+06 eV = 9.18733E+04 a.u.
 #
 # WARNING: High-energy factorization with free-atom DF screening.
 #          Absorption, polarization and exchange corrections are
 #          switched off.
 #          Phase shifts are calculated for the bare nucleus.
 #          Scattering amplitudes are not evaluated.
 #
 # Element: Rb,  Z =  37,  atomic weight = 8.54678E+01 g/mol
 #
 # Nuclear model: Fermi distribution
 #                Average radius = 4.71322E-13 cm
 #                Skin thickness = 5.46000E-14 cm
 #
 # Number of electrons = 37
 #
 # Total elastic cross section = 3.42981E-18 cm**2 = 1.22481E-01 a0**2
 # 1st transport cross section = 2.25004E-22 cm**2 = 8.03505E-06 a0**2
 # 2nd transport cross section = 6.28667E-22 cm**2 = 2.24501E-05 a0**2
 #
 #
 # Differential cross section:                       MU=(1-COS(THETA))/2
 #
 #  THETA        MU          DCS          DCS        Sherman      error
 #  (deg)                 (cm**2/sr)   (a0**2/sr)    function
 #----------------------------------------------------------------------
0.00000E+00 4.74722E-13
7.61557E-13 4.74719E-13
1.18994E-12 4.74718E-13
1.71346E-12 4.74716E-13
2.33225E-12 4.74713E-13
3.04617E-12 4.74711E-13
3.85530E-12 4.74708E-13
4.75964E-12 4.74704E-13
5.75917E-12 4.74700E-13
6.85391E-12 4.74696E-13
8.04379E-12 4.74692E-13
9.32893E-12 4.74687E-13
1.07092E-11 4.74681E-13
1.21847E-11 4.74676E-13
1.37554E-11 4.74670E-13
1.54213E-11 4.74663E-13
1.71823E-11 4.74656E-13
1.90386E-11 4.74649E-13
2.09900E-11 4.74642E-13
2.30367E-11 4.74634E-13
2.51785E-11 4.74626E-13
2.74156E-11 4.74617E-13
2.97478E-11 4.74608E-13
3.21752E-11 4.74599E-13
3.46979E-11 4.74589E-13
3.73157E-11 4.74579E-13
4.00286E-11 4.74569E-13
4.28368E-11 4.74558E-13
4.57402E-11 4.74547E-13
4.87388E-11 4.74535E-13
5.18325E-11 4.74523E-13
5.50215E-11 4.74511E-13
5.83057E-11 4.74498E-13
6.16850E-11 4.74485E-13
6.51595E-11 4.74472E-13
6.87293E-11 4.74458E-13
7.23943E-11 4.74444E-13
7.61544E-11 4.74430E-13
1.18991E-10 4.74265E-13
1.71347E-10 4.74064E-13
2.33223E-10 4.73826E-13
3.04617E-10 4.73552E-13
3.85531E-10 4.73241E-13
4.75965E-10 4.72895E-13
5.75917E-10 4.72512E-13
6.85389E-10 4.72094E-13
8.04380E-10 4.71640E-13
9.32891E-10 4.71150E-13
1.07092E-09 4.70625E-13
1.21847E-09 4.70065E-13
1.37554E-09 4.69470E-13
1.54213E-09 4.68841E-13
1.71823E-09 4.68176E-13
1.90386E-09 4.67478E-13
2.09900E-09 4.66746E-13
2.30367E-09 4.65980E-13
2.51785E-09 4.65181E-13
2.74156E-09 4.64348E-13
2.97478E-09 4.63483E-13
3.21752E-09 4.62586E-13
3.46978E-09 4.61656E-13
3.73156E-09 4.60695E-13
4.00286E-09 4.59702E-13
4.28368E-09 4.58678E-13
4.57402E-09 4.57624E-13
4.87388E-09 4.56540E-13
5.18326E-09 4.55425E-13
5.50215E-09 4.54281E-13
5.83057E-09 4.53108E-13
6.16850E-09 4.51907E-13
6.51596E-09 4.50676E-13
6.87293E-09 4.49419E-13
7.23942E-09 4.48134E-13
7.61544E-09 4.46822E-13
1.18991E-08 4.32329E-13
1.71347E-08 4.15687E-13
2.33223E-08 3.97407E-13
3.04617E-08 3.78243E-13
3.85531E-08 3.58104E-13
4.75965E-08 3.38056E-13
5.75917E-08 3.17776E-13
6.85389E-08 2.98505E-13
8.04380E-08 2.79408E-13
9.32891E-08 2.61788E-13
1.07092E-07 2.44724E-13
1.21847E-07 2.29080E-13
1.37554E-07 2.14303E-13
1.54213E-07 2.00748E-13
1.71823E-07 1.88199E-13
1.90386E-07 1.76631E-13
2.09900E-07 1.66082E-13
2.30367E-07 1.56284E-13
2.51785E-07 1.47436E-13
2.74156E-07 1.39152E-13
2.97478E-07 1.31706E-13
3.21752E-07 1.24715E-13
3.46978E-07 1.18368E-13
3.73156E-07 1.12430E-13
4.00286E-07 1.06969E-13
4.28368E-07 1.01871E-13
4.57402E-07 9.71349E-14
4.87388E-07 9.27083E-14
5.18325E-07 8.85665E-14
5.50215E-07 8.46797E-14
5.83057E-07 8.10278E-14
6.16850E-07 7.75799E-14
6.51596E-07 7.43350E-14
6.87293E-07 7.12494E-14
7.23942E-07 6.83400E-14
7.61543E-07 6.55651E-14
1.18991E-06 4.41040E-14
1.71347E-06 3.02701E-14
2.33223E-06 2.11890E-14
3.04617E-06 1.50491E-14
3.85531E-06 1.11107E-14
4.75964E-06 8.37026E-15
5.75916E-06 6.49130E-15
6.85388E-06 5.10543E-15
8.04378E-06 4.11385E-15
9.32888E-06 3.34116E-15
1.07092E-05 2.76090E-15
1.21846E-05 2.29405E-15
1.37553E-05 1.92685E-15
1.54212E-05 1.62622E-15
1.71822E-05 1.38107E-15
1.90385E-05 1.17878E-15
2.09899E-05 1.00973E-15
2.30365E-05 8.69887E-16
2.51783E-05 7.50478E-16
2.74153E-05 6.51494E-16
2.97475E-05 5.65923E-16
3.21749E-05 4.94502E-16
3.46974E-05 4.32798E-16
3.73152E-05 3.80626E-16
4.00281E-05 3.35604E-16
4.28362E-05 2.97057E-16
4.57395E-05 2.63732E-16
4.87380E-05 2.34904E-16
5.18317E-05 2.09894E-16
5.50205E-05 1.88077E-16
5.83045E-05 1.69068E-16
6.16838E-05 1.52379E-16
6.51582E-05 1.37763E-16
6.87277E-05 1.24822E-16
7.23925E-05 1.13415E-16
7.61524E-05 1.03290E-16
9.21439E-05 7.27054E-17
1.09658E-04 5.28171E-17
1.28695E-04 3.93716E-17
1.49255E-04 2.99803E-17
1.71338E-04 2.32480E-17
1.94942E-04 1.83089E-17
2.20070E-04 1.46127E-17
2.46720E-04 1.17989E-17
2.74892E-04 9.61920E-18
3.04586E-04 7.92334E-18
3.35803E-04 6.58054E-18
3.68542E-04 5.51074E-18
4.02802E-04 4.64542E-18
4.38585E-04 3.94474E-18
4.75889E-04 3.36844E-18
5.14715E-04 2.89467E-18
5.55063E-04 2.49998E-18
5.96931E-04 2.17078E-18
6.40321E-04 1.89361E-18
6.85233E-04 1.65947E-18
7.31665E-04 1.46035E-18
7.79618E-04 1.29027E-18
8.29092E-04 1.14430E-18
8.80086E-04 1.01842E-18
9.32601E-04 9.09492E-19
9.86636E-04 8.14724E-19
1.04219E-03 7.32094E-19
1.09927E-03 6.59661E-19
1.15786E-03 5.96053E-19
1.21797E-03 5.39932E-19
1.27961E-03 4.90314E-19
1.34276E-03 4.46283E-19
1.40743E-03 4.07114E-19
1.47362E-03 3.72171E-19
1.54133E-03 3.40912E-19
1.61056E-03 3.12888E-19
1.68131E-03 2.87692E-19
1.75357E-03 2.65004E-19
1.82735E-03 2.44509E-19
1.90265E-03 2.25976E-19
1.97947E-03 2.09166E-19
2.05780E-03 1.93904E-19
2.13765E-03 1.80010E-19
2.21902E-03 1.67348E-19
2.30190E-03 1.55783E-19
2.38630E-03 1.45205E-19
2.47222E-03 1.35514E-19
2.55965E-03 1.26620E-19
2.64859E-03 1.18449E-19
2.73905E-03 1.10926E-19
2.83103E-03 1.03997E-19
2.92452E-03 9.75999E-20
3.01952E-03 9.16916E-20
3.11604E-03 8.62232E-20
3.21407E-03 8.11597E-20
3.31362E-03 7.64628E-20
3.41468E-03 7.21028E-20
3.51725E-03 6.80501E-20
3.62133E-03 6.42793E-20
3.72692E-03 6.07674E-20
3.83403E-03 5.74925E-20
3.94265E-03 5.44367E-20
4.05278E-03 5.15813E-20
4.16442E-03 4.89124E-20
4.27757E-03 4.64135E-20
4.39223E-03 4.40736E-20
4.50840E-03 4.18792E-20
4.62608E-03 3.98208E-20
4.74527E-03 3.78875E-20
4.86597E-03 3.60707E-20
4.98817E-03 3.43619E-20
5.11188E-03 3.27535E-20
5.23711E-03 3.12386E-20
5.36383E-03 2.98105E-20
5.49207E-03 2.84636E-20
5.62181E-03 2.71920E-20
5.75306E-03 2.59912E-20
5.88581E-03 2.48560E-20
6.02007E-03 2.37825E-20
6.15583E-03 2.27665E-20
6.29310E-03 2.18045E-20
6.43187E-03 2.08930E-20
6.57214E-03 2.00288E-20
6.71392E-03 1.92091E-20
6.85720E-03 1.84311E-20
7.00198E-03 1.76923E-20
7.14827E-03 1.69902E-20
7.29605E-03 1.63229E-20
7.44534E-03 1.56881E-20
7.59612E-03 1.50841E-20
7.97965E-03 1.36969E-20
8.37255E-03 1.24664E-20
8.77480E-03 1.13718E-20
9.18641E-03 1.03952E-20
9.60736E-03 9.52186E-21
1.00376E-02 8.73881E-21
1.04773E-02 8.03505E-21
1.09262E-02 7.40115E-21
1.13844E-02 6.82891E-21
1.18520E-02 6.31124E-21
1.23288E-02 5.84201E-21
1.28150E-02 5.41586E-21
1.33104E-02 5.02811E-21
1.38150E-02 4.67469E-21
1.43290E-02 4.35198E-21
1.48521E-02 4.05683E-21
1.53845E-02 3.78646E-21
1.59262E-02 3.53839E-21
1.64770E-02 3.31046E-21
1.70371E-02 3.10073E-21
1.76063E-02 2.90746E-21
1.81848E-02 2.72914E-21
1.87724E-02 2.56438E-21
1.93692E-02 2.41197E-21
1.99751E-02 2.27080E-21
2.05901E-02 2.13989E-21
2.12143E-02 2.01836E-21
2.18476E-02 1.90540E-21
2.24900E-02 1.80030E-21
2.31415E-02 1.70241E-21
2.38021E-02 1.61113E-21
2.44717E-02 1.52595E-21
2.51504E-02 1.44637E-21
2.58382E-02 1.37195E-21
2.65349E-02 1.30230E-21
2.72407E-02 1.23706E-21
2.79555E-02 1.17588E-21
2.86793E-02 1.11847E-21
2.94120E-02 1.06456E-21
3.01537E-02 1.01388E-21
3.09043E-02 9.66213E-22
3.16639E-02 9.21338E-22
3.24324E-02 8.79062E-22
3.32098E-02 8.39206E-22
3.39961E-02 8.01604E-22
3.47912E-02 7.66103E-22
3.55952E-02 7.32565E-22
3.64081E-02 7.00858E-22
3.72297E-02 6.70866E-22
3.80602E-02 6.42474E-22
3.88995E-02 6.15584E-22
3.97476E-02 5.90098E-22
4.06044E-02 5.65930E-22
4.14700E-02 5.42998E-22
4.23443E-02 5.21228E-22
4.32273E-02 5.00547E-22
4.41190E-02 4.80892E-22
4.50194E-02 4.62201E-22
4.59284E-02 4.44417E-22
4.68461E-02 4.27489E-22
4.87074E-02 3.96005E-22
5.06030E-02 3.67392E-22
5.25328E-02 3.41339E-22
5.44967E-02 3.17576E-22
5.64946E-02 2.95862E-22
5.85262E-02 2.75989E-22
6.05914E-02 2.57771E-22
6.26901E-02 2.41045E-22
6.48222E-02 2.25664E-22
6.69873E-02 2.11501E-22
6.91854E-02 1.98441E-22
7.14163E-02 1.86381E-22
7.36799E-02 1.75231E-22
7.59760E-02 1.64908E-22
7.83043E-02 1.55340E-22
8.06647E-02 1.46461E-22
8.30571E-02 1.38212E-22
8.54812E-02 1.30540E-22
8.79369E-02 1.23396E-22
9.04240E-02 1.16737E-22
9.29422E-02 1.10524E-22
9.54915E-02 1.04721E-22
9.80716E-02 9.92968E-23
1.00682E-01 9.42207E-23
1.03323E-01 8.94665E-23
1.05995E-01 8.50098E-23
1.08696E-01 8.08284E-23
1.11427E-01 7.69020E-23
1.14188E-01 7.32120E-23
1.16978E-01 6.97414E-23
1.19797E-01 6.64747E-23
1.22645E-01 6.33975E-23
1.25522E-01 6.04967E-23
1.28428E-01 5.77602E-23
1.31361E-01 5.51770E-23
1.34323E-01 5.27367E-23
1.37313E-01 5.04299E-23
1.40330E-01 4.82478E-23
1.43375E-01 4.61825E-23
1.46447E-01 4.42265E-23
1.49545E-01 4.23727E-23
1.52671E-01 4.06149E-23
1.55823E-01 3.89471E-23
1.59001E-01 3.73639E-23
1.62205E-01 3.58599E-23
1.65435E-01 3.44306E-23
1.68690E-01 3.30715E-23
1.71970E-01 3.17785E-23
1.75276E-01 3.05476E-23
1.78606E-01 2.93755E-23
1.81961E-01 2.82586E-23
1.85340E-01 2.71939E-23
1.88743E-01 2.61785E-23
1.92169E-01 2.52097E-23
1.95619E-01 2.42848E-23
1.99092E-01 2.34015E-23
2.02589E-01 2.25577E-23
2.06107E-01 2.17510E-23
2.09649E-01 2.09797E-23
2.13212E-01 2.02418E-23
2.16797E-01 1.95357E-23
2.20404E-01 1.88596E-23
2.24032E-01 1.82121E-23
2.27680E-01 1.75917E-23
2.31350E-01 1.69971E-23
2.35040E-01 1.64269E-23
2.38751E-01 1.58800E-23
2.42481E-01 1.53553E-23
2.46231E-01 1.48516E-23
2.50000E-01 1.43680E-23
2.53788E-01 1.39035E-23
2.57595E-01 1.34572E-23
2.61421E-01 1.30283E-23
2.65264E-01 1.26158E-23
2.69126E-01 1.22192E-23
2.73005E-01 1.18376E-23
2.76901E-01 1.14704E-23
2.80814E-01 1.11170E-23
2.84744E-01 1.07766E-23
2.88691E-01 1.04488E-23
2.92653E-01 1.01330E-23
2.96632E-01 9.82864E-24
3.00625E-01 9.53526E-24
3.04634E-01 9.25235E-24
3.08658E-01 8.97950E-24
3.12697E-01 8.71628E-24
3.16749E-01 8.46228E-24
3.20816E-01 8.21709E-24
3.24896E-01 7.98037E-24
3.28990E-01 7.75178E-24
3.33097E-01 7.53097E-24
3.37216E-01 7.31763E-24
3.41348E-01 7.11146E-24
3.45492E-01 6.91216E-24
3.49647E-01 6.71949E-24
3.53814E-01 6.53316E-24
3.57992E-01 6.35292E-24
3.62181E-01 6.17855E-24
3.66381E-01 6.00982E-24
3.70590E-01 5.84650E-24
3.74810E-01 5.68839E-24
3.79039E-01 5.53529E-24
3.83277E-01 5.38702E-24
3.87524E-01 5.24339E-24
3.91780E-01 5.10423E-24
3.96044E-01 4.96937E-24
4.00316E-01 4.83867E-24
4.04596E-01 4.71195E-24
4.08882E-01 4.58909E-24
4.13176E-01 4.46994E-24
4.17476E-01 4.35437E-24
4.21783E-01 4.24226E-24
4.26095E-01 4.13347E-24
4.30413E-01 4.02789E-24
4.34737E-01 3.92542E-24
4.39065E-01 3.82593E-24
4.43398E-01 3.72934E-24
4.47736E-01 3.63553E-24
4.52077E-01 3.54441E-24
4.56422E-01 3.45590E-24
4.60770E-01 3.36990E-24
4.65122E-01 3.28633E-24
4.69476E-01 3.20511E-24
4.73832E-01 3.12616E-24
4.78190E-01 3.04941E-24
4.82550E-01 2.97478E-24
4.86912E-01 2.90220E-24
4.91274E-01 2.83162E-24
4.95637E-01 2.76295E-24
5.00000E-01 2.69615E-24
5.04363E-01 2.63115E-24
5.08726E-01 2.56790E-24
5.13088E-01 2.50633E-24
5.17450E-01 2.44640E-24
5.21810E-01 2.38806E-24
5.26168E-01 2.33125E-24
5.30524E-01 2.27593E-24
5.34878E-01 2.22206E-24
5.39230E-01 2.16958E-24
5.43578E-01 2.11846E-24
5.47923E-01 2.06865E-24
5.52264E-01 2.02012E-24
5.56602E-01 1.97283E-24
5.60935E-01 1.92674E-24
5.65263E-01 1.88181E-24
5.69587E-01 1.83801E-24
5.73905E-01 1.79531E-24
5.78217E-01 1.75368E-24
5.82524E-01 1.71308E-24
5.86824E-01 1.67348E-24
5.91118E-01 1.63486E-24
5.95404E-01 1.59718E-24
5.99684E-01 1.56043E-24
6.03956E-01 1.52457E-24
6.08220E-01 1.48958E-24
6.12476E-01 1.45543E-24
6.16723E-01 1.42210E-24
6.20961E-01 1.38957E-24
6.25190E-01 1.35782E-24
6.29410E-01 1.32682E-24
6.33619E-01 1.29655E-24
6.37819E-01 1.26700E-24
6.42008E-01 1.23814E-24
6.46186E-01 1.20996E-24
6.50353E-01 1.18244E-24
6.54508E-01 1.15555E-24
6.58652E-01 1.12929E-24
6.62784E-01 1.10364E-24
6.66903E-01 1.07857E-24
6.71010E-01 1.05408E-24
6.75104E-01 1.03015E-24
6.79184E-01 1.00676E-24
6.83251E-01 9.83907E-25
6.87303E-01 9.61567E-25
6.91342E-01 9.39732E-25
6.95366E-01 9.18388E-25
6.99375E-01 8.97521E-25
7.03368E-01 8.77121E-25
7.07347E-01 8.57176E-25
7.11309E-01 8.37674E-25
7.15256E-01 8.18604E-25
7.19186E-01 7.99955E-25
7.23099E-01 7.81717E-25
7.26995E-01 7.63880E-25
7.30874E-01 7.46433E-25
7.34736E-01 7.29368E-25
7.38579E-01 7.12676E-25
7.42405E-01 6.96346E-25
7.46212E-01 6.80370E-25
7.50000E-01 6.64740E-25
7.53769E-01 6.49448E-25
7.57519E-01 6.34485E-25
7.61249E-01 6.19844E-25
7.64960E-01 6.05517E-25
7.68650E-01 5.91497E-25
7.72320E-01 5.77776E-25
7.75968E-01 5.64348E-25
7.79596E-01 5.51206E-25
7.83203E-01 5.38343E-25
7.86788E-01 5.25753E-25
7.90351E-01 5.13430E-25
7.93893E-01 5.01368E-25
7.97411E-01 4.89560E-25
8.00908E-01 4.78002E-25
8.04381E-01 4.66687E-25
8.07831E-01 4.55610E-25
8.11257E-01 4.44766E-25
8.14660E-01 4.34150E-25
8.18039E-01 4.23757E-25
8.21394E-01 4.13582E-25
8.24724E-01 4.03620E-25
8.28030E-01 3.93866E-25
8.31310E-01 3.84317E-25
8.34565E-01 3.74968E-25
8.37795E-01 3.65814E-25
8.40999E-01 3.56851E-25
8.44177E-01 3.48076E-25
8.47329E-01 3.39485E-25
8.50455E-01 3.31073E-25
8.53553E-01 3.22838E-25
8.56625E-01 3.14774E-25
8.59670E-01 3.06880E-25
8.62687E-01 2.99151E-25
8.65677E-01 2.91584E-25
8.68639E-01 2.84176E-25
8.71572E-01 2.76924E-25
8.74478E-01 2.69825E-25
8.77355E-01 2.62875E-25
8.80203E-01 2.56072E-25
8.83022E-01 2.49413E-25
8.85812E-01 2.42896E-25
8.88573E-01 2.36516E-25
8.91304E-01 2.30273E-25
8.94005E-01 2.24163E-25
8.96677E-01 2.18184E-25
8.99318E-01 2.12333E-25
9.01928E-01 2.06608E-25
9.04508E-01 2.01007E-25
9.07058E-01 1.95527E-25
9.09576E-01 1.90167E-25
9.12063E-01 1.84924E-25
9.14519E-01 1.79796E-25
9.16943E-01 1.74782E-25
9.19335E-01 1.69878E-25
9.21696E-01 1.65083E-25
9.24024E-01 1.60396E-25
9.26320E-01 1.55815E-25
9.28584E-01 1.51337E-25
9.30815E-01 1.46962E-25
9.33013E-01 1.42686E-25
9.35178E-01 1.38510E-25
9.37310E-01 1.34431E-25
9.39409E-01 1.30447E-25
9.41474E-01 1.26558E-25
9.43505E-01 1.22761E-25
9.45503E-01 1.19055E-25
9.47467E-01 1.15440E-25
9.49397E-01 1.11913E-25
9.51293E-01 1.08473E-25
9.53154E-01 1.05119E-25
9.54981E-01 1.01850E-25
9.56773E-01 9.86648E-26
9.58530E-01 9.55618E-26
9.60252E-01 9.25401E-26
9.61940E-01 8.95985E-26
9.63592E-01 8.67361E-26
9.65209E-01 8.39518E-26
9.66790E-01 8.12445E-26
9.68336E-01 7.86133E-26
9.69846E-01 7.60574E-26
9.71321E-01 7.35757E-26
9.72759E-01 7.11674E-26
9.74162E-01 6.88316E-26
9.75528E-01 6.65675E-26
9.76858E-01 6.43744E-26
9.78152E-01 6.22513E-26
9.79410E-01 6.01977E-26
9.80631E-01 5.82127E-26
9.81815E-01 5.62957E-26
9.82963E-01 5.44460E-26
9.84074E-01 5.26630E-26
9.85148E-01 5.09460E-26
9.86185E-01 4.92945E-26
9.87185E-01 4.77078E-26
9.88148E-01 4.61855E-26
9.89074E-01 4.47269E-26
9.89962E-01 4.33317E-26
9.90814E-01 4.19993E-26
9.91627E-01 4.07292E-26
9.92404E-01 3.95211E-26
9.93143E-01 3.83745E-26
9.93844E-01 3.72890E-26
9.94508E-01 3.62643E-26
9.95134E-01 3.52999E-26
9.95722E-01 3.43957E-26
9.96273E-01 3.35512E-26
9.96786E-01 3.27661E-26
9.97261E-01 3.20403E-26
9.97698E-01 3.13735E-26
9.98097E-01 3.07654E-26
9.98459E-01 3.02158E-26
9.98782E-01 2.97246E-26
9.99067E-01 2.92916E-26
9.99315E-01 2.89166E-26
9.99524E-01 2.85995E-26
9.99695E-01 2.83402E-26
9.99829E-01 2.81386E-26
9.99924E-01 2.79946E-26
9.99981E-01 2.79083E-26
1.00000E+00 2.78795E-26
