 #
 # Subroutine ELSEPA. Elastic scattering of electrons and positrons
 #                    by neutral atoms and positive ions
 #
 # Projectile: electron
 # Kinetic energy = 7.00000E+05 eV = 2.57245E+04 a.u.
 #
 # Element: Rb,  Z =  37,  atomic weight = 8.54678E+01 g/mol
 #
 # Nuclear model: Fermi distribution
 #                Average radius = 4.71322E-13 cm
 #                Skin thickness = 5.46000E-14 cm
 #
 # Number of electrons = 37
 #
 # Electron density: Read from file Data/z_037.d
 #                   Number of data points =  859
 #                   Volume integral = 3.70000E+01
 #
 # Furness-McCarthy exchange potential
 #
 # LDA absorption potential (only electron-hole excitations):
 #                           Delta = 0.00000E+00 eV
 #                            Aabs = 2.00000E+00
 #
 # Total elastic cross section = 4.03514E-18 cm**2 = 1.44097E-01 a0**2
 # 1st transport cross section = 1.58385E-21 cm**2 = 5.65601E-05 a0**2
 # 2nd transport cross section = 4.31704E-21 cm**2 = 1.54164E-04 a0**2
 #
 #    Absorption cross section = 9.38137E-19 cm**2 = 3.35015E-02 a0**2
 #   Grand total cross section = 4.97572E-18 cm**2 = 1.77686E-01 a0**2
 #
 #
 # Differential cross section:                       MU=(1-COS(THETA))/2
 #
 #  THETA        MU          DCS          DCS        Sherman      error
 #  (deg)                 (cm**2/sr)   (a0**2/sr)    function
 #----------------------------------------------------------------------
0.00000E+00 7.66731E-14
7.61557E-13 7.66730E-14
1.18994E-12 7.66730E-14
1.71346E-12 7.66730E-14
2.33225E-12 7.66729E-14
3.04617E-12 7.66728E-14
3.85530E-12 7.66728E-14
4.75964E-12 7.66727E-14
5.75917E-12 7.66726E-14
6.85391E-12 7.66725E-14
8.04379E-12 7.66724E-14
9.32893E-12 7.66723E-14
1.07092E-11 7.66722E-14
1.21847E-11 7.66721E-14
1.37554E-11 7.66719E-14
1.54213E-11 7.66718E-14
1.71823E-11 7.66716E-14
1.90386E-11 7.66715E-14
2.09900E-11 7.66713E-14
2.30367E-11 7.66711E-14
2.51785E-11 7.66709E-14
2.74156E-11 7.66708E-14
2.97478E-11 7.66706E-14
3.21752E-11 7.66703E-14
3.46979E-11 7.66701E-14
3.73157E-11 7.66699E-14
4.00286E-11 7.66697E-14
4.28368E-11 7.66694E-14
4.57402E-11 7.66692E-14
4.87388E-11 7.66689E-14
5.18325E-11 7.66687E-14
5.50215E-11 7.66684E-14
5.83057E-11 7.66681E-14
6.16850E-11 7.66678E-14
6.51595E-11 7.66675E-14
6.87293E-11 7.66672E-14
7.23943E-11 7.66669E-14
7.61544E-11 7.66666E-14
1.18991E-10 7.66629E-14
1.71347E-10 7.66584E-14
2.33223E-10 7.66531E-14
3.04617E-10 7.66470E-14
3.85531E-10 7.66401E-14
4.75965E-10 7.66324E-14
5.75917E-10 7.66238E-14
6.85389E-10 7.66144E-14
8.04380E-10 7.66043E-14
9.32891E-10 7.65933E-14
1.07092E-09 7.65815E-14
1.21847E-09 7.65689E-14
1.37554E-09 7.65554E-14
1.54213E-09 7.65412E-14
1.71823E-09 7.65262E-14
1.90386E-09 7.65103E-14
2.09900E-09 7.64937E-14
2.30367E-09 7.64762E-14
2.51785E-09 7.64580E-14
2.74156E-09 7.64389E-14
2.97478E-09 7.64190E-14
3.21752E-09 7.63984E-14
3.46978E-09 7.63769E-14
3.73156E-09 7.63546E-14
4.00286E-09 7.63315E-14
4.28368E-09 7.63077E-14
4.57402E-09 7.62830E-14
4.87388E-09 7.62576E-14
5.18326E-09 7.62313E-14
5.50215E-09 7.62043E-14
5.83057E-09 7.61765E-14
6.16850E-09 7.61478E-14
6.51596E-09 7.61184E-14
6.87293E-09 7.60882E-14
7.23942E-09 7.60573E-14
7.61544E-09 7.60255E-14
1.18991E-08 7.56653E-14
1.71347E-08 7.52289E-14
2.33223E-08 7.47187E-14
3.04617E-08 7.41373E-14
3.85531E-08 7.34876E-14
4.75965E-08 7.27728E-14
5.75917E-08 7.19966E-14
6.85389E-08 7.11625E-14
8.04380E-08 7.02746E-14
9.32891E-08 6.93369E-14
1.07092E-07 6.83535E-14
1.21847E-07 6.73288E-14
1.37554E-07 6.62670E-14
1.54213E-07 6.51724E-14
1.71823E-07 6.40493E-14
1.90386E-07 6.29019E-14
2.09900E-07 6.17343E-14
2.30367E-07 6.05505E-14
2.51785E-07 5.93543E-14
2.74156E-07 5.81495E-14
2.97478E-07 5.69397E-14
3.21752E-07 5.57280E-14
3.46978E-07 5.45178E-14
3.73156E-07 5.33119E-14
4.00286E-07 5.21131E-14
4.28368E-07 5.09238E-14
4.57402E-07 4.97464E-14
4.87388E-07 4.85829E-14
5.18325E-07 4.74353E-14
5.50215E-07 4.63051E-14
5.83057E-07 4.51939E-14
6.16850E-07 4.41028E-14
6.51596E-07 4.30331E-14
6.87293E-07 4.19856E-14
7.23942E-07 4.09610E-14
7.61543E-07 3.99600E-14
1.18991E-06 3.12866E-14
1.71347E-06 2.48684E-14
2.33223E-06 2.01880E-14
3.04617E-06 1.67169E-14
3.85531E-06 1.40607E-14
4.75964E-06 1.19588E-14
5.75916E-06 1.02480E-14
6.85388E-06 8.82653E-15
8.04378E-06 7.62967E-15
9.32888E-06 6.61380E-15
1.07092E-05 5.74762E-15
1.21846E-05 5.00727E-15
1.37553E-05 4.37368E-15
1.54212E-05 3.83103E-15
1.71822E-05 3.36589E-15
1.90385E-05 2.96678E-15
2.09899E-05 2.62385E-15
2.30365E-05 2.32873E-15
2.51783E-05 2.07422E-15
2.74153E-05 1.85418E-15
2.97475E-05 1.66343E-15
3.21749E-05 1.49755E-15
3.46974E-05 1.35284E-15
3.73152E-05 1.22616E-15
4.00281E-05 1.11486E-15
4.28362E-05 1.01671E-15
4.57395E-05 9.29838E-16
4.87380E-05 8.52668E-16
5.18317E-05 7.83862E-16
5.50205E-05 7.22288E-16
5.83045E-05 6.66995E-16
6.16838E-05 6.17176E-16
6.51582E-05 5.72144E-16
6.87277E-05 5.31312E-16
7.23925E-05 4.94178E-16
7.61524E-05 4.60315E-16
9.21439E-05 3.50939E-16
1.09658E-04 2.71945E-16
1.28695E-04 2.13406E-16
1.49255E-04 1.69217E-16
1.71338E-04 1.35404E-16
1.94942E-04 1.09263E-16
2.20070E-04 8.88797E-17
2.46720E-04 7.28657E-17
2.74892E-04 6.01955E-17
3.04586E-04 5.01016E-17
3.35803E-04 4.20049E-17
3.68542E-04 3.54656E-17
4.02802E-04 3.01478E-17
4.38585E-04 2.57936E-17
4.75889E-04 2.22041E-17
5.14715E-04 1.92254E-17
5.55063E-04 1.67373E-17
5.96931E-04 1.46460E-17
6.40321E-04 1.28774E-17
6.85233E-04 1.13731E-17
7.31665E-04 1.00865E-17
7.79618E-04 8.98022E-18
8.29092E-04 8.02425E-18
8.80086E-04 7.19429E-18
9.32601E-04 6.47053E-18
9.86636E-04 5.83675E-18
1.04219E-03 5.27958E-18
1.09927E-03 4.78797E-18
1.15786E-03 4.35271E-18
1.21797E-03 3.96609E-18
1.27961E-03 3.62163E-18
1.34276E-03 3.31386E-18
1.40743E-03 3.03814E-18
1.47362E-03 2.79049E-18
1.54133E-03 2.56752E-18
1.61056E-03 2.36633E-18
1.68131E-03 2.18439E-18
1.75357E-03 2.01953E-18
1.82735E-03 1.86985E-18
1.90265E-03 1.73372E-18
1.97947E-03 1.60967E-18
2.05780E-03 1.49646E-18
2.13765E-03 1.39296E-18
2.21902E-03 1.29820E-18
2.30190E-03 1.21132E-18
2.38630E-03 1.13153E-18
2.47222E-03 1.05817E-18
2.55965E-03 9.90625E-19
2.64859E-03 9.28353E-19
2.73905E-03 8.70872E-19
2.83103E-03 8.17750E-19
2.92452E-03 7.68598E-19
3.01952E-03 7.23069E-19
3.11604E-03 6.80849E-19
3.21407E-03 6.41656E-19
3.31362E-03 6.05234E-19
3.41468E-03 5.71353E-19
3.51725E-03 5.39805E-19
3.62133E-03 5.10402E-19
3.72692E-03 4.82971E-19
3.83403E-03 4.57357E-19
3.94265E-03 4.33417E-19
4.05278E-03 4.11024E-19
4.16442E-03 3.90060E-19
4.27757E-03 3.70416E-19
4.39223E-03 3.51995E-19
4.50840E-03 3.34707E-19
4.62608E-03 3.18469E-19
4.74527E-03 3.03207E-19
4.86597E-03 2.88850E-19
4.98817E-03 2.75336E-19
5.11188E-03 2.62606E-19
5.23711E-03 2.50606E-19
5.36383E-03 2.39286E-19
5.49207E-03 2.28601E-19
5.62181E-03 2.18509E-19
5.75306E-03 2.08970E-19
5.88581E-03 1.99949E-19
6.02007E-03 1.91412E-19
6.15583E-03 1.83329E-19
6.29310E-03 1.75670E-19
6.43187E-03 1.68410E-19
6.57214E-03 1.61523E-19
6.71392E-03 1.54987E-19
6.85720E-03 1.48781E-19
7.00198E-03 1.42884E-19
7.14827E-03 1.37279E-19
7.29605E-03 1.31948E-19
7.44534E-03 1.26875E-19
7.59612E-03 1.22046E-19
7.97965E-03 1.10947E-19
8.37255E-03 1.01092E-19
8.77480E-03 9.23155E-20
9.18641E-03 8.44788E-20
9.60736E-03 7.74630E-20
1.00376E-02 7.11667E-20
1.04773E-02 6.55027E-20
1.09262E-02 6.03959E-20
1.13844E-02 5.57815E-20
1.18520E-02 5.16032E-20
1.23288E-02 4.78124E-20
1.28150E-02 4.43663E-20
1.33104E-02 4.12280E-20
1.38150E-02 3.83647E-20
1.43290E-02 3.57478E-20
1.48521E-02 3.33523E-20
1.53845E-02 3.11559E-20
1.59262E-02 2.91390E-20
1.64770E-02 2.72840E-20
1.70371E-02 2.55757E-20
1.76063E-02 2.40002E-20
1.81848E-02 2.25452E-20
1.87724E-02 2.11998E-20
1.93692E-02 1.99542E-20
1.99751E-02 1.87995E-20
2.05901E-02 1.77279E-20
2.12143E-02 1.67323E-20
2.18476E-02 1.58062E-20
2.24900E-02 1.49438E-20
2.31415E-02 1.41401E-20
2.38021E-02 1.33901E-20
2.44717E-02 1.26896E-20
2.51504E-02 1.20348E-20
2.58382E-02 1.14220E-20
2.65349E-02 1.08481E-20
2.72407E-02 1.03102E-20
2.79555E-02 9.80544E-21
2.86793E-02 9.33151E-21
2.94120E-02 8.88613E-21
3.01537E-02 8.46725E-21
3.09043E-02 8.07300E-21
3.16639E-02 7.70164E-21
3.24324E-02 7.35159E-21
3.32098E-02 7.02138E-21
3.39961E-02 6.70969E-21
3.47912E-02 6.41526E-21
3.55952E-02 6.13696E-21
3.64081E-02 5.87373E-21
3.72297E-02 5.62460E-21
3.80602E-02 5.38866E-21
3.88995E-02 5.16509E-21
3.97476E-02 4.95310E-21
4.06044E-02 4.75198E-21
4.14700E-02 4.56106E-21
4.23443E-02 4.37973E-21
4.32273E-02 4.20741E-21
4.41190E-02 4.04356E-21
4.50194E-02 3.88769E-21
4.59284E-02 3.73933E-21
4.68461E-02 3.59805E-21
4.87074E-02 3.33514E-21
5.06030E-02 3.09603E-21
5.25328E-02 2.87816E-21
5.44967E-02 2.67931E-21
5.64946E-02 2.49749E-21
5.85262E-02 2.33099E-21
6.05914E-02 2.17826E-21
6.26901E-02 2.03795E-21
6.48222E-02 1.90886E-21
6.69873E-02 1.78993E-21
6.91854E-02 1.68021E-21
7.14163E-02 1.57884E-21
7.36799E-02 1.48507E-21
7.59760E-02 1.39823E-21
7.83043E-02 1.31769E-21
8.06647E-02 1.24293E-21
8.30571E-02 1.17344E-21
8.54812E-02 1.10878E-21
8.79369E-02 1.04856E-21
9.04240E-02 9.92399E-22
9.29422E-02 9.39985E-22
9.54915E-02 8.91013E-22
9.80716E-02 8.45217E-22
1.00682E-01 8.02349E-22
1.03323E-01 7.62186E-22
1.05995E-01 7.24525E-22
1.08696E-01 6.89179E-22
1.11427E-01 6.55979E-22
1.14188E-01 6.24769E-22
1.16978E-01 5.95406E-22
1.19797E-01 5.67760E-22
1.22645E-01 5.41711E-22
1.25522E-01 5.17149E-22
1.28428E-01 4.93972E-22
1.31361E-01 4.72087E-22
1.34323E-01 4.51407E-22
1.37313E-01 4.31854E-22
1.40330E-01 4.13354E-22
1.43375E-01 3.95839E-22
1.46447E-01 3.79247E-22
1.49545E-01 3.63519E-22
1.52671E-01 3.48601E-22
1.55823E-01 3.34443E-22
1.59001E-01 3.21000E-22
1.62205E-01 3.08227E-22
1.65435E-01 2.96086E-22
1.68690E-01 2.84538E-22
1.71970E-01 2.73549E-22
1.75276E-01 2.63086E-22
1.78606E-01 2.53119E-22
1.81961E-01 2.43621E-22
1.85340E-01 2.34564E-22
1.88743E-01 2.25925E-22
1.92169E-01 2.17679E-22
1.95619E-01 2.09807E-22
1.99092E-01 2.02286E-22
2.02589E-01 1.95100E-22
2.06107E-01 1.88229E-22
2.09649E-01 1.81657E-22
2.13212E-01 1.75369E-22
2.16797E-01 1.69350E-22
2.20404E-01 1.63586E-22
2.24032E-01 1.58064E-22
2.27680E-01 1.52772E-22
2.31350E-01 1.47699E-22
2.35040E-01 1.42833E-22
2.38751E-01 1.38165E-22
2.42481E-01 1.33685E-22
2.46231E-01 1.29384E-22
2.50000E-01 1.25253E-22
2.53788E-01 1.21284E-22
2.57595E-01 1.17470E-22
2.61421E-01 1.13804E-22
2.65264E-01 1.10277E-22
2.69126E-01 1.06886E-22
2.73005E-01 1.03622E-22
2.76901E-01 1.00480E-22
2.80814E-01 9.74550E-23
2.84744E-01 9.45416E-23
2.88691E-01 9.17348E-23
2.92653E-01 8.90300E-23
2.96632E-01 8.64227E-23
3.00625E-01 8.39088E-23
3.04634E-01 8.14842E-23
3.08658E-01 7.91450E-23
3.12697E-01 7.68877E-23
3.16749E-01 7.47090E-23
3.20816E-01 7.26056E-23
3.24896E-01 7.05742E-23
3.28990E-01 6.86119E-23
3.33097E-01 6.67160E-23
3.37216E-01 6.48838E-23
3.41348E-01 6.31127E-23
3.45492E-01 6.14001E-23
3.49647E-01 5.97440E-23
3.53814E-01 5.81420E-23
3.57992E-01 5.65920E-23
3.62181E-01 5.50920E-23
3.66381E-01 5.36401E-23
3.70590E-01 5.22344E-23
3.74810E-01 5.08732E-23
3.79039E-01 4.95547E-23
3.83277E-01 4.82775E-23
3.87524E-01 4.70399E-23
3.91780E-01 4.58406E-23
3.96044E-01 4.46779E-23
4.00316E-01 4.35507E-23
4.04596E-01 4.24576E-23
4.08882E-01 4.13975E-23
4.13176E-01 4.03691E-23
4.17476E-01 3.93713E-23
4.21783E-01 3.84030E-23
4.26095E-01 3.74632E-23
4.30413E-01 3.65508E-23
4.34737E-01 3.56650E-23
4.39065E-01 3.48048E-23
4.43398E-01 3.39693E-23
4.47736E-01 3.31577E-23
4.52077E-01 3.23691E-23
4.56422E-01 3.16028E-23
4.60770E-01 3.08581E-23
4.65122E-01 3.01342E-23
4.69476E-01 2.94304E-23
4.73832E-01 2.87460E-23
4.78190E-01 2.80805E-23
4.82550E-01 2.74332E-23
4.86912E-01 2.68036E-23
4.91274E-01 2.61909E-23
4.95637E-01 2.55948E-23
5.00000E-01 2.50146E-23
5.04363E-01 2.44500E-23
5.08726E-01 2.39003E-23
5.13088E-01 2.33651E-23
5.17450E-01 2.28439E-23
5.21810E-01 2.23364E-23
5.26168E-01 2.18421E-23
5.30524E-01 2.13606E-23
5.34878E-01 2.08915E-23
5.39230E-01 2.04344E-23
5.43578E-01 1.99890E-23
5.47923E-01 1.95548E-23
5.52264E-01 1.91317E-23
5.56602E-01 1.87192E-23
5.60935E-01 1.83170E-23
5.65263E-01 1.79249E-23
5.69587E-01 1.75425E-23
5.73905E-01 1.71696E-23
5.78217E-01 1.68058E-23
5.82524E-01 1.64509E-23
5.86824E-01 1.61047E-23
5.91118E-01 1.57669E-23
5.95404E-01 1.54373E-23
5.99684E-01 1.51156E-23
6.03956E-01 1.48016E-23
6.08220E-01 1.44951E-23
6.12476E-01 1.41959E-23
6.16723E-01 1.39038E-23
6.20961E-01 1.36186E-23
6.25190E-01 1.33401E-23
6.29410E-01 1.30681E-23
6.33619E-01 1.28024E-23
6.37819E-01 1.25429E-23
6.42008E-01 1.22895E-23
6.46186E-01 1.20418E-23
6.50353E-01 1.17999E-23
6.54508E-01 1.15635E-23
6.58652E-01 1.13324E-23
6.62784E-01 1.11067E-23
6.66903E-01 1.08860E-23
6.71010E-01 1.06703E-23
6.75104E-01 1.04595E-23
6.79184E-01 1.02534E-23
6.83251E-01 1.00519E-23
6.87303E-01 9.85488E-24
6.91342E-01 9.66224E-24
6.95366E-01 9.47386E-24
6.99375E-01 9.28963E-24
7.03368E-01 9.10945E-24
7.07347E-01 8.93322E-24
7.11309E-01 8.76083E-24
7.15256E-01 8.59221E-24
7.19186E-01 8.42725E-24
7.23099E-01 8.26587E-24
7.26995E-01 8.10797E-24
7.30874E-01 7.95347E-24
7.34736E-01 7.80229E-24
7.38579E-01 7.65435E-24
7.42405E-01 7.50957E-24
7.46212E-01 7.36789E-24
7.50000E-01 7.22922E-24
7.53769E-01 7.09349E-24
7.57519E-01 6.96064E-24
7.61249E-01 6.83059E-24
7.64960E-01 6.70329E-24
7.68650E-01 6.57866E-24
7.72320E-01 6.45666E-24
7.75968E-01 6.33722E-24
7.79596E-01 6.22027E-24
7.83203E-01 6.10577E-24
7.86788E-01 5.99365E-24
7.90351E-01 5.88387E-24
7.93893E-01 5.77637E-24
7.97411E-01 5.67111E-24
8.00908E-01 5.56802E-24
8.04381E-01 5.46708E-24
8.07831E-01 5.36822E-24
8.11257E-01 5.27140E-24
8.14660E-01 5.17658E-24
8.18039E-01 5.08372E-24
8.21394E-01 4.99277E-24
8.24724E-01 4.90370E-24
8.28030E-01 4.81647E-24
8.31310E-01 4.73102E-24
8.34565E-01 4.64733E-24
8.37795E-01 4.56537E-24
8.40999E-01 4.48509E-24
8.44177E-01 4.40646E-24
8.47329E-01 4.32945E-24
8.50455E-01 4.25402E-24
8.53553E-01 4.18015E-24
8.56625E-01 4.10780E-24
8.59670E-01 4.03693E-24
8.62687E-01 3.96753E-24
8.65677E-01 3.89957E-24
8.68639E-01 3.83301E-24
8.71572E-01 3.76783E-24
8.74478E-01 3.70399E-24
8.77355E-01 3.64148E-24
8.80203E-01 3.58027E-24
8.83022E-01 3.52034E-24
8.85812E-01 3.46166E-24
8.88573E-01 3.40421E-24
8.91304E-01 3.34796E-24
8.94005E-01 3.29289E-24
8.96677E-01 3.23899E-24
8.99318E-01 3.18623E-24
9.01928E-01 3.13458E-24
9.04508E-01 3.08404E-24
9.07058E-01 3.03458E-24
9.09576E-01 2.98618E-24
9.12063E-01 2.93883E-24
9.14519E-01 2.89250E-24
9.16943E-01 2.84718E-24
9.19335E-01 2.80285E-24
9.21696E-01 2.75949E-24
9.24024E-01 2.71709E-24
9.26320E-01 2.67564E-24
9.28584E-01 2.63512E-24
9.30815E-01 2.59551E-24
9.33013E-01 2.55679E-24
9.35178E-01 2.51896E-24
9.37310E-01 2.48199E-24
9.39409E-01 2.44589E-24
9.41474E-01 2.41063E-24
9.43505E-01 2.37621E-24
9.45503E-01 2.34260E-24
9.47467E-01 2.30980E-24
9.49397E-01 2.27779E-24
9.51293E-01 2.24657E-24
9.53154E-01 2.21612E-24
9.54981E-01 2.18643E-24
9.56773E-01 2.15750E-24
9.58530E-01 2.12931E-24
9.60252E-01 2.10185E-24
9.61940E-01 2.07511E-24
9.63592E-01 2.04908E-24
9.65209E-01 2.02376E-24
9.66790E-01 1.99914E-24
9.68336E-01 1.97521E-24
9.69846E-01 1.95195E-24
9.71321E-01 1.92936E-24
9.72759E-01 1.90744E-24
9.74162E-01 1.88617E-24
9.75528E-01 1.86556E-24
9.76858E-01 1.84558E-24
9.78152E-01 1.82625E-24
9.79410E-01 1.80754E-24
9.80631E-01 1.78945E-24
9.81815E-01 1.77197E-24
9.82963E-01 1.75511E-24
9.84074E-01 1.73886E-24
9.85148E-01 1.72320E-24
9.86185E-01 1.70814E-24
9.87185E-01 1.69367E-24
9.88148E-01 1.67979E-24
9.89074E-01 1.66648E-24
9.89962E-01 1.65375E-24
9.90814E-01 1.64159E-24
9.91627E-01 1.63000E-24
9.92404E-01 1.61897E-24
9.93143E-01 1.60851E-24
9.93844E-01 1.59860E-24
9.94508E-01 1.58924E-24
9.95134E-01 1.58043E-24
9.95722E-01 1.57218E-24
9.96273E-01 1.56446E-24
9.96786E-01 1.55730E-24
9.97261E-01 1.55067E-24
9.97698E-01 1.54458E-24
9.98097E-01 1.53902E-24
9.98459E-01 1.53400E-24
9.98782E-01 1.52951E-24
9.99067E-01 1.52555E-24
9.99315E-01 1.52213E-24
9.99524E-01 1.51924E-24
9.99695E-01 1.51687E-24
9.99829E-01 1.51502E-24
9.99924E-01 1.51370E-24
9.99981E-01 1.51291E-24
1.00000E+00 1.51263E-24
