 #
 # Subroutine ELSEPA. Elastic scattering of electrons and positrons
 #                    by neutral atoms and positive ions
 #
 # Projectile: electron
 # Kinetic energy = 4.50000E+08 eV = 1.65372E+07 a.u.
 #
 # WARNING: High-energy factorization with free-atom DF screening.
 #          Absorption, polarization and exchange corrections are
 #          switched off.
 #          Phase shifts are calculated for the bare nucleus.
 #          Scattering amplitudes are not evaluated.
 #
 # Element: Rb,  Z =  37,  atomic weight = 8.54678E+01 g/mol
 #
 # Nuclear model: Fermi distribution
 #                Average radius = 4.71322E-13 cm
 #                Skin thickness = 5.46000E-14 cm
 #
 # Number of electrons = 37
 #
 # Total elastic cross section = 3.32136E-18 cm**2 = 1.18608E-01 a0**2
 # 1st transport cross section = 1.35948E-26 cm**2 = 4.85479E-10 a0**2
 # 2nd transport cross section = 4.07631E-26 cm**2 = 1.45568E-09 a0**2
 #
 #
 # Differential cross section:                       MU=(1-COS(THETA))/2
 #
 #  THETA        MU          DCS          DCS        Sherman      error
 #  (deg)                 (cm**2/sr)   (a0**2/sr)    function
 #----------------------------------------------------------------------
0.00000E+00 1.06275E-08
7.61557E-13 9.27626E-09
1.18994E-12 8.64340E-09
1.71346E-12 7.96505E-09
2.33225E-12 7.28287E-09
3.04617E-12 6.61868E-09
3.85530E-12 5.99134E-09
4.75964E-12 5.41286E-09
5.75917E-12 4.88932E-09
6.85391E-12 4.42806E-09
8.04379E-12 4.02001E-09
9.32893E-12 3.65985E-09
1.07092E-11 3.34292E-09
1.21847E-11 3.06423E-09
1.37554E-11 2.81937E-09
1.54213E-11 2.60397E-09
1.71823E-11 2.41198E-09
1.90386E-11 2.24017E-09
2.09900E-11 2.08571E-09
2.30367E-11 1.94618E-09
2.51785E-11 1.81944E-09
2.74156E-11 1.70353E-09
2.97478E-11 1.59713E-09
3.21752E-11 1.49913E-09
3.46979E-11 1.40859E-09
3.73157E-11 1.32469E-09
4.00286E-11 1.24636E-09
4.28368E-11 1.17345E-09
4.57402E-11 1.10547E-09
4.87388E-11 1.04202E-09
5.18325E-11 9.82729E-10
5.50215E-11 9.27106E-10
5.83057E-11 8.74889E-10
6.16850E-11 8.26012E-10
6.51595E-11 7.80238E-10
6.87293E-11 7.37349E-10
7.23943E-11 6.97147E-10
7.61544E-11 6.59272E-10
1.18991E-10 3.86371E-10
1.71347E-10 2.40953E-10
2.33223E-10 1.58885E-10
3.04617E-10 1.10398E-10
3.85531E-10 7.98613E-11
4.75965E-10 5.95487E-11
5.75917E-10 4.53997E-11
6.85389E-10 3.50507E-11
8.04380E-10 2.74073E-11
9.32891E-10 2.16732E-11
1.07092E-09 1.73059E-11
1.21847E-09 1.39397E-11
1.37554E-09 1.13155E-11
1.54213E-09 9.25073E-12
1.71823E-09 7.62599E-12
1.90386E-09 6.33653E-12
2.09900E-09 5.30499E-12
2.30367E-09 4.47356E-12
2.51785E-09 3.79775E-12
2.74156E-09 3.24568E-12
2.97478E-09 2.79107E-12
3.21752E-09 2.41422E-12
3.46978E-09 2.09997E-12
3.73156E-09 1.83622E-12
4.00286E-09 1.61333E-12
4.28368E-09 1.42396E-12
4.57402E-09 1.26213E-12
4.87388E-09 1.12307E-12
5.18326E-09 1.00295E-12
5.50215E-09 8.98646E-13
5.83057E-09 8.07660E-13
6.16850E-09 7.28027E-13
6.51596E-09 6.58065E-13
6.87293E-09 5.96379E-13
7.23942E-09 5.41807E-13
7.61544E-09 4.93317E-13
1.18991E-08 2.13872E-13
1.71347E-08 1.06571E-13
2.33223E-08 5.86271E-14
3.04617E-08 3.47934E-14
3.85531E-08 2.19227E-14
4.75965E-08 1.44935E-14
5.75917E-08 9.96516E-15
6.85389E-08 7.07778E-15
8.04380E-08 5.16591E-15
9.32891E-08 3.85891E-15
1.07092E-07 2.94066E-15
1.21847E-07 2.28014E-15
1.37554E-07 1.79511E-15
1.54213E-07 1.43245E-15
1.71823E-07 1.15688E-15
1.90386E-07 9.44459E-16
2.09900E-07 7.78597E-16
2.30367E-07 6.47568E-16
2.51785E-07 5.42954E-16
2.74156E-07 4.58617E-16
2.97478E-07 3.90021E-16
3.21752E-07 3.33771E-16
3.46978E-07 2.87296E-16
3.73156E-07 2.48627E-16
4.00286E-07 2.16244E-16
4.28368E-07 1.88961E-16
4.57402E-07 1.65844E-16
4.87388E-07 1.46153E-16
5.18325E-07 1.29298E-16
5.50215E-07 1.14801E-16
5.83057E-07 1.02279E-16
6.16850E-07 9.14178E-17
6.51596E-07 8.19594E-17
6.87293E-07 7.36922E-17
7.23942E-07 6.64411E-17
7.61543E-07 6.00597E-17
1.18991E-06 2.46497E-17
1.71347E-06 1.19000E-17
2.33223E-06 6.42756E-18
3.04617E-06 3.76943E-18
3.85531E-06 2.35405E-18
4.75964E-06 1.54493E-18
5.75916E-06 1.05547E-18
6.85388E-06 7.45392E-19
8.04378E-06 5.41281E-19
9.32888E-06 4.02500E-19
1.07092E-05 3.05486E-19
1.21846E-05 2.36021E-19
1.37553E-05 1.85229E-19
1.54212E-05 1.47396E-19
1.71822E-05 1.18749E-19
1.90385E-05 9.67257E-20
2.09899E-05 7.96044E-20
2.30365E-05 6.61072E-20
2.51783E-05 5.53491E-20
2.74153E-05 4.66898E-20
2.97475E-05 3.96581E-20
3.21749E-05 3.39019E-20
3.46974E-05 2.91543E-20
3.73152E-05 2.52110E-20
4.00281E-05 2.19136E-20
4.28362E-05 1.91387E-20
4.57395E-05 1.67897E-20
4.87380E-05 1.47901E-20
5.18317E-05 1.30791E-20
5.50205E-05 1.16085E-20
5.83045E-05 1.03388E-20
6.16838E-05 9.23818E-21
6.51582E-05 8.28036E-21
6.87277E-05 7.44373E-21
7.23925E-05 6.71031E-21
7.61524E-05 6.05559E-21
9.21439E-05 4.13479E-21
1.09658E-04 2.91791E-21
1.28695E-04 2.11709E-21
1.49255E-04 1.57256E-21
1.71338E-04 1.19204E-21
1.94942E-04 9.19641E-22
2.20070E-04 7.20538E-22
2.46720E-04 5.72308E-22
2.74892E-04 4.60125E-22
3.04586E-04 3.73987E-22
3.35803E-04 3.06964E-22
3.68542E-04 2.54199E-22
4.02802E-04 2.12206E-22
4.38585E-04 1.78457E-22
4.75889E-04 1.51091E-22
5.14715E-04 1.28714E-22
5.55063E-04 1.10280E-22
5.96931E-04 9.49844E-23
6.40321E-04 8.22114E-23
6.85233E-04 7.14800E-23
7.31665E-04 6.24126E-23
7.79618E-04 5.47110E-23
8.29092E-04 4.81369E-23
8.80086E-04 4.24994E-23
9.32601E-04 3.76440E-23
9.86636E-04 3.34451E-23
1.04219E-03 2.97999E-23
1.09927E-03 2.66238E-23
1.15786E-03 2.38470E-23
1.21797E-03 2.14114E-23
1.27961E-03 1.92684E-23
1.34276E-03 1.73775E-23
1.40743E-03 1.57042E-23
1.47362E-03 1.42197E-23
1.54133E-03 1.28993E-23
1.61056E-03 1.17221E-23
1.68131E-03 1.06701E-23
1.75357E-03 9.72800E-24
1.82735E-03 8.88254E-24
1.90265E-03 8.12229E-24
1.97947E-03 7.43737E-24
2.05780E-03 6.81919E-24
2.13765E-03 6.26026E-24
2.21902E-03 5.75407E-24
2.30190E-03 5.29490E-24
2.38630E-03 4.87774E-24
2.47222E-03 4.49819E-24
2.55965E-03 4.15236E-24
2.64859E-03 3.83683E-24
2.73905E-03 3.54856E-24
2.83103E-03 3.28488E-24
2.92452E-03 3.04338E-24
3.01952E-03 2.82194E-24
3.11604E-03 2.61867E-24
3.21407E-03 2.43187E-24
3.31362E-03 2.26003E-24
3.41468E-03 2.10179E-24
3.51725E-03 1.95594E-24
3.62133E-03 1.82137E-24
3.72692E-03 1.69710E-24
3.83403E-03 1.58225E-24
3.94265E-03 1.47600E-24
4.05278E-03 1.37764E-24
4.16442E-03 1.28651E-24
4.27757E-03 1.20201E-24
4.39223E-03 1.12361E-24
4.50840E-03 1.05080E-24
4.62608E-03 9.83150E-25
4.74527E-03 9.20248E-25
4.86597E-03 8.61723E-25
4.98817E-03 8.07238E-25
5.11188E-03 7.56484E-25
5.23711E-03 7.09177E-25
5.36383E-03 6.65059E-25
5.49207E-03 6.23894E-25
5.62181E-03 5.85462E-25
5.75306E-03 5.49566E-25
5.88581E-03 5.16020E-25
6.02007E-03 4.84658E-25
6.15583E-03 4.55323E-25
6.29310E-03 4.27872E-25
6.43187E-03 4.02173E-25
6.57214E-03 3.78105E-25
6.71392E-03 3.55556E-25
6.85720E-03 3.34422E-25
7.00198E-03 3.14606E-25
7.14827E-03 2.96020E-25
7.29605E-03 2.78581E-25
7.44534E-03 2.62214E-25
7.59612E-03 2.46848E-25
7.97965E-03 2.12392E-25
8.37255E-03 1.82891E-25
8.77480E-03 1.57592E-25
9.18641E-03 1.35865E-25
9.60736E-03 1.17182E-25
1.00376E-02 1.01098E-25
1.04773E-02 8.72379E-26
1.09262E-02 7.52840E-26
1.13844E-02 6.49664E-26
1.18520E-02 5.60557E-26
1.23288E-02 4.83562E-26
1.28150E-02 4.17009E-26
1.33104E-02 3.59467E-26
1.38150E-02 3.09707E-26
1.43290E-02 2.66675E-26
1.48521E-02 2.29463E-26
1.53845E-02 1.97291E-26
1.59262E-02 1.69482E-26
1.64770E-02 1.45454E-26
1.70371E-02 1.24704E-26
1.76063E-02 1.06794E-26
1.81848E-02 9.13456E-27
1.87724E-02 7.80320E-27
1.93692E-02 6.65684E-27
1.99751E-02 5.67076E-27
2.05901E-02 4.82352E-27
2.12143E-02 4.09647E-27
2.18476E-02 3.47342E-27
2.24900E-02 2.94029E-27
2.31415E-02 2.48485E-27
2.38021E-02 2.09645E-27
2.44717E-02 1.76586E-27
2.51504E-02 1.48506E-27
2.58382E-02 1.24706E-27
2.65349E-02 1.04583E-27
2.72407E-02 8.76111E-28
2.79555E-02 7.33364E-28
2.86793E-02 6.13651E-28
2.94120E-02 5.13566E-28
3.01537E-02 4.30168E-28
3.09043E-02 3.60919E-28
3.16639E-02 3.03631E-28
3.24324E-02 2.56423E-28
3.32098E-02 2.17682E-28
3.39961E-02 1.86023E-28
3.47912E-02 1.60265E-28
3.55952E-02 1.39397E-28
3.64081E-02 1.22563E-28
3.72297E-02 1.09036E-28
3.80602E-02 9.82012E-29
3.88995E-02 8.95424E-29
3.97476E-02 8.26263E-29
4.06044E-02 7.70918E-29
4.14700E-02 7.26395E-29
4.23443E-02 6.90225E-29
4.32273E-02 6.60390E-29
4.41190E-02 6.35252E-29
4.50194E-02 6.13497E-29
4.59284E-02 5.94080E-29
4.68461E-02 5.76187E-29
4.87074E-02 5.42625E-29
5.06030E-02 5.09530E-29
5.25328E-02 4.75335E-29
5.44967E-02 4.39580E-29
5.64946E-02 4.02475E-29
5.85262E-02 3.64592E-29
6.05914E-02 3.26658E-29
6.26901E-02 2.89420E-29
6.48222E-02 2.53557E-29
6.69873E-02 2.19639E-29
6.91854E-02 1.88100E-29
7.14163E-02 1.59241E-29
7.36799E-02 1.33235E-29
7.59760E-02 1.10139E-29
7.83043E-02 8.99203E-30
8.06647E-02 7.24677E-30
8.30571E-02 5.76144E-30
8.54812E-02 4.51540E-30
8.79369E-02 3.48557E-30
9.04240E-02 2.64772E-30
9.29422E-02 1.97747E-30
9.54915E-02 1.45117E-30
9.80716E-02 1.04645E-30
1.00682E-01 7.42668E-31
1.03323E-01 5.21162E-31
1.05995E-01 3.65402E-31
1.08696E-01 2.61009E-31
1.11427E-01 1.95703E-31
1.14188E-01 1.59197E-31
1.16978E-01 1.43038E-31
1.19797E-01 1.40436E-31
1.22645E-01 1.46063E-31
1.25522E-01 1.55863E-31
1.28428E-01 1.66859E-31
1.31361E-01 1.76970E-31
1.34323E-01 1.84843E-31
1.37313E-01 1.89706E-31
1.40330E-01 1.91231E-31
1.43375E-01 1.89422E-31
1.46447E-01 1.84516E-31
1.49545E-01 1.76904E-31
1.52671E-01 1.67065E-31
1.55823E-01 1.55515E-31
1.59001E-01 1.42774E-31
1.62205E-01 1.29328E-31
1.65435E-01 1.15619E-31
1.68690E-01 1.02030E-31
1.71970E-01 8.88778E-32
1.75276E-01 7.64144E-32
1.78606E-01 6.48275E-32
1.81961E-01 5.42458E-32
1.85340E-01 4.47451E-32
1.88743E-01 3.63558E-32
1.92169E-01 2.90699E-32
1.95619E-01 2.28489E-32
1.99092E-01 1.76310E-32
2.02589E-01 1.33372E-32
2.06107E-01 9.87797E-33
2.09649E-01 7.15742E-33
2.13212E-01 5.07820E-33
2.16797E-01 3.54462E-33
2.20404E-01 2.46544E-33
2.24032E-01 1.75578E-33
2.27680E-01 1.33852E-33
2.31350E-01 1.14505E-33
2.35040E-01 1.11568E-33
2.38751E-01 1.19962E-33
2.42481E-01 1.35462E-33
2.46231E-01 1.54652E-33
2.50000E-01 1.74851E-33
2.53788E-01 1.94039E-33
2.57595E-01 2.10772E-33
2.61421E-01 2.24098E-33
2.65264E-01 2.33478E-33
2.69126E-01 2.38705E-33
2.73005E-01 2.39832E-33
2.76901E-01 2.37111E-33
2.80814E-01 2.30930E-33
2.84744E-01 2.21772E-33
2.88691E-01 2.10166E-33
2.92653E-01 1.96659E-33
2.96632E-01 1.81787E-33
3.00625E-01 1.66055E-33
3.04634E-01 1.49924E-33
3.08658E-01 1.33800E-33
3.12697E-01 1.18032E-33
3.16749E-01 1.02903E-33
3.20816E-01 8.86387E-34
3.24896E-01 7.54063E-34
3.28990E-01 6.33194E-34
3.33097E-01 5.24440E-34
3.37216E-01 4.28044E-34
3.41348E-01 3.43899E-34
3.45492E-01 2.71607E-34
3.49647E-01 2.10543E-34
3.53814E-01 1.59913E-34
3.57992E-01 1.18804E-34
3.62181E-01 8.62303E-35
3.66381E-01 6.11768E-35
3.70590E-01 4.26281E-35
3.74810E-01 2.95984E-35
3.79039E-01 2.11519E-35
3.83277E-01 1.64192E-35
3.87524E-01 1.46083E-35
3.91780E-01 1.50111E-35
3.96044E-01 1.70070E-35
4.00316E-01 2.00626E-35
4.04596E-01 2.37294E-35
4.08882E-01 2.76395E-35
4.13176E-01 3.14994E-35
4.17476E-01 3.50841E-35
4.21783E-01 3.82288E-35
4.26095E-01 4.08218E-35
4.30413E-01 4.27967E-35
4.34737E-01 4.41249E-35
4.39065E-01 4.48087E-35
4.43398E-01 4.48749E-35
4.47736E-01 4.43687E-35
4.52077E-01 4.33482E-35
4.56422E-01 4.18806E-35
4.60770E-01 4.00373E-35
4.65122E-01 3.78916E-35
4.69476E-01 3.55153E-35
4.73832E-01 3.29768E-35
4.78190E-01 3.03400E-35
4.82550E-01 2.76626E-35
4.86912E-01 2.49954E-35
4.91274E-01 2.23827E-35
4.95637E-01 1.98610E-35
5.00000E-01 1.74602E-35
5.04363E-01 1.52034E-35
5.08726E-01 1.31074E-35
5.13088E-01 1.11834E-35
5.17450E-01 9.43740E-36
5.21810E-01 7.87102E-36
5.26168E-01 6.48215E-36
5.30524E-01 5.26550E-36
5.34878E-01 4.21324E-36
5.39230E-01 3.31561E-36
5.43578E-01 2.56142E-36
5.47923E-01 1.93855E-36
5.52264E-01 1.43428E-36
5.56602E-01 1.03576E-36
5.60935E-01 7.30253E-37
5.65263E-01 5.05380E-37
5.69587E-01 3.49337E-37
5.73905E-01 2.51030E-37
5.78217E-01 2.00198E-37
5.82524E-01 1.87475E-37
5.86824E-01 2.04434E-37
5.91118E-01 2.43600E-37
5.95404E-01 2.98437E-37
5.99684E-01 3.63319E-37
6.03956E-01 4.33492E-37
6.08220E-01 5.05006E-37
6.12476E-01 5.74668E-37
6.16723E-01 6.39964E-37
6.20961E-01 6.98995E-37
6.25190E-01 7.50392E-37
6.29410E-01 7.93266E-37
6.33619E-01 8.27130E-37
6.37819E-01 8.51828E-37
6.42008E-01 8.67485E-37
6.46186E-01 8.74451E-37
6.50353E-01 8.73252E-37
6.54508E-01 8.64540E-37
6.58652E-01 8.49047E-37
6.62784E-01 8.27575E-37
6.66903E-01 8.00942E-37
6.71010E-01 7.69980E-37
6.75104E-01 7.35495E-37
6.79184E-01 6.98257E-37
6.83251E-01 6.59001E-37
6.87303E-01 6.18405E-37
6.91342E-01 5.77087E-37
6.95366E-01 5.35603E-37
6.99375E-01 4.94433E-37
7.03368E-01 4.54013E-37
7.07347E-01 4.14700E-37
7.11309E-01 3.76796E-37
7.15256E-01 3.40542E-37
7.19186E-01 3.06128E-37
7.23099E-01 2.73694E-37
7.26995E-01 2.43335E-37
7.30874E-01 2.15106E-37
7.34736E-01 1.89027E-37
7.38579E-01 1.65087E-37
7.42405E-01 1.43248E-37
7.46212E-01 1.23452E-37
7.50000E-01 1.05623E-37
7.53769E-01 8.96705E-38
7.57519E-01 7.54932E-38
7.61249E-01 6.29813E-38
7.64960E-01 5.20223E-38
7.68650E-01 4.24983E-38
7.72320E-01 3.42950E-38
7.75968E-01 2.72950E-38
7.79596E-01 2.13859E-38
7.83203E-01 1.64593E-38
7.86788E-01 1.24101E-38
7.90351E-01 9.13913E-39
7.93893E-01 6.55404E-39
7.97411E-01 4.56762E-39
8.00908E-01 3.09919E-39
8.04381E-01 1.00000E-45
8.07831E-01 1.00000E-45
8.11257E-01 1.00000E-45
8.14660E-01 1.00000E-45
8.18039E-01 1.00000E-45
8.21394E-01 1.00000E-45
8.24724E-01 1.00000E-45
8.28030E-01 1.00000E-45
8.31310E-01 1.00000E-45
8.34565E-01 1.00000E-45
8.37795E-01 1.00000E-45
8.40999E-01 1.00000E-45
8.44177E-01 1.00000E-45
8.47329E-01 1.00000E-45
8.50455E-01 1.00000E-45
8.53553E-01 1.00000E-45
8.56625E-01 1.00000E-45
8.59670E-01 1.00000E-45
8.62687E-01 1.00000E-45
8.65677E-01 1.00000E-45
8.68639E-01 1.00000E-45
8.71572E-01 1.00000E-45
8.74478E-01 1.00000E-45
8.77355E-01 1.00000E-45
8.80203E-01 1.00000E-45
8.83022E-01 1.00000E-45
8.85812E-01 1.00000E-45
8.88573E-01 1.00000E-45
8.91304E-01 1.00000E-45
8.94005E-01 1.00000E-45
8.96677E-01 1.00000E-45
8.99318E-01 1.00000E-45
9.01928E-01 1.00000E-45
9.04508E-01 1.00000E-45
9.07058E-01 1.00000E-45
9.09576E-01 1.00000E-45
9.12063E-01 1.00000E-45
9.14519E-01 1.00000E-45
9.16943E-01 1.00000E-45
9.19335E-01 1.00000E-45
9.21696E-01 1.00000E-45
9.24024E-01 1.00000E-45
9.26320E-01 1.00000E-45
9.28584E-01 1.00000E-45
9.30815E-01 1.00000E-45
9.33013E-01 1.00000E-45
9.35178E-01 1.00000E-45
9.37310E-01 1.00000E-45
9.39409E-01 1.00000E-45
9.41474E-01 1.00000E-45
9.43505E-01 1.00000E-45
9.45503E-01 1.00000E-45
9.47467E-01 1.00000E-45
9.49397E-01 1.00000E-45
9.51293E-01 1.00000E-45
9.53154E-01 1.00000E-45
9.54981E-01 1.00000E-45
9.56773E-01 1.00000E-45
9.58530E-01 1.00000E-45
9.60252E-01 1.00000E-45
9.61940E-01 1.00000E-45
9.63592E-01 1.00000E-45
9.65209E-01 1.00000E-45
9.66790E-01 1.00000E-45
9.68336E-01 1.00000E-45
9.69846E-01 1.00000E-45
9.71321E-01 1.00000E-45
9.72759E-01 1.00000E-45
9.74162E-01 1.00000E-45
9.75528E-01 1.00000E-45
9.76858E-01 1.00000E-45
9.78152E-01 1.00000E-45
9.79410E-01 1.00000E-45
9.80631E-01 1.00000E-45
9.81815E-01 1.00000E-45
9.82963E-01 1.00000E-45
9.84074E-01 1.00000E-45
9.85148E-01 1.00000E-45
9.86185E-01 1.00000E-45
9.87185E-01 1.00000E-45
9.88148E-01 1.00000E-45
9.89074E-01 1.00000E-45
9.89962E-01 1.00000E-45
9.90814E-01 1.00000E-45
9.91627E-01 1.00000E-45
9.92404E-01 1.00000E-45
9.93143E-01 1.00000E-45
9.93844E-01 1.00000E-45
9.94508E-01 1.00000E-45
9.95134E-01 1.00000E-45
9.95722E-01 1.00000E-45
9.96273E-01 1.00000E-45
9.96786E-01 1.00000E-45
9.97261E-01 1.00000E-45
9.97698E-01 1.00000E-45
9.98097E-01 1.00000E-45
9.98459E-01 1.00000E-45
9.98782E-01 1.00000E-45
9.99067E-01 1.00000E-45
9.99315E-01 1.00000E-45
9.99524E-01 1.00000E-45
9.99695E-01 1.00000E-45
9.99829E-01 1.00000E-45
9.99924E-01 1.00000E-45
9.99981E-01 1.00000E-45
1.00000E+00 1.00000E-45
