 #
 # Subroutine ELSEPA. Elastic scattering of electrons and positrons
 #                    by neutral atoms and positive ions
 #
 # Projectile: electron
 # Kinetic energy = 6.00000E+06 eV = 2.20496E+05 a.u.
 #
 # WARNING: High-energy factorization with free-atom DF screening.
 #          Absorption, polarization and exchange corrections are
 #          switched off.
 #          Phase shifts are calculated for the bare nucleus.
 #          Scattering amplitudes are not evaluated.
 #
 # Element: Rb,  Z =  37,  atomic weight = 8.54678E+01 g/mol
 #
 # Nuclear model: Fermi distribution
 #                Average radius = 4.71322E-13 cm
 #                Skin thickness = 5.46000E-14 cm
 #
 # Number of electrons = 37
 #
 # Total elastic cross section = 3.35076E-18 cm**2 = 1.19658E-01 a0**2
 # 1st transport cross section = 5.24742E-23 cm**2 = 1.87389E-06 a0**2
 # 2nd transport cross section = 1.48220E-22 cm**2 = 5.29304E-06 a0**2
 #
 #
 # Differential cross section:                       MU=(1-COS(THETA))/2
 #
 #  THETA        MU          DCS          DCS        Sherman      error
 #  (deg)                 (cm**2/sr)   (a0**2/sr)    function
 #----------------------------------------------------------------------
0.00000E+00 2.21980E-12
7.61557E-13 2.21973E-12
1.18994E-12 2.21970E-12
1.71346E-12 2.21965E-12
2.33225E-12 2.21960E-12
3.04617E-12 2.21954E-12
3.85530E-12 2.21947E-12
4.75964E-12 2.21939E-12
5.75917E-12 2.21930E-12
6.85391E-12 2.21921E-12
8.04379E-12 2.21910E-12
9.32893E-12 2.21899E-12
1.07092E-11 2.21887E-12
1.21847E-11 2.21875E-12
1.37554E-11 2.21861E-12
1.54213E-11 2.21847E-12
1.71823E-11 2.21832E-12
1.90386E-11 2.21815E-12
2.09900E-11 2.21799E-12
2.30367E-11 2.21781E-12
2.51785E-11 2.21763E-12
2.74156E-11 2.21743E-12
2.97478E-11 2.21723E-12
3.21752E-11 2.21702E-12
3.46979E-11 2.21681E-12
3.73157E-11 2.21658E-12
4.00286E-11 2.21635E-12
4.28368E-11 2.21610E-12
4.57402E-11 2.21585E-12
4.87388E-11 2.21560E-12
5.18325E-11 2.21533E-12
5.50215E-11 2.21506E-12
5.83057E-11 2.21477E-12
6.16850E-11 2.21448E-12
6.51595E-11 2.21418E-12
6.87293E-11 2.21388E-12
7.23943E-11 2.21356E-12
7.61544E-11 2.21324E-12
1.18991E-10 2.20956E-12
1.71347E-10 2.20509E-12
2.33223E-10 2.19982E-12
3.04617E-10 2.19376E-12
3.85531E-10 2.18693E-12
4.75965E-10 2.17934E-12
5.75917E-10 2.17100E-12
6.85389E-10 2.16193E-12
8.04380E-10 2.15215E-12
9.32891E-10 2.14167E-12
1.07092E-09 2.13050E-12
1.21847E-09 2.11868E-12
1.37554E-09 2.10621E-12
1.54213E-09 2.09313E-12
1.71823E-09 2.07945E-12
1.90386E-09 2.06519E-12
2.09900E-09 2.05038E-12
2.30367E-09 2.03504E-12
2.51785E-09 2.01921E-12
2.74156E-09 2.00290E-12
2.97478E-09 1.98613E-12
3.21752E-09 1.96893E-12
3.46978E-09 1.95132E-12
3.73156E-09 1.93335E-12
4.00286E-09 1.91502E-12
4.28368E-09 1.89637E-12
4.57402E-09 1.87742E-12
4.87388E-09 1.85818E-12
5.18326E-09 1.83870E-12
5.50215E-09 1.81910E-12
5.83057E-09 1.79968E-12
6.16850E-09 1.77996E-12
6.51596E-09 1.75996E-12
6.87293E-09 1.73968E-12
7.23942E-09 1.71915E-12
7.61544E-09 1.69839E-12
1.18991E-08 1.49178E-12
1.71347E-08 1.29605E-12
2.33223E-08 1.12115E-12
3.04617E-08 9.69981E-13
3.85531E-08 8.42459E-13
4.75965E-08 7.36274E-13
5.75917E-08 6.48261E-13
6.85389E-08 5.75485E-13
8.04380E-08 5.14263E-13
9.32891E-08 4.62253E-13
1.07092E-07 4.17583E-13
1.21847E-07 3.78794E-13
1.37554E-07 3.44727E-13
1.54213E-07 3.14511E-13
1.71823E-07 2.87533E-13
1.90386E-07 2.63310E-13
2.09900E-07 2.41464E-13
2.30367E-07 2.21682E-13
2.51785E-07 2.03665E-13
2.74156E-07 1.87294E-13
2.97478E-07 1.72399E-13
3.21752E-07 1.58835E-13
3.46978E-07 1.46474E-13
3.73156E-07 1.35174E-13
4.00286E-07 1.24858E-13
4.28368E-07 1.15450E-13
4.57402E-07 1.06866E-13
4.87388E-07 9.90305E-14
5.18325E-07 9.18704E-14
5.50215E-07 8.52459E-14
5.83057E-07 7.89445E-14
6.16850E-07 7.32957E-14
6.51596E-07 6.82188E-14
6.87293E-07 6.36446E-14
7.23942E-07 5.95131E-14
7.61543E-07 5.57728E-14
1.18991E-06 3.07853E-14
1.71347E-06 1.87018E-14
2.33223E-06 1.21477E-14
3.04617E-06 8.25250E-15
3.85531E-06 5.77685E-15
4.75964E-06 4.13452E-15
5.75916E-06 3.01389E-15
6.85388E-06 2.23092E-15
8.04378E-06 1.67987E-15
9.32888E-06 1.28575E-15
1.07092E-05 9.99495E-16
1.21846E-05 7.88416E-16
1.37553E-05 6.30431E-16
1.54212E-05 5.10327E-16
1.71822E-05 4.17959E-16
1.90385E-05 3.45923E-16
2.09899E-05 2.89149E-16
2.30365E-05 2.43752E-16
2.51783E-05 2.07019E-16
2.74153E-05 1.77023E-16
2.97475E-05 1.52317E-16
3.21749E-05 1.31810E-16
3.46974E-05 1.14669E-16
3.73152E-05 1.00236E-16
4.00281E-05 8.80086E-17
4.28362E-05 7.75908E-17
4.57395E-05 6.86639E-17
4.87380E-05 6.09753E-17
5.18317E-05 5.43228E-17
5.50205E-05 4.85343E-17
5.83045E-05 4.34704E-17
6.16838E-05 3.90674E-17
6.51582E-05 3.52242E-17
6.87277E-05 3.18105E-17
7.23925E-05 2.88004E-17
7.61524E-05 2.61463E-17
9.21439E-05 1.81185E-17
1.09658E-04 1.29285E-17
1.28695E-04 9.46615E-18
1.49255E-04 7.08732E-18
1.71338E-04 5.41113E-18
1.94942E-04 4.20293E-18
2.20070E-04 3.31433E-18
2.46720E-04 2.64920E-18
2.74892E-04 2.14328E-18
3.04586E-04 1.75296E-18
3.35803E-04 1.44782E-18
3.68542E-04 1.20648E-18
4.02802E-04 1.01350E-18
4.38585E-04 8.57704E-19
4.75889E-04 7.30805E-19
5.14715E-04 6.26580E-19
5.55063E-04 5.40331E-19
5.96931E-04 4.68445E-19
6.40321E-04 4.08143E-19
6.85233E-04 3.57257E-19
7.31665E-04 3.14071E-19
7.79618E-04 2.77229E-19
8.29092E-04 2.45639E-19
8.80086E-04 2.18427E-19
9.32601E-04 1.94886E-19
9.86636E-04 1.74437E-19
1.04219E-03 1.56604E-19
1.09927E-03 1.40996E-19
1.15786E-03 1.27286E-19
1.21797E-03 1.15205E-19
1.27961E-03 1.04526E-19
1.34276E-03 9.50573E-20
1.40743E-03 8.66388E-20
1.47362E-03 7.91332E-20
1.54133E-03 7.24240E-20
1.61056E-03 6.64122E-20
1.68131E-03 6.10126E-20
1.75357E-03 5.61517E-20
1.82735E-03 5.17663E-20
1.90265E-03 4.78015E-20
1.97947E-03 4.42098E-20
2.05780E-03 4.09499E-20
2.13765E-03 3.79858E-20
2.21902E-03 3.52856E-20
2.30190E-03 3.28217E-20
2.38630E-03 3.05696E-20
2.47222E-03 2.85079E-20
2.55965E-03 2.66176E-20
2.64859E-03 2.48819E-20
2.73905E-03 2.32857E-20
2.83103E-03 2.18158E-20
2.92452E-03 2.04605E-20
3.01952E-03 1.92091E-20
3.11604E-03 1.80523E-20
3.21407E-03 1.69815E-20
3.31362E-03 1.59892E-20
3.41468E-03 1.50686E-20
3.51725E-03 1.42135E-20
3.62133E-03 1.34185E-20
3.72692E-03 1.26784E-20
3.83403E-03 1.19889E-20
3.94265E-03 1.13458E-20
4.05278E-03 1.07454E-20
4.16442E-03 1.01844E-20
4.27757E-03 9.65964E-21
4.39223E-03 9.16840E-21
4.50840E-03 8.70813E-21
4.62608E-03 8.27650E-21
4.74527E-03 7.87141E-21
4.86597E-03 7.49091E-21
4.98817E-03 7.13323E-21
5.11188E-03 6.79674E-21
5.23711E-03 6.47995E-21
5.36383E-03 6.18150E-21
5.49207E-03 5.90011E-21
5.62181E-03 5.63463E-21
5.75306E-03 5.38399E-21
5.88581E-03 5.14720E-21
6.02007E-03 4.92336E-21
6.15583E-03 4.71161E-21
6.29310E-03 4.51120E-21
6.43187E-03 4.32137E-21
6.57214E-03 4.14149E-21
6.71392E-03 3.97091E-21
6.85720E-03 3.80908E-21
7.00198E-03 3.65545E-21
7.14827E-03 3.50953E-21
7.29605E-03 3.37087E-21
7.44534E-03 3.23902E-21
7.59612E-03 3.11360E-21
7.97965E-03 2.82574E-21
8.37255E-03 2.57058E-21
8.77480E-03 2.34375E-21
9.18641E-03 2.14154E-21
9.60736E-03 1.96080E-21
1.00376E-02 1.79885E-21
1.04773E-02 1.65338E-21
1.09262E-02 1.52242E-21
1.13844E-02 1.40426E-21
1.18520E-02 1.29742E-21
1.23288E-02 1.20061E-21
1.28150E-02 1.11273E-21
1.33104E-02 1.03280E-21
1.38150E-02 9.59976E-22
1.43290E-02 8.93501E-22
1.48521E-02 8.32724E-22
1.53845E-02 7.77066E-22
1.59262E-02 7.26016E-22
1.64770E-02 6.79122E-22
1.70371E-02 6.35983E-22
1.76063E-02 5.96242E-22
1.81848E-02 5.59581E-22
1.87724E-02 5.25718E-22
1.93692E-02 4.94398E-22
1.99751E-02 4.65395E-22
2.05901E-02 4.38505E-22
2.12143E-02 4.13546E-22
2.18476E-02 3.90352E-22
2.24900E-02 3.68775E-22
2.31415E-02 3.48681E-22
2.38021E-02 3.29949E-22
2.44717E-02 3.12468E-22
2.51504E-02 2.96140E-22
2.58382E-02 2.80874E-22
2.65349E-02 2.66588E-22
2.72407E-02 2.53206E-22
2.79555E-02 2.40661E-22
2.86793E-02 2.28890E-22
2.94120E-02 2.17836E-22
3.01537E-02 2.07448E-22
3.09043E-02 1.97677E-22
3.16639E-02 1.88479E-22
3.24324E-02 1.79815E-22
3.32098E-02 1.71648E-22
3.39961E-02 1.63943E-22
3.47912E-02 1.56670E-22
3.55952E-02 1.49799E-22
3.64081E-02 1.43304E-22
3.72297E-02 1.37161E-22
3.80602E-02 1.31346E-22
3.88995E-02 1.25838E-22
3.97476E-02 1.20619E-22
4.06044E-02 1.15671E-22
4.14700E-02 1.10975E-22
4.23443E-02 1.06518E-22
4.32273E-02 1.02284E-22
4.41190E-02 9.82603E-23
4.50194E-02 9.44343E-23
4.59284E-02 9.07943E-23
4.68461E-02 8.73295E-23
4.87074E-02 8.08860E-23
5.06030E-02 7.50308E-23
5.25328E-02 6.97003E-23
5.44967E-02 6.48386E-23
5.64946E-02 6.03968E-23
5.85262E-02 5.63319E-23
6.05914E-02 5.26058E-23
6.26901E-02 4.91852E-23
6.48222E-02 4.60401E-23
6.69873E-02 4.31443E-23
6.91854E-02 4.04742E-23
7.14163E-02 3.80089E-23
7.36799E-02 3.57297E-23
7.59760E-02 3.36199E-23
7.83043E-02 3.16646E-23
8.06647E-02 2.98501E-23
8.30571E-02 2.81646E-23
8.54812E-02 2.65970E-23
8.79369E-02 2.51375E-23
9.04240E-02 2.37773E-23
9.29422E-02 2.25083E-23
9.54915E-02 2.13231E-23
9.80716E-02 2.02153E-23
1.00682E-01 1.91787E-23
1.03323E-01 1.82080E-23
1.05995E-01 1.72981E-23
1.08696E-01 1.64445E-23
1.11427E-01 1.56430E-23
1.14188E-01 1.48898E-23
1.16978E-01 1.41815E-23
1.19797E-01 1.35149E-23
1.22645E-01 1.28870E-23
1.25522E-01 1.22952E-23
1.28428E-01 1.17369E-23
1.31361E-01 1.12099E-23
1.34323E-01 1.07121E-23
1.37313E-01 1.02417E-23
1.40330E-01 9.79671E-24
1.43375E-01 9.37557E-24
1.46447E-01 8.97674E-24
1.49545E-01 8.59881E-24
1.52671E-01 8.24049E-24
1.55823E-01 7.90055E-24
1.59001E-01 7.57787E-24
1.62205E-01 7.27140E-24
1.65435E-01 6.98015E-24
1.68690E-01 6.70324E-24
1.71970E-01 6.43983E-24
1.75276E-01 6.18912E-24
1.78606E-01 5.95039E-24
1.81961E-01 5.72294E-24
1.85340E-01 5.50614E-24
1.88743E-01 5.29939E-24
1.92169E-01 5.10215E-24
1.95619E-01 4.91390E-24
1.99092E-01 4.73413E-24
2.02589E-01 4.56239E-24
2.06107E-01 4.39825E-24
2.09649E-01 4.24131E-24
2.13212E-01 4.09121E-24
2.16797E-01 3.94758E-24
2.20404E-01 3.81008E-24
2.24032E-01 3.67840E-24
2.27680E-01 3.55224E-24
2.31350E-01 3.43135E-24
2.35040E-01 3.31546E-24
2.38751E-01 3.20431E-24
2.42481E-01 3.09766E-24
2.46231E-01 2.99530E-24
2.50000E-01 2.89705E-24
2.53788E-01 2.80270E-24
2.57595E-01 2.71205E-24
2.61421E-01 2.62492E-24
2.65264E-01 2.54117E-24
2.69126E-01 2.46064E-24
2.73005E-01 2.38319E-24
2.76901E-01 2.30866E-24
2.80814E-01 2.23692E-24
2.84744E-01 2.16785E-24
2.88691E-01 2.10134E-24
2.92653E-01 2.03728E-24
2.96632E-01 1.97555E-24
3.00625E-01 1.91605E-24
3.04634E-01 1.85868E-24
3.08658E-01 1.80336E-24
3.12697E-01 1.75001E-24
3.16749E-01 1.69852E-24
3.20816E-01 1.64884E-24
3.24896E-01 1.60088E-24
3.28990E-01 1.55457E-24
3.33097E-01 1.50984E-24
3.37216E-01 1.46664E-24
3.41348E-01 1.42489E-24
3.45492E-01 1.38454E-24
3.49647E-01 1.34554E-24
3.53814E-01 1.30783E-24
3.57992E-01 1.27136E-24
3.62181E-01 1.23608E-24
3.66381E-01 1.20194E-24
3.70590E-01 1.16891E-24
3.74810E-01 1.13693E-24
3.79039E-01 1.10598E-24
3.83277E-01 1.07601E-24
3.87524E-01 1.04697E-24
3.91780E-01 1.01885E-24
3.96044E-01 9.91606E-25
4.00316E-01 9.65201E-25
4.04596E-01 9.39608E-25
4.08882E-01 9.14798E-25
4.13176E-01 8.90741E-25
4.17476E-01 8.67411E-25
4.21783E-01 8.44782E-25
4.26095E-01 8.22828E-25
4.30413E-01 8.01527E-25
4.34737E-01 7.80855E-25
4.39065E-01 7.60790E-25
4.43398E-01 7.41311E-25
4.47736E-01 7.22399E-25
4.52077E-01 7.04032E-25
4.56422E-01 6.86194E-25
4.60770E-01 6.68866E-25
4.65122E-01 6.52030E-25
4.69476E-01 6.35671E-25
4.73832E-01 6.19772E-25
4.78190E-01 6.04319E-25
4.82550E-01 5.89296E-25
4.86912E-01 5.74689E-25
4.91274E-01 5.60485E-25
4.95637E-01 5.46671E-25
5.00000E-01 5.33234E-25
5.04363E-01 5.20163E-25
5.08726E-01 5.07444E-25
5.13088E-01 4.95068E-25
5.17450E-01 4.83024E-25
5.21810E-01 4.71300E-25
5.26168E-01 4.59888E-25
5.30524E-01 4.48777E-25
5.34878E-01 4.37958E-25
5.39230E-01 4.27422E-25
5.43578E-01 4.17160E-25
5.47923E-01 4.07165E-25
5.52264E-01 3.97427E-25
5.56602E-01 3.87940E-25
5.60935E-01 3.78695E-25
5.65263E-01 3.69686E-25
5.69587E-01 3.60906E-25
5.73905E-01 3.52347E-25
5.78217E-01 3.44004E-25
5.82524E-01 3.35869E-25
5.86824E-01 3.27937E-25
5.91118E-01 3.20203E-25
5.95404E-01 3.12659E-25
5.99684E-01 3.05302E-25
6.03956E-01 2.98125E-25
6.08220E-01 2.91123E-25
6.12476E-01 2.84292E-25
6.16723E-01 2.77627E-25
6.20961E-01 2.71123E-25
6.25190E-01 2.64775E-25
6.29410E-01 2.58579E-25
6.33619E-01 2.52532E-25
6.37819E-01 2.46628E-25
6.42008E-01 2.40864E-25
6.46186E-01 2.35237E-25
6.50353E-01 2.29742E-25
6.54508E-01 2.24375E-25
6.58652E-01 2.19135E-25
6.62784E-01 2.14016E-25
6.66903E-01 2.09017E-25
6.71010E-01 2.04133E-25
6.75104E-01 1.99361E-25
6.79184E-01 1.94700E-25
6.83251E-01 1.90145E-25
6.87303E-01 1.85694E-25
6.91342E-01 1.81345E-25
6.95366E-01 1.77094E-25
6.99375E-01 1.72940E-25
7.03368E-01 1.68879E-25
7.07347E-01 1.64910E-25
7.11309E-01 1.61030E-25
7.15256E-01 1.57237E-25
7.19186E-01 1.53528E-25
7.23099E-01 1.49902E-25
7.26995E-01 1.46357E-25
7.30874E-01 1.42889E-25
7.34736E-01 1.39499E-25
7.38579E-01 1.36183E-25
7.42405E-01 1.32940E-25
7.46212E-01 1.29768E-25
7.50000E-01 1.26666E-25
7.53769E-01 1.23631E-25
7.57519E-01 1.20662E-25
7.61249E-01 1.17758E-25
7.64960E-01 1.14917E-25
7.68650E-01 1.12137E-25
7.72320E-01 1.09417E-25
7.75968E-01 1.06756E-25
7.79596E-01 1.04152E-25
7.83203E-01 1.01604E-25
7.86788E-01 9.91110E-26
7.90351E-01 9.66711E-26
7.93893E-01 9.42834E-26
7.97411E-01 9.19466E-26
8.00908E-01 8.96597E-26
8.04381E-01 8.74215E-26
8.07831E-01 8.52309E-26
8.11257E-01 8.30869E-26
8.14660E-01 8.09883E-26
8.18039E-01 7.89343E-26
8.21394E-01 7.69238E-26
8.24724E-01 7.49558E-26
8.28030E-01 7.30295E-26
8.31310E-01 7.11440E-26
8.34565E-01 6.92983E-26
8.37795E-01 6.74916E-26
8.40999E-01 6.57231E-26
8.44177E-01 6.39920E-26
8.47329E-01 6.22974E-26
8.50455E-01 6.06387E-26
8.53553E-01 5.90150E-26
8.56625E-01 5.74257E-26
8.59670E-01 5.58700E-26
8.62687E-01 5.43473E-26
8.65677E-01 5.28568E-26
8.68639E-01 5.13979E-26
8.71572E-01 4.99701E-26
8.74478E-01 4.85725E-26
8.77355E-01 4.72048E-26
8.80203E-01 4.58662E-26
8.83022E-01 4.45562E-26
8.85812E-01 4.32742E-26
8.88573E-01 4.20198E-26
8.91304E-01 4.07923E-26
8.94005E-01 3.95912E-26
8.96677E-01 3.84161E-26
8.99318E-01 3.72665E-26
9.01928E-01 3.61419E-26
9.04508E-01 3.50417E-26
9.07058E-01 3.39657E-26
9.09576E-01 3.29133E-26
9.12063E-01 3.18841E-26
9.14519E-01 3.08777E-26
9.16943E-01 2.98936E-26
9.19335E-01 2.89316E-26
9.21696E-01 2.79911E-26
9.24024E-01 2.70719E-26
9.26320E-01 2.61736E-26
9.28584E-01 2.52957E-26
9.30815E-01 2.44380E-26
9.33013E-01 2.36002E-26
9.35178E-01 2.27818E-26
9.37310E-01 2.19826E-26
9.39409E-01 2.12023E-26
9.41474E-01 2.04406E-26
9.43505E-01 1.96972E-26
9.45503E-01 1.89717E-26
9.47467E-01 1.82639E-26
9.49397E-01 1.75736E-26
9.51293E-01 1.69005E-26
9.53154E-01 1.62443E-26
9.54981E-01 1.56048E-26
9.56773E-01 1.49818E-26
9.58530E-01 1.43749E-26
9.60252E-01 1.37840E-26
9.61940E-01 1.32089E-26
9.63592E-01 1.26493E-26
9.65209E-01 1.21051E-26
9.66790E-01 1.15760E-26
9.68336E-01 1.10618E-26
9.69846E-01 1.05624E-26
9.71321E-01 1.00776E-26
9.72759E-01 9.60718E-27
9.74162E-01 9.15097E-27
9.75528E-01 8.70882E-27
9.76858E-01 8.28056E-27
9.78152E-01 7.86604E-27
9.79410E-01 7.46512E-27
9.80631E-01 7.07764E-27
9.81815E-01 6.70346E-27
9.82963E-01 6.34246E-27
9.84074E-01 5.99451E-27
9.85148E-01 5.65947E-27
9.86185E-01 5.33724E-27
9.87185E-01 5.02769E-27
9.88148E-01 4.73071E-27
9.89074E-01 4.44620E-27
9.89962E-01 4.17407E-27
9.90814E-01 3.91420E-27
9.91627E-01 3.66652E-27
9.92404E-01 3.43093E-27
9.93143E-01 3.20734E-27
9.93844E-01 2.99569E-27
9.94508E-01 2.79590E-27
9.95134E-01 2.60790E-27
9.95722E-01 2.43161E-27
9.96273E-01 2.26699E-27
9.96786E-01 2.11396E-27
9.97261E-01 1.97249E-27
9.97698E-01 1.84251E-27
9.98097E-01 1.72399E-27
9.98459E-01 1.61688E-27
9.98782E-01 1.52114E-27
9.99067E-01 1.43674E-27
9.99315E-01 1.36366E-27
9.99524E-01 1.30186E-27
9.99695E-01 1.25133E-27
9.99829E-01 1.21205E-27
9.99924E-01 1.18400E-27
9.99981E-01 1.16717E-27
1.00000E+00 1.16156E-27
