 #
 # Subroutine ELSEPA. Elastic scattering of electrons and positrons
 #                    by neutral atoms and positive ions
 #
 # Projectile: positron
 # Kinetic energy = 2.00000E+08 eV = 7.34987E+06 a.u.
 #
 # WARNING: High-energy factorization with free-atom DF screening.
 #          Absorption, polarization and exchange corrections are
 #          switched off.
 #          Phase shifts are calculated for the bare nucleus.
 #          Scattering amplitudes are not evaluated.
 #
 # Element: Ho,  Z =  67,  atomic weight = 1.64930E+02 g/mol
 #
 # Nuclear model: Fermi distribution
 #                Average radius = 5.86792E-13 cm
 #                Skin thickness = 5.46000E-14 cm
 #
 # Number of electrons = 67
 #
 # Total elastic cross section = 7.08858E-18 cm**2 = 2.53138E-01 a0**2
 # 1st transport cross section = 2.10908E-25 cm**2 = 7.53165E-09 a0**2
 # 2nd transport cross section = 6.31156E-25 cm**2 = 2.25390E-08 a0**2
 #
 #
 # Differential cross section:                       MU=(1-COS(THETA))/2
 #
 #  THETA        MU          DCS          DCS        Sherman      error
 #  (deg)                 (cm**2/sr)   (a0**2/sr)    function
 #----------------------------------------------------------------------
0.00000E+00 3.02476E-09
7.61557E-13 2.96973E-09
1.18994E-12 2.93954E-09
1.71346E-12 2.90333E-09
2.33225E-12 2.86151E-09
3.04617E-12 2.81451E-09
3.85530E-12 2.76281E-09
4.75964E-12 2.70692E-09
5.75917E-12 2.64739E-09
6.85391E-12 2.58502E-09
8.04379E-12 2.51969E-09
9.32893E-12 2.45225E-09
1.07092E-11 2.38364E-09
1.21847E-11 2.31345E-09
1.37554E-11 2.24298E-09
1.54213E-11 2.17240E-09
1.71823E-11 2.10141E-09
1.90386E-11 2.03180E-09
2.09900E-11 1.96268E-09
2.30367E-11 1.89424E-09
2.51785E-11 1.82812E-09
2.74156E-11 1.76289E-09
2.97478E-11 1.69941E-09
3.21752E-11 1.63826E-09
3.46979E-11 1.57841E-09
3.73157E-11 1.52106E-09
4.00286E-11 1.46577E-09
4.28368E-11 1.41199E-09
4.57402E-11 1.36113E-09
4.87388E-11 1.31196E-09
5.18325E-11 1.26457E-09
5.50215E-11 1.21983E-09
5.83057E-11 1.17660E-09
6.16850E-11 1.13535E-09
6.51595E-11 1.09618E-09
6.87293E-11 1.05844E-09
7.23943E-11 1.02271E-09
7.61544E-11 9.88583E-10
1.18991E-10 7.21706E-10
1.71347E-10 5.49574E-10
2.33223E-10 4.31227E-10
3.04617E-10 3.44903E-10
3.85531E-10 2.79207E-10
4.75965E-10 2.27900E-10
5.75917E-10 1.87153E-10
6.85389E-10 1.52925E-10
8.04380E-10 1.27785E-10
9.32891E-10 1.07765E-10
1.07092E-09 9.04428E-11
1.21847E-09 7.71406E-11
1.37554E-09 6.59057E-11
1.54213E-09 5.65294E-11
1.71823E-09 4.90712E-11
1.90386E-09 4.24862E-11
2.09900E-09 3.70613E-11
2.30367E-09 3.25826E-11
2.51785E-09 2.85640E-11
2.74156E-09 2.52364E-11
2.97478E-09 2.23725E-11
3.21752E-09 1.98378E-11
3.46978E-09 1.76993E-11
3.73156E-09 1.58001E-11
4.00286E-09 1.41378E-11
4.28368E-09 1.27140E-11
4.57402E-09 1.14212E-11
4.87388E-09 1.02983E-11
5.18326E-09 9.31694E-12
5.50215E-09 8.42726E-12
5.83057E-09 7.65051E-12
6.16850E-09 6.95884E-12
6.51596E-09 6.33720E-12
6.87293E-09 5.78900E-12
7.23942E-09 5.29429E-12
7.61544E-09 4.85139E-12
1.18991E-08 2.23297E-12
1.71347E-08 1.18182E-12
2.33223E-08 6.88725E-13
3.04617E-08 4.28676E-13
3.85531E-08 2.80041E-13
4.75965E-08 1.90327E-13
5.75917E-08 1.33626E-13
6.85389E-08 9.65171E-14
8.04380E-08 7.14230E-14
9.32891E-08 5.39849E-14
1.07092E-07 4.15690E-14
1.21847E-07 3.25321E-14
1.37554E-07 2.58272E-14
1.54213E-07 2.07672E-14
1.71823E-07 1.68896E-14
1.90386E-07 1.38774E-14
2.09900E-07 1.15083E-14
2.30367E-07 9.62407E-15
2.51785E-07 8.11026E-15
2.74156E-07 6.88219E-15
2.97478E-07 5.87787E-15
3.21752E-07 5.05013E-15
3.46978E-07 4.36295E-15
3.73156E-07 3.78862E-15
4.00286E-07 3.30562E-15
4.28368E-07 2.89707E-15
4.57402E-07 2.54962E-15
4.87388E-07 2.25262E-15
5.18325E-07 1.99756E-15
5.50215E-07 1.77753E-15
5.83057E-07 1.58691E-15
6.16850E-07 1.42110E-15
6.51596E-07 1.27636E-15
6.87293E-07 1.14956E-15
7.23942E-07 1.03810E-15
7.61543E-07 9.39808E-16
1.18991E-06 3.90205E-16
1.71347E-06 1.89859E-16
2.33223E-06 1.03148E-16
3.04617E-06 6.07641E-17
3.85531E-06 3.80815E-17
4.75964E-06 2.50613E-17
5.75916E-06 1.71585E-17
6.85388E-06 1.21383E-17
8.04378E-06 8.82629E-18
9.32888E-06 6.57018E-18
1.07092E-05 4.99068E-18
1.21846E-05 3.85829E-18
1.37553E-05 3.02945E-18
1.54212E-05 2.41157E-18
1.71822E-05 1.94340E-18
1.90385E-05 1.58271E-18
2.09899E-05 1.30319E-18
2.30365E-05 1.08255E-18
2.51783E-05 9.06449E-19
2.74153E-05 7.64545E-19
2.97475E-05 6.49250E-19
3.21749E-05 5.54870E-19
3.46974E-05 4.77063E-19
3.73152E-05 4.12470E-19
4.00281E-05 3.58482E-19
4.28362E-05 3.13059E-19
4.57395E-05 2.74603E-19
4.87380E-05 2.41858E-19
5.18317E-05 2.13834E-19
5.50205E-05 1.89740E-19
5.83045E-05 1.68939E-19
6.16838E-05 1.50911E-19
6.51582E-05 1.35228E-19
6.87277E-05 1.21534E-19
7.23925E-05 1.09532E-19
7.61524E-05 9.91476E-20
9.21439E-05 6.77093E-20
1.09658E-04 4.77950E-20
1.28695E-04 3.46940E-20
1.49255E-04 2.57861E-20
1.71338E-04 1.95623E-20
1.94942E-04 1.51068E-20
2.20070E-04 1.18499E-20
2.46720E-04 9.42494E-21
2.74892E-04 7.58918E-21
3.04586E-04 6.17912E-21
3.35803E-04 5.08151E-21
3.68542E-04 4.21691E-21
4.02802E-04 3.52840E-21
4.38585E-04 2.97465E-21
4.75889E-04 2.52524E-21
5.14715E-04 2.15743E-21
5.55063E-04 1.85409E-21
5.96931E-04 1.60214E-21
6.40321E-04 1.39145E-21
6.85233E-04 1.21416E-21
7.31665E-04 1.06415E-21
7.79618E-04 9.36536E-22
8.29092E-04 8.27420E-22
8.80086E-04 7.33679E-22
9.32601E-04 6.52790E-22
9.86636E-04 5.82696E-22
1.04219E-03 5.21716E-22
1.09927E-03 4.68465E-22
1.15786E-03 4.21800E-22
1.21797E-03 3.80767E-22
1.27961E-03 3.44572E-22
1.34276E-03 3.12546E-22
1.40743E-03 2.84129E-22
1.47362E-03 2.58843E-22
1.54133E-03 2.36285E-22
1.61056E-03 2.16110E-22
1.68131E-03 1.98023E-22
1.75357E-03 1.81769E-22
1.82735E-03 1.67132E-22
1.90265E-03 1.53923E-22
1.97947E-03 1.41979E-22
2.05780E-03 1.31156E-22
2.13765E-03 1.21332E-22
2.21902E-03 1.12399E-22
2.30190E-03 1.04262E-22
2.38630E-03 9.68364E-23
2.47222E-03 9.00506E-23
2.55965E-03 8.38394E-23
2.64859E-03 7.81458E-23
2.73905E-03 7.29191E-23
2.83103E-03 6.81143E-23
2.92452E-03 6.36914E-23
3.01952E-03 5.96149E-23
3.11604E-03 5.58528E-23
3.21407E-03 5.23767E-23
3.31362E-03 4.91611E-23
3.41468E-03 4.61831E-23
3.51725E-03 4.34220E-23
3.62133E-03 4.08593E-23
3.72692E-03 3.84783E-23
3.83403E-03 3.62638E-23
3.94265E-03 3.42023E-23
4.05278E-03 3.22813E-23
4.16442E-03 3.04895E-23
4.27757E-03 2.88169E-23
4.39223E-03 2.72540E-23
4.50840E-03 2.57925E-23
4.62608E-03 2.44247E-23
4.74527E-03 2.31434E-23
4.86597E-03 2.19424E-23
4.98817E-03 2.08157E-23
5.11188E-03 1.97579E-23
5.23711E-03 1.87641E-23
5.36383E-03 1.78298E-23
5.49207E-03 1.69508E-23
5.62181E-03 1.61232E-23
5.75306E-03 1.53436E-23
5.88581E-03 1.46087E-23
6.02007E-03 1.39156E-23
6.15583E-03 1.32613E-23
6.29310E-03 1.26435E-23
6.43187E-03 1.20596E-23
6.57214E-03 1.15077E-23
6.71392E-03 1.09855E-23
6.85720E-03 1.04912E-23
7.00198E-03 1.00232E-23
7.14827E-03 9.57973E-24
7.29605E-03 9.15933E-24
7.44534E-03 8.76061E-24
7.59612E-03 8.38226E-24
7.97965E-03 7.51779E-24
8.37255E-03 6.75651E-24
8.77480E-03 6.08430E-24
9.18641E-03 5.48919E-24
9.60736E-03 4.96107E-24
1.00376E-02 4.49130E-24
1.04773E-02 4.07250E-24
1.09262E-02 3.69836E-24
1.13844E-02 3.36343E-24
1.18520E-02 3.06305E-24
1.23288E-02 2.79314E-24
1.28150E-02 2.55019E-24
1.33104E-02 2.33115E-24
1.38150E-02 2.13333E-24
1.43290E-02 1.95442E-24
1.48521E-02 1.79236E-24
1.53845E-02 1.64536E-24
1.59262E-02 1.51185E-24
1.64770E-02 1.39042E-24
1.70371E-02 1.27985E-24
1.76063E-02 1.17905E-24
1.81848E-02 1.08704E-24
1.87724E-02 1.00297E-24
1.93692E-02 9.26066E-25
1.99751E-02 8.55653E-25
2.05901E-02 7.91119E-25
2.12143E-02 7.31916E-25
2.18476E-02 6.77555E-25
2.24900E-02 6.27596E-25
2.31415E-02 5.81644E-25
2.38021E-02 5.39345E-25
2.44717E-02 5.00377E-25
2.51504E-02 4.64452E-25
2.58382E-02 4.31308E-25
2.65349E-02 4.00708E-25
2.72407E-02 3.72439E-25
2.79555E-02 3.46307E-25
2.86793E-02 3.22134E-25
2.94120E-02 2.99761E-25
3.01537E-02 2.79043E-25
3.09043E-02 2.59845E-25
3.16639E-02 2.42047E-25
3.24324E-02 2.25539E-25
3.32098E-02 2.10219E-25
3.39961E-02 1.95996E-25
3.47912E-02 1.82785E-25
3.55952E-02 1.70508E-25
3.64081E-02 1.59095E-25
3.72297E-02 1.48480E-25
3.80602E-02 1.38605E-25
3.88995E-02 1.29414E-25
3.97476E-02 1.20856E-25
4.06044E-02 1.12886E-25
4.14700E-02 1.05460E-25
4.23443E-02 9.85392E-26
4.32273E-02 9.20875E-26
4.41190E-02 8.60711E-26
4.50194E-02 8.04592E-26
4.59284E-02 7.52232E-26
4.68461E-02 7.03366E-26
4.87074E-02 6.15162E-26
5.06030E-02 5.38236E-26
5.25328E-02 4.71091E-26
5.44967E-02 4.12442E-26
5.64946E-02 3.61181E-26
5.85262E-02 3.16350E-26
6.05914E-02 2.77125E-26
6.26901E-02 2.42788E-26
6.48222E-02 2.12720E-26
6.69873E-02 1.86382E-26
6.91854E-02 1.63305E-26
7.14163E-02 1.43081E-26
7.36799E-02 1.25355E-26
7.59760E-02 1.09817E-26
7.83043E-02 9.61969E-27
8.06647E-02 8.42573E-27
8.30571E-02 7.37915E-27
8.54812E-02 6.46183E-27
8.79369E-02 5.65792E-27
9.04240E-02 4.95350E-27
9.29422E-02 4.33639E-27
9.54915E-02 3.79588E-27
9.80716E-02 3.32259E-27
1.00682E-01 2.90827E-27
1.03323E-01 2.54569E-27
1.05995E-01 2.22849E-27
1.08696E-01 1.95108E-27
1.11427E-01 1.70855E-27
1.14188E-01 1.49660E-27
1.16978E-01 1.31144E-27
1.19797E-01 1.14973E-27
1.22645E-01 1.00856E-27
1.25522E-01 8.85350E-28
1.28428E-01 7.77853E-28
1.31361E-01 6.84089E-28
1.34323E-01 6.02320E-28
1.37313E-01 5.31023E-28
1.40330E-01 4.68863E-28
1.43375E-01 4.14670E-28
1.46447E-01 3.67418E-28
1.49545E-01 3.26209E-28
1.52671E-01 2.90260E-28
1.55823E-01 2.58883E-28
1.59001E-01 2.31481E-28
1.62205E-01 2.07529E-28
1.65435E-01 1.86572E-28
1.68690E-01 1.68213E-28
1.71970E-01 1.52105E-28
1.75276E-01 1.37948E-28
1.78606E-01 1.25481E-28
1.81961E-01 1.14478E-28
1.85340E-01 1.04740E-28
1.88743E-01 9.60999E-29
1.92169E-01 8.84091E-29
1.95619E-01 8.15409E-29
1.99092E-01 7.53858E-29
2.02589E-01 6.98494E-29
2.06107E-01 6.48506E-29
2.09649E-01 6.03196E-29
2.13212E-01 5.61964E-29
2.16797E-01 5.24297E-29
2.20404E-01 4.89754E-29
2.24032E-01 4.57960E-29
2.27680E-01 4.28591E-29
2.31350E-01 4.01374E-29
2.35040E-01 3.76071E-29
2.38751E-01 3.52483E-29
2.42481E-01 3.30438E-29
2.46231E-01 3.09788E-29
2.50000E-01 2.90407E-29
2.53788E-01 2.72188E-29
2.57595E-01 2.55037E-29
2.61421E-01 2.38874E-29
2.65264E-01 2.23627E-29
2.69126E-01 2.09238E-29
2.73005E-01 1.95651E-29
2.76901E-01 1.82820E-29
2.80814E-01 1.70702E-29
2.84744E-01 1.59260E-29
2.88691E-01 1.48457E-29
2.92653E-01 1.38264E-29
2.96632E-01 1.28650E-29
3.00625E-01 1.19589E-29
3.04634E-01 1.11055E-29
3.08658E-01 1.03024E-29
3.12697E-01 9.54730E-30
3.16749E-01 8.83797E-30
3.20816E-01 8.17232E-30
3.24896E-01 7.54832E-30
3.28990E-01 6.96401E-30
3.33097E-01 6.41748E-30
3.37216E-01 5.90688E-30
3.41348E-01 5.43044E-30
3.45492E-01 4.98642E-30
3.49647E-01 4.57312E-30
3.53814E-01 4.18893E-30
3.57992E-01 3.83227E-30
3.62181E-01 3.50159E-30
3.66381E-01 3.19543E-30
3.70590E-01 2.91237E-30
3.74810E-01 2.65102E-30
3.79039E-01 2.41007E-30
3.83277E-01 2.18825E-30
3.87524E-01 1.98435E-30
3.91780E-01 1.79719E-30
3.96044E-01 1.62568E-30
4.00316E-01 1.46874E-30
4.04596E-01 1.32538E-30
4.08882E-01 1.19462E-30
4.13176E-01 1.07557E-30
4.17476E-01 9.67349E-31
4.21783E-01 8.69157E-31
4.26095E-01 7.80222E-31
4.30413E-01 6.99819E-31
4.34737E-01 6.27268E-31
4.39065E-01 5.61930E-31
4.43398E-01 5.03207E-31
4.47736E-01 4.50539E-31
4.52077E-01 4.03402E-31
4.56422E-01 3.61310E-31
4.60770E-01 3.23810E-31
4.65122E-01 2.90479E-31
4.69476E-01 2.60929E-31
4.73832E-01 2.34797E-31
4.78190E-01 2.11751E-31
4.82550E-01 1.91481E-31
4.86912E-01 1.73705E-31
4.91274E-01 1.58163E-31
4.95637E-01 1.44617E-31
5.00000E-01 1.32847E-31
5.04363E-01 1.22655E-31
5.08726E-01 1.13860E-31
5.13088E-01 1.06296E-31
5.17450E-01 9.98130E-32
5.21810E-01 9.42764E-32
5.26168E-01 8.95637E-32
5.30524E-01 8.55646E-32
5.34878E-01 8.21804E-32
5.39230E-01 7.93226E-32
5.43578E-01 7.69123E-32
5.47923E-01 7.48790E-32
5.52264E-01 7.31607E-32
5.56602E-01 7.17023E-32
5.60935E-01 7.04554E-32
5.65263E-01 6.93778E-32
5.69587E-01 6.84326E-32
5.73905E-01 6.75880E-32
5.78217E-01 6.68165E-32
5.82524E-01 6.60947E-32
5.86824E-01 6.54029E-32
5.91118E-01 6.47244E-32
5.95404E-01 6.40455E-32
5.99684E-01 6.33551E-32
6.03956E-01 6.26441E-32
6.08220E-01 6.19058E-32
6.12476E-01 6.11348E-32
6.16723E-01 6.03275E-32
6.20961E-01 5.94816E-32
6.25190E-01 5.85956E-32
6.29410E-01 5.76695E-32
6.33619E-01 5.67036E-32
6.37819E-01 5.56992E-32
6.42008E-01 5.46580E-32
6.46186E-01 5.35823E-32
6.50353E-01 5.24747E-32
6.54508E-01 5.13379E-32
6.58652E-01 5.01751E-32
6.62784E-01 4.89894E-32
6.66903E-01 4.77842E-32
6.71010E-01 4.65627E-32
6.75104E-01 4.53283E-32
6.79184E-01 4.40843E-32
6.83251E-01 4.28338E-32
6.87303E-01 4.15800E-32
6.91342E-01 4.03259E-32
6.95366E-01 3.90743E-32
6.99375E-01 3.78280E-32
7.03368E-01 3.65895E-32
7.07347E-01 3.53612E-32
7.11309E-01 3.41454E-32
7.15256E-01 3.29442E-32
7.19186E-01 3.17594E-32
7.23099E-01 3.05928E-32
7.26995E-01 2.94460E-32
7.30874E-01 2.83204E-32
7.34736E-01 2.72172E-32
7.38579E-01 2.61376E-32
7.42405E-01 2.50824E-32
7.46212E-01 2.40526E-32
7.50000E-01 2.30488E-32
7.53769E-01 2.20716E-32
7.57519E-01 2.11213E-32
7.61249E-01 2.01984E-32
7.64960E-01 1.93031E-32
7.68650E-01 1.84354E-32
7.72320E-01 1.75955E-32
7.75968E-01 1.67832E-32
7.79596E-01 1.59984E-32
7.83203E-01 1.52410E-32
7.86788E-01 1.45107E-32
7.90351E-01 1.38071E-32
7.93893E-01 1.31299E-32
7.97411E-01 1.24786E-32
8.00908E-01 1.18529E-32
8.04381E-01 1.12521E-32
8.07831E-01 1.06758E-32
8.11257E-01 1.01234E-32
8.14660E-01 9.59430E-33
8.18039E-01 9.08794E-33
8.21394E-01 8.60370E-33
8.24724E-01 8.14093E-33
8.28030E-01 7.69902E-33
8.31310E-01 7.27730E-33
8.34565E-01 6.87515E-33
8.37795E-01 6.49190E-33
8.40999E-01 6.12690E-33
8.44177E-01 5.77954E-33
8.47329E-01 5.44915E-33
8.50455E-01 5.13511E-33
8.53553E-01 4.83680E-33
8.56625E-01 4.55361E-33
8.59670E-01 4.28492E-33
8.62687E-01 4.03016E-33
8.65677E-01 3.78874E-33
8.68639E-01 3.56009E-33
8.71572E-01 3.34367E-33
8.74478E-01 3.13893E-33
8.77355E-01 2.94537E-33
8.80203E-01 2.76246E-33
8.83022E-01 2.58972E-33
8.85812E-01 2.42666E-33
8.88573E-01 2.27285E-33
8.91304E-01 2.12781E-33
8.94005E-01 1.99112E-33
8.96677E-01 1.86238E-33
8.99318E-01 1.74119E-33
9.01928E-01 1.62715E-33
9.04508E-01 1.51991E-33
9.07058E-01 1.41910E-33
9.09576E-01 1.32439E-33
9.12063E-01 1.23545E-33
9.14519E-01 1.15198E-33
9.16943E-01 1.07367E-33
9.19335E-01 1.00025E-33
9.21696E-01 9.31435E-34
9.24024E-01 8.66968E-34
9.26320E-01 8.06614E-34
9.28584E-01 7.50128E-34
9.30815E-01 6.97285E-34
9.33013E-01 6.47875E-34
9.35178E-01 6.01702E-34
9.37310E-01 5.58567E-34
9.39409E-01 5.18289E-34
9.41474E-01 4.80695E-34
9.43505E-01 4.45622E-34
9.45503E-01 4.12915E-34
9.47467E-01 3.82429E-34
9.49397E-01 3.54025E-34
9.51293E-01 3.27570E-34
9.53154E-01 3.02940E-34
9.54981E-01 2.80025E-34
9.56773E-01 2.58703E-34
9.58530E-01 2.38879E-34
9.60252E-01 2.20452E-34
9.61940E-01 2.03332E-34
9.63592E-01 1.87430E-34
9.65209E-01 1.72665E-34
9.66790E-01 1.58962E-34
9.68336E-01 1.46250E-34
9.69846E-01 1.34460E-34
9.71321E-01 1.23529E-34
9.72759E-01 1.13398E-34
9.74162E-01 1.04012E-34
9.75528E-01 9.53180E-35
9.76858E-01 8.72692E-35
9.78152E-01 7.98201E-35
9.79410E-01 7.29266E-35
9.80631E-01 6.65523E-35
9.81815E-01 6.06571E-35
9.82963E-01 5.52091E-35
9.84074E-01 5.01754E-35
9.85148E-01 4.55262E-35
9.86185E-01 4.12353E-35
9.87185E-01 3.72748E-35
9.88148E-01 3.36237E-35
9.89074E-01 3.02578E-35
9.89962E-01 2.71584E-35
9.90814E-01 2.43044E-35
9.91627E-01 2.16804E-35
9.92404E-01 1.92696E-35
9.93143E-01 1.70571E-35
9.93844E-01 1.50280E-35
9.94508E-01 1.31719E-35
9.95134E-01 1.14760E-35
9.95722E-01 9.93009E-36
9.96273E-01 8.52494E-36
9.96786E-01 7.25175E-36
9.97261E-01 6.10182E-36
9.97698E-01 5.06868E-36
9.98097E-01 4.14553E-36
9.98459E-01 3.32733E-36
9.98782E-01 2.60781E-36
9.99067E-01 1.98324E-36
9.99315E-01 1.44994E-36
9.99524E-01 1.00375E-36
9.99695E-01 6.42611E-37
9.99829E-01 3.64154E-37
9.99924E-01 1.66363E-37
9.99981E-01 4.83247E-38
1.00000E+00 8.81646E-39
