 #
 # Subroutine ELSEPA. Elastic scattering of electrons and positrons
 #                    by neutral atoms and positive ions
 #
 # Projectile: positron
 # Kinetic energy = 2.50000E+06 eV = 9.18733E+04 a.u.
 #
 # WARNING: High-energy factorization with free-atom DF screening.
 #          Absorption, polarization and exchange corrections are
 #          switched off.
 #          Phase shifts are calculated for the bare nucleus.
 #          Scattering amplitudes are not evaluated.
 #
 # Element: Ho,  Z =  67,  atomic weight = 1.64930E+02 g/mol
 #
 # Nuclear model: Fermi distribution
 #                Average radius = 5.86792E-13 cm
 #                Skin thickness = 5.46000E-14 cm
 #
 # Number of electrons = 67
 #
 # Total elastic cross section = 7.28185E-18 cm**2 = 2.60040E-01 a0**2
 # 1st transport cross section = 5.64541E-22 cm**2 = 2.01601E-05 a0**2
 # 2nd transport cross section = 1.61176E-21 cm**2 = 5.75570E-05 a0**2
 #
 #
 # Differential cross section:                       MU=(1-COS(THETA))/2
 #
 #  THETA        MU          DCS          DCS        Sherman      error
 #  (deg)                 (cm**2/sr)   (a0**2/sr)    function
 #----------------------------------------------------------------------
0.00000E+00 6.82080E-13
7.61557E-13 6.82077E-13
1.18994E-12 6.82075E-13
1.71346E-12 6.82073E-13
2.33225E-12 6.82070E-13
3.04617E-12 6.82068E-13
3.85530E-12 6.82064E-13
4.75964E-12 6.82061E-13
5.75917E-12 6.82057E-13
6.85391E-12 6.82053E-13
8.04379E-12 6.82049E-13
9.32893E-12 6.82044E-13
1.07092E-11 6.82039E-13
1.21847E-11 6.82033E-13
1.37554E-11 6.82027E-13
1.54213E-11 6.82021E-13
1.71823E-11 6.82014E-13
1.90386E-11 6.82007E-13
2.09900E-11 6.82000E-13
2.30367E-11 6.81993E-13
2.51785E-11 6.81985E-13
2.74156E-11 6.81976E-13
2.97478E-11 6.81968E-13
3.21752E-11 6.81959E-13
3.46979E-11 6.81950E-13
3.73157E-11 6.81940E-13
4.00286E-11 6.81930E-13
4.28368E-11 6.81920E-13
4.57402E-11 6.81909E-13
4.87388E-11 6.81898E-13
5.18325E-11 6.81886E-13
5.50215E-11 6.81875E-13
5.83057E-11 6.81863E-13
6.16850E-11 6.81850E-13
6.51595E-11 6.81837E-13
6.87293E-11 6.81824E-13
7.23943E-11 6.81811E-13
7.61544E-11 6.81797E-13
1.18991E-10 6.81640E-13
1.71347E-10 6.81449E-13
2.33223E-10 6.81224E-13
3.04617E-10 6.80965E-13
3.85531E-10 6.80671E-13
4.75965E-10 6.80343E-13
5.75917E-10 6.79981E-13
6.85389E-10 6.79585E-13
8.04380E-10 6.79156E-13
9.32891E-10 6.78693E-13
1.07092E-09 6.78196E-13
1.21847E-09 6.77665E-13
1.37554E-09 6.77102E-13
1.54213E-09 6.76505E-13
1.71823E-09 6.75875E-13
1.90386E-09 6.75212E-13
2.09900E-09 6.74517E-13
2.30367E-09 6.73789E-13
2.51785E-09 6.73028E-13
2.74156E-09 6.72236E-13
2.97478E-09 6.71411E-13
3.21752E-09 6.70555E-13
3.46978E-09 6.69667E-13
3.73156E-09 6.68747E-13
4.00286E-09 6.67797E-13
4.28368E-09 6.66816E-13
4.57402E-09 6.65804E-13
4.87388E-09 6.64761E-13
5.18326E-09 6.63689E-13
5.50215E-09 6.62586E-13
5.83057E-09 6.61454E-13
6.16850E-09 6.60293E-13
6.51596E-09 6.59102E-13
6.87293E-09 6.57883E-13
7.23942E-09 6.56635E-13
7.61544E-09 6.55359E-13
1.18991E-08 6.41114E-13
1.71347E-08 6.24406E-13
2.33223E-08 6.05600E-13
3.04617E-08 5.85151E-13
3.85531E-08 5.63277E-13
4.75965E-08 5.40558E-13
5.75917E-08 5.17119E-13
6.85389E-08 4.93625E-13
8.04380E-08 4.69970E-13
9.32891E-08 4.46856E-13
1.07092E-07 4.24069E-13
1.21847E-07 4.02128E-13
1.37554E-07 3.80906E-13
1.54213E-07 3.60669E-13
1.71823E-07 3.41399E-13
1.90386E-07 3.23128E-13
2.09900E-07 3.05950E-13
2.30367E-07 2.89708E-13
2.51785E-07 2.74591E-13
2.74156E-07 2.60305E-13
2.97478E-07 2.47106E-13
3.21752E-07 2.34657E-13
3.46978E-07 2.23146E-13
3.73156E-07 2.12336E-13
4.00286E-07 2.02301E-13
4.28368E-07 1.92909E-13
4.57402E-07 1.84155E-13
4.87388E-07 1.75974E-13
5.18325E-07 1.68319E-13
5.50215E-07 1.61160E-13
5.83057E-07 1.54441E-13
6.16850E-07 1.48143E-13
6.51596E-07 1.42218E-13
6.87293E-07 1.36641E-13
7.23942E-07 1.31387E-13
7.61543E-07 1.26420E-13
1.18991E-06 8.87164E-14
1.71347E-06 6.44807E-14
2.33223E-06 4.78079E-14
3.04617E-06 3.55180E-14
3.85531E-06 2.72849E-14
4.75964E-06 2.10614E-14
5.75916E-06 1.66529E-14
6.85388E-06 1.31859E-14
8.04378E-06 1.06778E-14
9.32888E-06 8.65573E-15
1.07092E-05 7.13490E-15
1.21846E-05 5.90107E-15
1.37553E-05 4.93336E-15
1.54212E-05 4.14368E-15
1.71822E-05 3.50407E-15
1.90385E-05 2.97858E-15
2.09899E-05 2.54547E-15
2.30365E-05 2.18873E-15
2.51783E-05 1.88693E-15
2.74153E-05 1.63717E-15
2.97475E-05 1.42348E-15
3.21749E-05 1.24531E-15
3.46974E-05 1.09264E-15
3.73152E-05 9.63730E-16
4.00281E-05 8.52976E-16
4.28362E-05 7.58176E-16
4.57395E-05 6.76278E-16
4.87380E-05 6.05330E-16
5.18317E-05 5.43667E-16
5.50205E-05 4.89719E-16
5.83045E-05 4.42583E-16
6.16838E-05 4.01080E-16
6.51582E-05 3.64636E-16
6.87277E-05 3.32019E-16
7.23925E-05 3.03183E-16
7.61524E-05 2.77421E-16
9.21439E-05 1.98670E-16
1.09658E-04 1.46292E-16
1.28695E-04 1.10079E-16
1.49255E-04 8.43241E-17
1.71338E-04 6.56410E-17
1.94942E-04 5.18308E-17
2.20070E-04 4.14439E-17
2.46720E-04 3.35124E-17
2.74892E-04 2.73608E-17
3.04586E-04 2.25728E-17
3.35803E-04 1.87811E-17
3.68542E-04 1.57590E-17
4.02802E-04 1.33128E-17
4.38585E-04 1.13305E-17
4.75889E-04 9.69737E-18
5.14715E-04 8.35337E-18
5.55063E-04 7.23064E-18
5.96931E-04 6.29280E-18
6.40321E-04 5.50092E-18
6.85233E-04 4.83056E-18
7.31665E-04 4.25895E-18
7.79618E-04 3.76942E-18
8.29092E-04 3.34841E-18
8.80086E-04 2.98419E-18
9.32601E-04 2.66856E-18
9.86636E-04 2.39302E-18
1.04219E-03 2.15258E-18
1.09927E-03 1.94105E-18
1.15786E-03 1.75517E-18
1.21797E-03 1.59072E-18
1.27961E-03 1.44519E-18
1.34276E-03 1.31578E-18
1.40743E-03 1.20054E-18
1.47362E-03 1.09758E-18
1.54133E-03 1.00537E-18
1.61056E-03 9.22647E-19
1.68131E-03 8.48164E-19
1.75357E-03 7.81084E-19
1.82735E-03 7.20398E-19
1.90265E-03 6.65537E-19
1.97947E-03 6.15709E-19
2.05780E-03 5.70482E-19
2.13765E-03 5.29280E-19
2.21902E-03 4.91733E-19
2.30190E-03 4.57429E-19
2.38630E-03 4.26052E-19
2.47222E-03 3.97309E-19
2.55965E-03 3.70929E-19
2.64859E-03 3.46701E-19
2.73905E-03 3.24397E-19
2.83103E-03 3.03862E-19
2.92452E-03 2.84902E-19
3.01952E-03 2.67404E-19
3.11604E-03 2.51211E-19
3.21407E-03 2.36226E-19
3.31362E-03 2.22331E-19
3.41468E-03 2.09441E-19
3.51725E-03 1.97465E-19
3.62133E-03 1.86329E-19
3.72692E-03 1.75964E-19
3.83403E-03 1.66304E-19
3.94265E-03 1.57297E-19
4.05278E-03 1.48885E-19
4.16442E-03 1.41029E-19
4.27757E-03 1.33678E-19
4.39223E-03 1.26801E-19
4.50840E-03 1.20355E-19
4.62608E-03 1.14314E-19
4.74527E-03 1.08643E-19
4.86597E-03 1.03319E-19
4.98817E-03 9.83158E-20
5.11188E-03 9.36098E-20
5.23711E-03 8.91810E-20
5.36383E-03 8.50091E-20
5.49207E-03 8.10780E-20
5.62181E-03 7.73694E-20
5.75306E-03 7.38705E-20
5.88581E-03 7.05649E-20
6.02007E-03 6.74422E-20
6.15583E-03 6.44888E-20
6.29310E-03 6.16950E-20
6.43187E-03 5.90498E-20
6.57214E-03 5.65443E-20
6.71392E-03 5.41695E-20
6.85720E-03 5.19174E-20
7.00198E-03 4.97807E-20
7.14827E-03 4.77520E-20
7.29605E-03 4.58254E-20
7.44534E-03 4.39940E-20
7.59612E-03 4.22532E-20
7.97965E-03 3.82607E-20
8.37255E-03 3.47267E-20
8.77480E-03 3.15894E-20
9.18641E-03 2.87965E-20
9.60736E-03 2.63040E-20
1.00376E-02 2.40739E-20
1.04773E-02 2.20738E-20
1.09262E-02 2.02760E-20
1.13844E-02 1.86565E-20
1.18520E-02 1.71945E-20
1.23288E-02 1.58720E-20
1.28150E-02 1.46735E-20
1.33104E-02 1.35852E-20
1.38150E-02 1.25953E-20
1.43290E-02 1.16933E-20
1.48521E-02 1.08701E-20
1.53845E-02 1.01175E-20
1.59262E-02 9.42845E-21
1.64770E-02 8.79664E-21
1.70371E-02 8.21649E-21
1.76063E-02 7.68299E-21
1.81848E-02 7.19176E-21
1.87724E-02 6.73887E-21
1.93692E-02 6.32075E-21
1.99751E-02 5.93431E-21
2.05901E-02 5.57670E-21
2.12143E-02 5.24539E-21
2.18476E-02 4.93811E-21
2.24900E-02 4.65281E-21
2.31415E-02 4.38762E-21
2.38021E-02 4.14089E-21
2.44717E-02 3.91110E-21
2.51504E-02 3.69687E-21
2.58382E-02 3.49698E-21
2.65349E-02 3.31027E-21
2.72407E-02 3.13576E-21
2.79555E-02 2.97246E-21
2.86793E-02 2.81957E-21
2.94120E-02 2.67626E-21
3.01537E-02 2.54187E-21
3.09043E-02 2.41570E-21
3.16639E-02 2.29719E-21
3.24324E-02 2.18578E-21
3.32098E-02 2.08097E-21
3.39961E-02 1.98230E-21
3.47912E-02 1.88934E-21
3.55952E-02 1.80171E-21
3.64081E-02 1.71904E-21
3.72297E-02 1.64101E-21
3.80602E-02 1.56730E-21
3.88995E-02 1.49765E-21
3.97476E-02 1.43176E-21
4.06044E-02 1.36942E-21
4.14700E-02 1.31040E-21
4.23443E-02 1.25448E-21
4.32273E-02 1.20148E-21
4.41190E-02 1.15121E-21
4.50194E-02 1.10351E-21
4.59284E-02 1.05823E-21
4.68461E-02 1.01521E-21
4.87074E-02 9.35466E-22
5.06030E-02 8.63302E-22
5.25328E-02 7.97877E-22
5.44967E-02 7.38456E-22
5.64946E-02 6.84393E-22
5.85262E-02 6.35123E-22
6.05914E-02 5.90149E-22
6.26901E-02 5.49032E-22
6.48222E-02 5.11385E-22
6.69873E-02 4.76865E-22
6.91854E-02 4.45168E-22
7.14163E-02 4.16023E-22
7.36799E-02 3.89189E-22
7.59760E-02 3.64452E-22
7.83043E-02 3.41620E-22
8.06647E-02 3.20520E-22
8.30571E-02 3.00999E-22
8.54812E-02 2.82919E-22
8.79369E-02 2.66153E-22
9.04240E-02 2.50591E-22
9.29422E-02 2.36131E-22
9.54915E-02 2.22682E-22
9.80716E-02 2.10160E-22
1.00682E-01 1.98491E-22
1.03323E-01 1.87606E-22
1.05995E-01 1.77444E-22
1.08696E-01 1.67948E-22
1.11427E-01 1.59067E-22
1.14188E-01 1.50755E-22
1.16978E-01 1.42968E-22
1.19797E-01 1.35668E-22
1.22645E-01 1.28819E-22
1.25522E-01 1.22388E-22
1.28428E-01 1.16346E-22
1.31361E-01 1.10664E-22
1.34323E-01 1.05317E-22
1.37313E-01 1.00283E-22
1.40330E-01 9.55399E-23
1.43375E-01 9.10677E-23
1.46447E-01 8.68485E-23
1.49545E-01 8.28653E-23
1.52671E-01 7.91028E-23
1.55823E-01 7.55465E-23
1.59001E-01 7.21832E-23
1.62205E-01 6.90005E-23
1.65435E-01 6.59872E-23
1.68690E-01 6.31326E-23
1.71970E-01 6.04270E-23
1.75276E-01 5.78611E-23
1.78606E-01 5.54265E-23
1.81961E-01 5.31154E-23
1.85340E-01 5.09204E-23
1.88743E-01 4.88346E-23
1.92169E-01 4.68516E-23
1.95619E-01 4.49656E-23
1.99092E-01 4.31709E-23
2.02589E-01 4.14624E-23
2.06107E-01 3.98351E-23
2.09649E-01 3.82846E-23
2.13212E-01 3.68066E-23
2.16797E-01 3.53971E-23
2.20404E-01 3.40525E-23
2.24032E-01 3.27691E-23
2.27680E-01 3.15438E-23
2.31350E-01 3.03734E-23
2.35040E-01 2.92550E-23
2.38751E-01 2.81860E-23
2.42481E-01 2.71638E-23
2.46231E-01 2.61860E-23
2.50000E-01 2.52503E-23
2.53788E-01 2.43546E-23
2.57595E-01 2.34969E-23
2.61421E-01 2.26752E-23
2.65264E-01 2.18879E-23
2.69126E-01 2.11332E-23
2.73005E-01 2.04096E-23
2.76901E-01 1.97155E-23
2.80814E-01 1.90495E-23
2.84744E-01 1.84104E-23
2.88691E-01 1.77968E-23
2.92653E-01 1.72075E-23
2.96632E-01 1.66414E-23
3.00625E-01 1.60975E-23
3.04634E-01 1.55747E-23
3.08658E-01 1.50721E-23
3.12697E-01 1.45886E-23
3.16749E-01 1.41236E-23
3.20816E-01 1.36762E-23
3.24896E-01 1.32455E-23
3.28990E-01 1.28309E-23
3.33097E-01 1.24316E-23
3.37216E-01 1.20471E-23
3.41348E-01 1.16765E-23
3.45492E-01 1.13195E-23
3.49647E-01 1.09753E-23
3.53814E-01 1.06434E-23
3.57992E-01 1.03234E-23
3.62181E-01 1.00147E-23
3.66381E-01 9.71681E-24
3.70590E-01 9.42937E-24
3.74810E-01 9.15191E-24
3.79039E-01 8.88403E-24
3.83277E-01 8.62533E-24
3.87524E-01 8.37546E-24
3.91780E-01 8.13406E-24
3.96044E-01 7.90080E-24
4.00316E-01 7.67535E-24
4.04596E-01 7.45741E-24
4.08882E-01 7.24669E-24
4.13176E-01 7.04290E-24
4.17476E-01 6.84579E-24
4.21783E-01 6.65509E-24
4.26095E-01 6.47057E-24
4.30413E-01 6.29198E-24
4.34737E-01 6.11911E-24
4.39065E-01 5.95175E-24
4.43398E-01 5.78968E-24
4.47736E-01 5.63271E-24
4.52077E-01 5.48065E-24
4.56422E-01 5.33333E-24
4.60770E-01 5.19057E-24
4.65122E-01 5.05222E-24
4.69476E-01 4.91810E-24
4.73832E-01 4.78807E-24
4.78190E-01 4.66199E-24
4.82550E-01 4.53971E-24
4.86912E-01 4.42110E-24
4.91274E-01 4.30603E-24
4.95637E-01 4.19439E-24
5.00000E-01 4.08605E-24
5.04363E-01 3.98089E-24
5.08726E-01 3.87881E-24
5.13088E-01 3.77971E-24
5.17450E-01 3.68348E-24
5.21810E-01 3.59003E-24
5.26168E-01 3.49926E-24
5.30524E-01 3.41108E-24
5.34878E-01 3.32541E-24
5.39230E-01 3.24217E-24
5.43578E-01 3.16127E-24
5.47923E-01 3.08264E-24
5.52264E-01 3.00621E-24
5.56602E-01 2.93190E-24
5.60935E-01 2.85965E-24
5.65263E-01 2.78938E-24
5.69587E-01 2.72105E-24
5.73905E-01 2.65458E-24
5.78217E-01 2.58991E-24
5.82524E-01 2.52700E-24
5.86824E-01 2.46578E-24
5.91118E-01 2.40620E-24
5.95404E-01 2.34822E-24
5.99684E-01 2.29177E-24
6.03956E-01 2.23683E-24
6.08220E-01 2.18333E-24
6.12476E-01 2.13124E-24
6.16723E-01 2.08051E-24
6.20961E-01 2.03110E-24
6.25190E-01 1.98298E-24
6.29410E-01 1.93610E-24
6.33619E-01 1.89042E-24
6.37819E-01 1.84592E-24
6.42008E-01 1.80256E-24
6.46186E-01 1.76030E-24
6.50353E-01 1.71911E-24
6.54508E-01 1.67896E-24
6.58652E-01 1.63983E-24
6.62784E-01 1.60167E-24
6.66903E-01 1.56447E-24
6.71010E-01 1.52819E-24
6.75104E-01 1.49282E-24
6.79184E-01 1.45832E-24
6.83251E-01 1.42467E-24
6.87303E-01 1.39184E-24
6.91342E-01 1.35982E-24
6.95366E-01 1.32858E-24
6.99375E-01 1.29810E-24
7.03368E-01 1.26836E-24
7.07347E-01 1.23933E-24
7.11309E-01 1.21101E-24
7.15256E-01 1.18336E-24
7.19186E-01 1.15638E-24
7.23099E-01 1.13004E-24
7.26995E-01 1.10432E-24
7.30874E-01 1.07922E-24
7.34736E-01 1.05471E-24
7.38579E-01 1.03078E-24
7.42405E-01 1.00741E-24
7.46212E-01 9.84586E-25
7.50000E-01 9.62298E-25
7.53769E-01 9.40531E-25
7.57519E-01 9.19269E-25
7.61249E-01 8.98501E-25
7.64960E-01 8.78213E-25
7.68650E-01 8.58395E-25
7.72320E-01 8.39032E-25
7.75968E-01 8.20115E-25
7.79596E-01 8.01632E-25
7.83203E-01 7.83572E-25
7.86788E-01 7.65924E-25
7.90351E-01 7.48679E-25
7.93893E-01 7.31826E-25
7.97411E-01 7.15356E-25
8.00908E-01 6.99259E-25
8.04381E-01 6.83527E-25
8.07831E-01 6.68150E-25
8.11257E-01 6.53120E-25
8.14660E-01 6.38429E-25
8.18039E-01 6.24068E-25
8.21394E-01 6.10030E-25
8.24724E-01 5.96307E-25
8.28030E-01 5.82891E-25
8.31310E-01 5.69776E-25
8.34565E-01 5.56954E-25
8.37795E-01 5.44419E-25
8.40999E-01 5.32164E-25
8.44177E-01 5.20183E-25
8.47329E-01 5.08468E-25
8.50455E-01 4.97016E-25
8.53553E-01 4.85818E-25
8.56625E-01 4.74870E-25
8.59670E-01 4.64166E-25
8.62687E-01 4.53701E-25
8.65677E-01 4.43470E-25
8.68639E-01 4.33466E-25
8.71572E-01 4.23686E-25
8.74478E-01 4.14124E-25
8.77355E-01 4.04776E-25
8.80203E-01 3.95637E-25
8.83022E-01 3.86703E-25
8.85812E-01 3.77970E-25
8.88573E-01 3.69432E-25
8.91304E-01 3.61087E-25
8.94005E-01 3.52929E-25
8.96677E-01 3.44956E-25
8.99318E-01 3.37164E-25
9.01928E-01 3.29548E-25
9.04508E-01 3.22105E-25
9.07058E-01 3.14832E-25
9.09576E-01 3.07726E-25
9.12063E-01 3.00782E-25
9.14519E-01 2.93999E-25
9.16943E-01 2.87372E-25
9.19335E-01 2.80899E-25
9.21696E-01 2.74578E-25
9.24024E-01 2.68404E-25
9.26320E-01 2.62375E-25
9.28584E-01 2.56489E-25
9.30815E-01 2.50743E-25
9.33013E-01 2.45134E-25
9.35178E-01 2.39660E-25
9.37310E-01 2.34318E-25
9.39409E-01 2.29107E-25
9.41474E-01 2.24024E-25
9.43505E-01 2.19066E-25
9.45503E-01 2.14232E-25
9.47467E-01 2.09519E-25
9.49397E-01 2.04926E-25
9.51293E-01 2.00450E-25
9.53154E-01 1.96089E-25
9.54981E-01 1.91843E-25
9.56773E-01 1.87708E-25
9.58530E-01 1.83683E-25
9.60252E-01 1.79767E-25
9.61940E-01 1.75958E-25
9.63592E-01 1.72254E-25
9.65209E-01 1.68653E-25
9.66790E-01 1.65155E-25
9.68336E-01 1.61757E-25
9.69846E-01 1.58459E-25
9.71321E-01 1.55258E-25
9.72759E-01 1.52155E-25
9.74162E-01 1.49146E-25
9.75528E-01 1.46232E-25
9.76858E-01 1.43411E-25
9.78152E-01 1.40682E-25
9.79410E-01 1.38043E-25
9.80631E-01 1.35494E-25
9.81815E-01 1.33033E-25
9.82963E-01 1.30660E-25
9.84074E-01 1.28374E-25
9.85148E-01 1.26174E-25
9.86185E-01 1.24058E-25
9.87185E-01 1.22027E-25
9.88148E-01 1.20078E-25
9.89074E-01 1.18212E-25
9.89962E-01 1.16428E-25
9.90814E-01 1.14725E-25
9.91627E-01 1.13102E-25
9.92404E-01 1.11559E-25
9.93143E-01 1.10095E-25
9.93844E-01 1.08709E-25
9.94508E-01 1.07402E-25
9.95134E-01 1.06171E-25
9.95722E-01 1.05018E-25
9.96273E-01 1.03941E-25
9.96786E-01 1.02940E-25
9.97261E-01 1.02015E-25
9.97698E-01 1.01166E-25
9.98097E-01 1.00391E-25
9.98459E-01 9.96909E-26
9.98782E-01 9.90652E-26
9.99067E-01 9.85138E-26
9.99315E-01 9.80363E-26
9.99524E-01 9.76326E-26
9.99695E-01 9.73025E-26
9.99829E-01 9.70459E-26
9.99924E-01 9.68626E-26
9.99981E-01 9.67527E-26
1.00000E+00 9.67161E-26
