 #
 # Subroutine ELSEPA. Elastic scattering of electrons and positrons
 #                    by neutral atoms and positive ions
 #
 # Projectile: positron
 # Kinetic energy = 1.25000E+07 eV = 4.59367E+05 a.u.
 #
 # WARNING: High-energy factorization with free-atom DF screening.
 #          Absorption, polarization and exchange corrections are
 #          switched off.
 #          Phase shifts are calculated for the bare nucleus.
 #          Scattering amplitudes are not evaluated.
 #
 # Element: Ho,  Z =  67,  atomic weight = 1.64930E+02 g/mol
 #
 # Nuclear model: Fermi distribution
 #                Average radius = 5.86792E-13 cm
 #                Skin thickness = 5.46000E-14 cm
 #
 # Number of electrons = 67
 #
 # Total elastic cross section = 7.09495E-18 cm**2 = 2.53365E-01 a0**2
 # 1st transport cross section = 3.85272E-23 cm**2 = 1.37583E-06 a0**2
 # 2nd transport cross section = 1.11682E-22 cm**2 = 3.98825E-06 a0**2
 #
 #
 # Differential cross section:                       MU=(1-COS(THETA))/2
 #
 #  THETA        MU          DCS          DCS        Sherman      error
 #  (deg)                 (cm**2/sr)   (a0**2/sr)    function
 #----------------------------------------------------------------------
0.00000E+00 1.27361E-11
7.61557E-13 1.27351E-11
1.18994E-12 1.27345E-11
1.71346E-12 1.27338E-11
2.33225E-12 1.27330E-11
3.04617E-12 1.27321E-11
3.85530E-12 1.27310E-11
4.75964E-12 1.27298E-11
5.75917E-12 1.27285E-11
6.85391E-12 1.27271E-11
8.04379E-12 1.27255E-11
9.32893E-12 1.27239E-11
1.07092E-11 1.27221E-11
1.21847E-11 1.27202E-11
1.37554E-11 1.27181E-11
1.54213E-11 1.27160E-11
1.71823E-11 1.27137E-11
1.90386E-11 1.27113E-11
2.09900E-11 1.27087E-11
2.30367E-11 1.27061E-11
2.51785E-11 1.27033E-11
2.74156E-11 1.27004E-11
2.97478E-11 1.26974E-11
3.21752E-11 1.26943E-11
3.46979E-11 1.26910E-11
3.73157E-11 1.26876E-11
4.00286E-11 1.26841E-11
4.28368E-11 1.26805E-11
4.57402E-11 1.26767E-11
4.87388E-11 1.26729E-11
5.18325E-11 1.26689E-11
5.50215E-11 1.26648E-11
5.83057E-11 1.26606E-11
6.16850E-11 1.26562E-11
6.51595E-11 1.26517E-11
6.87293E-11 1.26472E-11
7.23943E-11 1.26425E-11
7.61544E-11 1.26376E-11
1.18991E-10 1.25829E-11
1.71347E-10 1.25166E-11
2.33223E-10 1.24390E-11
3.04617E-10 1.23504E-11
3.85531E-10 1.22514E-11
4.75965E-10 1.21422E-11
5.75917E-10 1.20235E-11
6.85389E-10 1.18957E-11
8.04380E-10 1.17594E-11
9.32891E-10 1.16152E-11
1.07092E-09 1.14636E-11
1.21847E-09 1.13053E-11
1.37554E-09 1.11410E-11
1.54213E-09 1.09720E-11
1.71823E-09 1.07976E-11
1.90386E-09 1.06181E-11
2.09900E-09 1.04341E-11
2.30367E-09 1.02494E-11
2.51785E-09 1.00616E-11
2.74156E-09 9.87093E-12
2.97478E-09 9.67792E-12
3.21752E-09 9.48583E-12
3.46978E-09 9.29364E-12
3.73156E-09 9.10043E-12
4.00286E-09 8.90662E-12
4.28368E-09 8.71471E-12
4.57402E-09 8.52547E-12
4.87388E-09 8.33666E-12
5.18326E-09 8.14860E-12
5.50215E-09 7.96274E-12
5.83057E-09 7.78192E-12
6.16850E-09 7.60259E-12
6.51596E-09 7.42496E-12
6.87293E-09 7.24933E-12
7.23942E-09 7.08058E-12
7.61544E-09 6.91398E-12
1.18991E-08 5.43878E-12
1.71347E-08 4.31993E-12
2.33223E-08 3.49298E-12
3.04617E-08 2.87894E-12
3.85531E-08 2.41379E-12
4.75965E-08 2.05130E-12
5.75917E-08 1.76115E-12
6.85389E-08 1.52293E-12
8.04380E-08 1.32446E-12
9.32891E-08 1.15665E-12
1.07092E-07 1.01349E-12
1.21847E-07 8.90905E-13
1.37554E-07 7.83988E-13
1.54213E-07 6.86135E-13
1.71823E-07 6.06410E-13
1.90386E-07 5.40812E-13
2.09900E-07 4.86336E-13
2.30367E-07 4.32307E-13
2.51785E-07 3.86258E-13
2.74156E-07 3.47487E-13
2.97478E-07 3.14605E-13
3.21752E-07 2.83777E-13
3.46978E-07 2.56225E-13
3.73156E-07 2.32574E-13
4.00286E-07 2.12154E-13
4.28368E-07 1.93514E-13
4.57402E-07 1.76292E-13
4.87388E-07 1.61272E-13
5.18325E-07 1.48113E-13
5.50215E-07 1.36273E-13
5.83057E-07 1.25038E-13
6.16850E-07 1.15114E-13
6.51596E-07 1.06315E-13
6.87293E-07 9.84768E-14
7.23942E-07 9.08829E-14
7.61543E-07 8.41042E-14
1.18991E-06 4.15356E-14
1.71347E-06 2.24612E-14
2.33223E-06 1.31607E-14
3.04617E-06 8.26108E-15
3.85531E-06 5.47512E-15
4.75964E-06 3.78721E-15
5.75916E-06 2.71024E-15
6.85388E-06 1.98964E-15
8.04378E-06 1.49222E-15
9.32888E-06 1.14016E-15
1.07092E-05 8.85520E-16
1.21846E-05 6.97725E-16
1.37553E-05 5.56711E-16
1.54212E-05 4.49358E-16
1.71822E-05 3.66916E-16
1.90385E-05 3.02374E-16
2.09899E-05 2.51587E-16
2.30365E-05 2.11124E-16
2.51783E-05 1.78334E-16
2.74153E-05 1.51706E-16
2.97475E-05 1.29841E-16
3.21749E-05 1.11774E-16
3.46974E-05 9.67841E-17
3.73152E-05 8.42027E-17
4.00281E-05 7.36326E-17
4.28362E-05 6.46680E-17
4.57395E-05 5.70279E-17
4.87380E-05 5.04888E-17
5.18317E-05 4.48470E-17
5.50205E-05 3.99768E-17
5.83045E-05 3.57449E-17
6.16838E-05 3.20594E-17
6.51582E-05 2.88392E-17
6.87277E-05 2.60106E-17
7.23925E-05 2.35238E-17
7.61524E-05 2.13247E-17
9.21439E-05 1.47247E-17
1.09658E-04 1.04858E-17
1.28695E-04 7.66645E-18
1.49255E-04 5.73165E-18
1.71338E-04 4.36949E-18
1.94942E-04 3.38827E-18
2.20070E-04 2.66717E-18
2.46720E-04 2.12787E-18
2.74892E-04 1.71806E-18
3.04586E-04 1.40222E-18
3.35803E-04 1.15566E-18
3.68542E-04 9.60941E-19
4.02802E-04 8.05517E-19
4.38585E-04 6.80257E-19
4.75889E-04 5.78401E-19
5.14715E-04 4.94894E-19
5.55063E-04 4.25913E-19
5.96931E-04 3.68526E-19
6.40321E-04 3.20475E-19
6.85233E-04 2.79996E-19
7.31665E-04 2.45700E-19
7.79618E-04 2.16490E-19
8.29092E-04 1.91486E-19
8.80086E-04 1.69983E-19
9.32601E-04 1.51410E-19
9.86636E-04 1.35300E-19
1.04219E-03 1.21272E-19
1.09927E-03 1.09012E-19
1.15786E-03 9.82587E-20
1.21797E-03 8.87960E-20
1.27961E-03 8.04424E-20
1.34276E-03 7.30458E-20
1.40743E-03 6.64775E-20
1.47362E-03 6.06292E-20
1.54133E-03 5.54082E-20
1.61056E-03 5.07356E-20
1.68131E-03 4.65437E-20
1.75357E-03 4.27746E-20
1.82735E-03 3.93781E-20
1.90265E-03 3.63111E-20
1.97947E-03 3.35359E-20
2.05780E-03 3.10199E-20
2.13765E-03 2.87346E-20
2.21902E-03 2.66552E-20
2.30190E-03 2.47599E-20
2.38630E-03 2.30294E-20
2.47222E-03 2.14469E-20
2.55965E-03 1.99975E-20
2.64859E-03 1.86680E-20
2.73905E-03 1.74468E-20
2.83103E-03 1.63234E-20
2.92452E-03 1.52886E-20
3.01952E-03 1.43341E-20
3.11604E-03 1.34527E-20
3.21407E-03 1.26377E-20
3.31362E-03 1.18832E-20
3.41468E-03 1.11840E-20
3.51725E-03 1.05352E-20
3.62133E-03 9.93259E-21
3.72692E-03 9.37225E-21
3.83403E-03 8.85068E-21
3.94265E-03 8.36473E-21
4.05278E-03 7.91151E-21
4.16442E-03 7.48844E-21
4.27757E-03 7.09313E-21
4.39223E-03 6.72344E-21
4.50840E-03 6.37740E-21
4.62608E-03 6.05323E-21
4.74527E-03 5.74929E-21
4.86597E-03 5.46410E-21
4.98817E-03 5.19628E-21
5.11188E-03 4.94458E-21
5.23711E-03 4.70786E-21
5.36383E-03 4.48507E-21
5.49207E-03 4.27522E-21
5.62181E-03 4.07744E-21
5.75306E-03 3.89091E-21
5.88581E-03 3.71486E-21
6.02007E-03 3.54860E-21
6.15583E-03 3.39148E-21
6.29310E-03 3.24292E-21
6.43187E-03 3.10236E-21
6.57214E-03 2.96928E-21
6.71392E-03 2.84322E-21
6.85720E-03 2.72375E-21
7.00198E-03 2.61044E-21
7.14827E-03 2.50293E-21
7.29605E-03 2.40087E-21
7.44534E-03 2.30392E-21
7.59612E-03 2.21179E-21
7.97965E-03 2.00071E-21
8.37255E-03 1.81407E-21
8.77480E-03 1.64857E-21
9.18641E-03 1.50140E-21
9.60736E-03 1.37020E-21
1.00376E-02 1.25292E-21
1.04773E-02 1.14785E-21
1.09262E-02 1.05349E-21
1.13844E-02 9.68568E-22
1.18520E-02 8.91972E-22
1.23288E-02 8.22747E-22
1.28150E-02 7.60062E-22
1.33104E-02 7.03191E-22
1.38150E-02 6.51502E-22
1.43290E-02 6.04439E-22
1.48521E-02 5.61518E-22
1.53845E-02 5.22310E-22
1.59262E-02 4.86439E-22
1.64770E-02 4.53570E-22
1.70371E-02 4.23407E-22
1.76063E-02 3.95690E-22
1.81848E-02 3.70185E-22
1.87724E-02 3.46685E-22
1.93692E-02 3.25004E-22
1.99751E-02 3.04976E-22
2.05901E-02 2.86454E-22
2.12143E-02 2.69304E-22
2.18476E-02 2.53406E-22
2.24900E-02 2.38654E-22
2.31415E-02 2.24949E-22
2.38021E-02 2.12205E-22
2.44717E-02 2.00341E-22
2.51504E-02 1.89287E-22
2.58382E-02 1.78977E-22
2.65349E-02 1.69353E-22
2.72407E-02 1.60360E-22
2.79555E-02 1.51950E-22
2.86793E-02 1.44078E-22
2.94120E-02 1.36704E-22
3.01537E-02 1.29791E-22
3.09043E-02 1.23304E-22
3.16639E-02 1.17213E-22
3.24324E-02 1.11490E-22
3.32098E-02 1.06107E-22
3.39961E-02 1.01042E-22
3.47912E-02 9.62715E-23
3.55952E-02 9.17763E-23
3.64081E-02 8.75371E-23
3.72297E-02 8.35370E-23
3.80602E-02 7.97600E-23
3.88995E-02 7.61914E-23
3.97476E-02 7.28178E-23
4.06044E-02 6.96264E-23
4.14700E-02 6.66057E-23
4.23443E-02 6.37449E-23
4.32273E-02 6.10341E-23
4.41190E-02 5.84640E-23
4.50194E-02 5.60260E-23
4.59284E-02 5.37120E-23
4.68461E-02 5.15146E-23
4.87074E-02 4.74424E-23
5.06030E-02 4.37595E-23
5.25328E-02 4.04223E-23
5.44967E-02 3.73928E-23
5.64946E-02 3.46379E-23
5.85262E-02 3.21285E-23
6.05914E-02 2.98390E-23
6.26901E-02 2.77467E-23
6.48222E-02 2.58319E-23
6.69873E-02 2.40769E-23
6.91854E-02 2.24661E-23
7.14163E-02 2.09856E-23
7.36799E-02 1.96230E-23
7.59760E-02 1.83675E-23
7.83043E-02 1.72090E-23
8.06647E-02 1.61389E-23
8.30571E-02 1.51492E-23
8.54812E-02 1.42329E-23
8.79369E-02 1.33835E-23
9.04240E-02 1.25954E-23
9.29422E-02 1.18634E-23
9.54915E-02 1.11827E-23
9.80716E-02 1.05492E-23
1.00682E-01 9.95909E-24
1.03323E-01 9.40881E-24
1.05995E-01 8.89523E-24
1.08696E-01 8.41548E-24
1.11427E-01 7.96696E-24
1.14188E-01 7.54728E-24
1.16978E-01 7.15427E-24
1.19797E-01 6.78594E-24
1.22645E-01 6.44047E-24
1.25522E-01 6.11621E-24
1.28428E-01 5.81161E-24
1.31361E-01 5.52530E-24
1.34323E-01 5.25598E-24
1.37313E-01 5.00247E-24
1.40330E-01 4.76368E-24
1.43375E-01 4.53861E-24
1.46447E-01 4.32635E-24
1.49545E-01 4.12597E-24
1.52671E-01 3.93676E-24
1.55823E-01 3.75797E-24
1.59001E-01 3.58893E-24
1.62205E-01 3.42903E-24
1.65435E-01 3.27768E-24
1.68690E-01 3.13435E-24
1.71970E-01 2.99854E-24
1.75276E-01 2.86978E-24
1.78606E-01 2.74765E-24
1.81961E-01 2.63175E-24
1.85340E-01 2.52171E-24
1.88743E-01 2.41718E-24
1.92169E-01 2.31783E-24
1.95619E-01 2.22336E-24
1.99092E-01 2.13350E-24
2.02589E-01 2.04798E-24
2.06107E-01 1.96656E-24
2.09649E-01 1.88900E-24
2.13212E-01 1.81509E-24
2.16797E-01 1.74463E-24
2.20404E-01 1.67743E-24
2.24032E-01 1.61332E-24
2.27680E-01 1.55212E-24
2.31350E-01 1.49369E-24
2.35040E-01 1.43788E-24
2.38751E-01 1.38454E-24
2.42481E-01 1.33356E-24
2.46231E-01 1.28480E-24
2.50000E-01 1.23816E-24
2.53788E-01 1.19353E-24
2.57595E-01 1.15081E-24
2.61421E-01 1.10990E-24
2.65264E-01 1.07071E-24
2.69126E-01 1.03315E-24
2.73005E-01 9.97158E-25
2.76901E-01 9.62645E-25
2.80814E-01 9.29542E-25
2.84744E-01 8.97782E-25
2.88691E-01 8.67301E-25
2.92653E-01 8.38040E-25
2.96632E-01 8.09941E-25
3.00625E-01 7.82950E-25
3.04634E-01 7.57017E-25
3.08658E-01 7.32092E-25
3.12697E-01 7.08131E-25
3.16749E-01 6.85089E-25
3.20816E-01 6.62926E-25
3.24896E-01 6.41602E-25
3.28990E-01 6.21080E-25
3.33097E-01 6.01326E-25
3.37216E-01 5.82305E-25
3.41348E-01 5.63985E-25
3.45492E-01 5.46338E-25
3.49647E-01 5.29333E-25
3.53814E-01 5.12944E-25
3.57992E-01 4.97145E-25
3.62181E-01 4.81910E-25
3.66381E-01 4.67217E-25
3.70590E-01 4.53043E-25
3.74810E-01 4.39367E-25
3.79039E-01 4.26168E-25
3.83277E-01 4.13427E-25
3.87524E-01 4.01125E-25
3.91780E-01 3.89245E-25
3.96044E-01 3.77770E-25
4.00316E-01 3.66683E-25
4.04596E-01 3.55971E-25
4.08882E-01 3.45617E-25
4.13176E-01 3.35608E-25
4.17476E-01 3.25931E-25
4.21783E-01 3.16572E-25
4.26095E-01 3.07521E-25
4.30413E-01 2.98764E-25
4.34737E-01 2.90291E-25
4.39065E-01 2.82091E-25
4.43398E-01 2.74154E-25
4.47736E-01 2.66470E-25
4.52077E-01 2.59030E-25
4.56422E-01 2.51824E-25
4.60770E-01 2.44845E-25
4.65122E-01 2.38084E-25
4.69476E-01 2.31533E-25
4.73832E-01 2.25184E-25
4.78190E-01 2.19030E-25
4.82550E-01 2.13065E-25
4.86912E-01 2.07282E-25
4.91274E-01 2.01674E-25
4.95637E-01 1.96234E-25
5.00000E-01 1.90958E-25
5.04363E-01 1.85840E-25
5.08726E-01 1.80874E-25
5.13088E-01 1.76054E-25
5.17450E-01 1.71377E-25
5.21810E-01 1.66836E-25
5.26168E-01 1.62428E-25
5.30524E-01 1.58148E-25
5.34878E-01 1.53991E-25
5.39230E-01 1.49954E-25
5.43578E-01 1.46033E-25
5.47923E-01 1.42223E-25
5.52264E-01 1.38522E-25
5.56602E-01 1.34925E-25
5.60935E-01 1.31429E-25
5.65263E-01 1.28031E-25
5.69587E-01 1.24728E-25
5.73905E-01 1.21517E-25
5.78217E-01 1.18394E-25
5.82524E-01 1.15357E-25
5.86824E-01 1.12404E-25
5.91118E-01 1.09531E-25
5.95404E-01 1.06736E-25
5.99684E-01 1.04017E-25
6.03956E-01 1.01372E-25
6.08220E-01 9.87972E-26
6.12476E-01 9.62915E-26
6.16723E-01 9.38525E-26
6.20961E-01 9.14784E-26
6.25190E-01 8.91670E-26
6.29410E-01 8.69165E-26
6.33619E-01 8.47251E-26
6.37819E-01 8.25909E-26
6.42008E-01 8.05124E-26
6.46186E-01 7.84878E-26
6.50353E-01 7.65155E-26
6.54508E-01 7.45940E-26
6.58652E-01 7.27219E-26
6.62784E-01 7.08977E-26
6.66903E-01 6.91199E-26
6.71010E-01 6.73874E-26
6.75104E-01 6.56986E-26
6.79184E-01 6.40525E-26
6.83251E-01 6.24478E-26
6.87303E-01 6.08833E-26
6.91342E-01 5.93579E-26
6.95366E-01 5.78704E-26
6.99375E-01 5.64199E-26
7.03368E-01 5.50052E-26
7.07347E-01 5.36255E-26
7.11309E-01 5.22796E-26
7.15256E-01 5.09668E-26
7.19186E-01 4.96861E-26
7.23099E-01 4.84365E-26
7.26995E-01 4.72173E-26
7.30874E-01 4.60277E-26
7.34736E-01 4.48668E-26
7.38579E-01 4.37339E-26
7.42405E-01 4.26282E-26
7.46212E-01 4.15490E-26
7.50000E-01 4.04956E-26
7.53769E-01 3.94673E-26
7.57519E-01 3.84635E-26
7.61249E-01 3.74834E-26
7.64960E-01 3.65266E-26
7.68650E-01 3.55924E-26
7.72320E-01 3.46802E-26
7.75968E-01 3.37894E-26
7.79596E-01 3.29196E-26
7.83203E-01 3.20700E-26
7.86788E-01 3.12404E-26
7.90351E-01 3.04301E-26
7.93893E-01 2.96386E-26
7.97411E-01 2.88655E-26
8.00908E-01 2.81104E-26
8.04381E-01 2.73727E-26
8.07831E-01 2.66521E-26
8.11257E-01 2.59481E-26
8.14660E-01 2.52603E-26
8.18039E-01 2.45883E-26
8.21394E-01 2.39318E-26
8.24724E-01 2.32904E-26
8.28030E-01 2.26636E-26
8.31310E-01 2.20513E-26
8.34565E-01 2.14529E-26
8.37795E-01 2.08682E-26
8.40999E-01 2.02968E-26
8.44177E-01 1.97386E-26
8.47329E-01 1.91930E-26
8.50455E-01 1.86599E-26
8.53553E-01 1.81389E-26
8.56625E-01 1.76298E-26
8.59670E-01 1.71323E-26
8.62687E-01 1.66462E-26
8.65677E-01 1.61711E-26
8.68639E-01 1.57069E-26
8.71572E-01 1.52532E-26
8.74478E-01 1.48099E-26
8.77355E-01 1.43768E-26
8.80203E-01 1.39535E-26
8.83022E-01 1.35399E-26
8.85812E-01 1.31358E-26
8.88573E-01 1.27409E-26
8.91304E-01 1.23552E-26
8.94005E-01 1.19783E-26
8.96677E-01 1.16100E-26
8.99318E-01 1.12503E-26
9.01928E-01 1.08989E-26
9.04508E-01 1.05557E-26
9.07058E-01 1.02204E-26
9.09576E-01 9.89301E-27
9.12063E-01 9.57323E-27
9.14519E-01 9.26096E-27
9.16943E-01 8.95604E-27
9.19335E-01 8.65834E-27
9.21696E-01 8.36770E-27
9.24024E-01 8.08398E-27
9.26320E-01 7.80706E-27
9.28584E-01 7.53681E-27
9.30815E-01 7.27309E-27
9.33013E-01 7.01578E-27
9.35178E-01 6.76476E-27
9.37310E-01 6.51992E-27
9.39409E-01 6.28115E-27
9.41474E-01 6.04832E-27
9.43505E-01 5.82134E-27
9.45503E-01 5.60010E-27
9.47467E-01 5.38450E-27
9.49397E-01 5.17444E-27
9.51293E-01 4.96983E-27
9.53154E-01 4.77058E-27
9.54981E-01 4.57659E-27
9.56773E-01 4.38778E-27
9.58530E-01 4.20406E-27
9.60252E-01 4.02536E-27
9.61940E-01 3.85158E-27
9.63592E-01 3.68266E-27
9.65209E-01 3.51853E-27
9.66790E-01 3.35910E-27
9.68336E-01 3.20431E-27
9.69846E-01 3.05409E-27
9.71321E-01 2.90838E-27
9.72759E-01 2.76711E-27
9.74162E-01 2.63022E-27
9.75528E-01 2.49765E-27
9.76858E-01 2.36935E-27
9.78152E-01 2.24525E-27
9.79410E-01 2.12531E-27
9.80631E-01 2.00947E-27
9.81815E-01 1.89769E-27
9.82963E-01 1.78992E-27
9.84074E-01 1.68610E-27
9.85148E-01 1.58620E-27
9.86185E-01 1.49018E-27
9.87185E-01 1.39799E-27
9.88148E-01 1.30959E-27
9.89074E-01 1.22495E-27
9.89962E-01 1.14403E-27
9.90814E-01 1.06680E-27
9.91627E-01 9.93225E-28
9.92404E-01 9.23273E-28
9.93143E-01 8.56915E-28
9.93844E-01 7.94125E-28
9.94508E-01 7.34875E-28
9.95134E-01 6.79141E-28
9.95722E-01 6.26900E-28
9.96273E-01 5.78130E-28
9.96786E-01 5.32811E-28
9.97261E-01 4.90924E-28
9.97698E-01 4.52451E-28
9.98097E-01 4.17377E-28
9.98459E-01 3.85686E-28
9.98782E-01 3.57367E-28
9.99067E-01 3.32407E-28
9.99315E-01 3.10795E-28
9.99524E-01 2.92524E-28
9.99695E-01 2.77585E-28
9.99829E-01 2.65972E-28
9.99924E-01 2.57680E-28
9.99981E-01 2.52707E-28
1.00000E+00 2.51049E-28
