 #
 # Subroutine ELSEPA. Elastic scattering of electrons and positrons
 #                    by neutral atoms and positive ions
 #
 # Projectile: positron
 # Kinetic energy = 5.00000E+06 eV = 1.83747E+05 a.u.
 #
 # WARNING: High-energy factorization with free-atom DF screening.
 #          Absorption, polarization and exchange corrections are
 #          switched off.
 #          Phase shifts are calculated for the bare nucleus.
 #          Scattering amplitudes are not evaluated.
 #
 # Element: Ho,  Z =  67,  atomic weight = 1.64930E+02 g/mol
 #
 # Nuclear model: Fermi distribution
 #                Average radius = 5.86792E-13 cm
 #                Skin thickness = 5.46000E-14 cm
 #
 # Number of electrons = 67
 #
 # Total elastic cross section = 7.15078E-18 cm**2 = 2.55359E-01 a0**2
 # 1st transport cross section = 1.84823E-22 cm**2 = 6.60015E-06 a0**2
 # 2nd transport cross section = 5.31830E-22 cm**2 = 1.89920E-05 a0**2
 #
 #
 # Differential cross section:                       MU=(1-COS(THETA))/2
 #
 #  THETA        MU          DCS          DCS        Sherman      error
 #  (deg)                 (cm**2/sr)   (a0**2/sr)    function
 #----------------------------------------------------------------------
0.00000E+00 2.28494E-12
7.61557E-13 2.28491E-12
1.18994E-12 2.28489E-12
1.71346E-12 2.28486E-12
2.33225E-12 2.28484E-12
3.04617E-12 2.28481E-12
3.85530E-12 2.28477E-12
4.75964E-12 2.28473E-12
5.75917E-12 2.28469E-12
6.85391E-12 2.28465E-12
8.04379E-12 2.28460E-12
9.32893E-12 2.28454E-12
1.07092E-11 2.28448E-12
1.21847E-11 2.28442E-12
1.37554E-11 2.28436E-12
1.54213E-11 2.28429E-12
1.71823E-11 2.28421E-12
1.90386E-11 2.28413E-12
2.09900E-11 2.28405E-12
2.30367E-11 2.28397E-12
2.51785E-11 2.28388E-12
2.74156E-11 2.28378E-12
2.97478E-11 2.28369E-12
3.21752E-11 2.28359E-12
3.46979E-11 2.28348E-12
3.73157E-11 2.28337E-12
4.00286E-11 2.28326E-12
4.28368E-11 2.28314E-12
4.57402E-11 2.28302E-12
4.87388E-11 2.28290E-12
5.18325E-11 2.28277E-12
5.50215E-11 2.28263E-12
5.83057E-11 2.28250E-12
6.16850E-11 2.28236E-12
6.51595E-11 2.28221E-12
6.87293E-11 2.28206E-12
7.23943E-11 2.28191E-12
7.61544E-11 2.28175E-12
1.18991E-10 2.27998E-12
1.71347E-10 2.27781E-12
2.33223E-10 2.27525E-12
3.04617E-10 2.27231E-12
3.85531E-10 2.26898E-12
4.75965E-10 2.26527E-12
5.75917E-10 2.26119E-12
6.85389E-10 2.25673E-12
8.04380E-10 2.25190E-12
9.32891E-10 2.24670E-12
1.07092E-09 2.24114E-12
1.21847E-09 2.23522E-12
1.37554E-09 2.22896E-12
1.54213E-09 2.22234E-12
1.71823E-09 2.21538E-12
1.90386E-09 2.20809E-12
2.09900E-09 2.20047E-12
2.30367E-09 2.19252E-12
2.51785E-09 2.18426E-12
2.74156E-09 2.17568E-12
2.97478E-09 2.16680E-12
3.21752E-09 2.15762E-12
3.46978E-09 2.14816E-12
3.73156E-09 2.13841E-12
4.00286E-09 2.12838E-12
4.28368E-09 2.11809E-12
4.57402E-09 2.10754E-12
4.87388E-09 2.09673E-12
5.18326E-09 2.08568E-12
5.50215E-09 2.07440E-12
5.83057E-09 2.06288E-12
6.16850E-09 2.05115E-12
6.51596E-09 2.03920E-12
6.87293E-09 2.02705E-12
7.23942E-09 2.01471E-12
7.61544E-09 2.00218E-12
1.18991E-08 1.86841E-12
1.71347E-08 1.72489E-12
2.33223E-08 1.57884E-12
3.04617E-08 1.43610E-12
3.85531E-08 1.30089E-12
4.75965E-08 1.17585E-12
5.75917E-08 1.06231E-12
6.85389E-08 9.60594E-13
8.04380E-08 8.70316E-13
9.32891E-08 7.90662E-13
1.07092E-07 7.20594E-13
1.21847E-07 6.59001E-13
1.37554E-07 6.04791E-13
1.54213E-07 5.56950E-13
1.71823E-07 5.14571E-13
1.90386E-07 4.76861E-13
2.09900E-07 4.43139E-13
2.30367E-07 4.12828E-13
2.51785E-07 3.85443E-13
2.74156E-07 3.60580E-13
2.97478E-07 3.37902E-13
3.21752E-07 3.17127E-13
3.46978E-07 2.98023E-13
3.73156E-07 2.80394E-13
4.00286E-07 2.64077E-13
4.28368E-07 2.48934E-13
4.57402E-07 2.34849E-13
4.87388E-07 2.21723E-13
5.18325E-07 2.09470E-13
5.50215E-07 1.98015E-13
5.83057E-07 1.87295E-13
6.16850E-07 1.77252E-13
6.51596E-07 1.67835E-13
6.87293E-07 1.58999E-13
7.23942E-07 1.50703E-13
7.61543E-07 1.42910E-13
1.18991E-06 8.62946E-14
1.71347E-06 5.46905E-14
2.33223E-06 3.62495E-14
3.04617E-06 2.49392E-14
3.85531E-06 1.76714E-14
4.75964E-06 1.28194E-14
5.75916E-06 9.48420E-15
6.85388E-06 7.13984E-15
8.04378E-06 5.46230E-15
9.32888E-06 4.24321E-15
1.07092E-05 3.34448E-15
1.21846E-05 2.67257E-15
1.37553E-05 2.16323E-15
1.54212E-05 1.77179E-15
1.71822E-05 1.46692E-15
1.90385E-05 1.22642E-15
2.09899E-05 1.03434E-15
2.30365E-05 8.79205E-16
2.51783E-05 7.52601E-16
2.74153E-05 6.48292E-16
2.97475E-05 5.61613E-16
3.21749E-05 4.89025E-16
3.46974E-05 4.27813E-16
3.73152E-05 3.75871E-16
4.00281E-05 3.31545E-16
4.28362E-05 2.93526E-16
4.57395E-05 2.60761E-16
4.87380E-05 2.32405E-16
5.18317E-05 2.07766E-16
5.50205E-05 1.86277E-16
5.83045E-05 1.67471E-16
6.16838E-05 1.50960E-16
6.51582E-05 1.36419E-16
6.87277E-05 1.23575E-16
7.23925E-05 1.12199E-16
7.61524E-05 1.02095E-16
9.21439E-05 7.14393E-17
1.09658E-04 5.14605E-17
1.28695E-04 3.80037E-17
1.49255E-04 2.86752E-17
1.71338E-04 2.20439E-17
1.94942E-04 1.72251E-17
2.20070E-04 1.36548E-17
2.46720E-04 1.09637E-17
2.74892E-04 8.90407E-18
3.04586E-04 7.30591E-18
3.35803E-04 6.05042E-18
3.68542E-04 5.05302E-18
4.02802E-04 4.25257E-18
4.38585E-04 3.60417E-18
4.75889E-04 3.07445E-18
5.14715E-04 2.63830E-18
5.55063E-04 2.27657E-18
5.96931E-04 1.97456E-18
6.40321E-04 1.72084E-18
6.85233E-04 1.50645E-18
7.31665E-04 1.32431E-18
7.79618E-04 1.16879E-18
8.29092E-04 1.03535E-18
8.80086E-04 9.20361E-19
9.32601E-04 8.20845E-19
9.86636E-04 7.34376E-19
1.04219E-03 6.58961E-19
1.09927E-03 5.92952E-19
1.15786E-03 5.34978E-19
1.21797E-03 4.83897E-19
1.27961E-03 4.38751E-19
1.34276E-03 3.98734E-19
1.40743E-03 3.63163E-19
1.47362E-03 3.31461E-19
1.54133E-03 3.03133E-19
1.61056E-03 2.77760E-19
1.68131E-03 2.54980E-19
1.75357E-03 2.34481E-19
1.82735E-03 2.15996E-19
1.90265E-03 1.99292E-19
1.97947E-03 1.84167E-19
2.05780E-03 1.70447E-19
2.13765E-03 1.57977E-19
2.21902E-03 1.46623E-19
2.30190E-03 1.36269E-19
2.38630E-03 1.26810E-19
2.47222E-03 1.18155E-19
2.55965E-03 1.10224E-19
2.64859E-03 1.02945E-19
2.73905E-03 9.62557E-20
2.83103E-03 9.00990E-20
2.92452E-03 8.44252E-20
3.01952E-03 7.91895E-20
3.11604E-03 7.43521E-20
3.21407E-03 6.98772E-20
3.31362E-03 6.57328E-20
3.41468E-03 6.18899E-20
3.51725E-03 5.83228E-20
3.62133E-03 5.50080E-20
3.72692E-03 5.19245E-20
3.83403E-03 4.90533E-20
3.94265E-03 4.63768E-20
4.05278E-03 4.38798E-20
4.16442E-03 4.15479E-20
4.27757E-03 3.93681E-20
4.39223E-03 3.73289E-20
4.50840E-03 3.54193E-20
4.62608E-03 3.36298E-20
4.74527E-03 3.19514E-20
4.86597E-03 3.03758E-20
4.98817E-03 2.88958E-20
5.11188E-03 2.75043E-20
5.23711E-03 2.61952E-20
5.36383E-03 2.49627E-20
5.49207E-03 2.38014E-20
5.62181E-03 2.27066E-20
5.75306E-03 2.16736E-20
5.88581E-03 2.06984E-20
6.02007E-03 1.97772E-20
6.15583E-03 1.89063E-20
6.29310E-03 1.80826E-20
6.43187E-03 1.73031E-20
6.57214E-03 1.65648E-20
6.71392E-03 1.58653E-20
6.85720E-03 1.52021E-20
7.00198E-03 1.45730E-20
7.14827E-03 1.39759E-20
7.29605E-03 1.34088E-20
7.44534E-03 1.28701E-20
7.59612E-03 1.23580E-20
7.97965E-03 1.11842E-20
8.37255E-03 1.01458E-20
8.77480E-03 9.22434E-21
9.18641E-03 8.40453E-21
9.60736E-03 7.67324E-21
1.00376E-02 7.01927E-21
1.04773E-02 6.43304E-21
1.09262E-02 5.90635E-21
1.13844E-02 5.43210E-21
1.18520E-02 5.00417E-21
1.23288E-02 4.61727E-21
1.28150E-02 4.26677E-21
1.33104E-02 3.94866E-21
1.38150E-02 3.65943E-21
1.43290E-02 3.39600E-21
1.48521E-02 3.15567E-21
1.53845E-02 2.93606E-21
1.59262E-02 2.73507E-21
1.64770E-02 2.55084E-21
1.70371E-02 2.38174E-21
1.76063E-02 2.22631E-21
1.81848E-02 2.08324E-21
1.87724E-02 1.95139E-21
1.93692E-02 1.82971E-21
1.99751E-02 1.71728E-21
2.05901E-02 1.61328E-21
2.12143E-02 1.51696E-21
2.18476E-02 1.42766E-21
2.24900E-02 1.34477E-21
2.31415E-02 1.26776E-21
2.38021E-02 1.19613E-21
2.44717E-02 1.12943E-21
2.51504E-02 1.06728E-21
2.58382E-02 1.00930E-21
2.65349E-02 9.55160E-22
2.72407E-02 9.04568E-22
2.79555E-02 8.57247E-22
2.86793E-02 8.12949E-22
2.94120E-02 7.71445E-22
3.01537E-02 7.32528E-22
3.09043E-02 6.96008E-22
3.16639E-02 6.61711E-22
3.24324E-02 6.29477E-22
3.32098E-02 5.99161E-22
3.39961E-02 5.70627E-22
3.47912E-02 5.43753E-22
3.55952E-02 5.18423E-22
3.64081E-02 4.94535E-22
3.72297E-02 4.71991E-22
3.80602E-02 4.50701E-22
3.88995E-02 4.30584E-22
3.97476E-02 4.11564E-22
4.06044E-02 3.93569E-22
4.14700E-02 3.76536E-22
4.23443E-02 3.60402E-22
4.32273E-02 3.45112E-22
4.41190E-02 3.30615E-22
4.50194E-02 3.16861E-22
4.59284E-02 3.03806E-22
4.68461E-02 2.91407E-22
4.87074E-02 2.68427E-22
5.06030E-02 2.47639E-22
5.25328E-02 2.28799E-22
5.44967E-02 2.11694E-22
5.64946E-02 1.96137E-22
5.85262E-02 1.81964E-22
6.05914E-02 1.69030E-22
6.26901E-02 1.57209E-22
6.48222E-02 1.46388E-22
6.69873E-02 1.36469E-22
6.91854E-02 1.27364E-22
7.14163E-02 1.18994E-22
7.36799E-02 1.11290E-22
7.59760E-02 1.04190E-22
7.83043E-02 9.76377E-23
8.06647E-02 9.15842E-23
8.30571E-02 8.59851E-23
8.54812E-02 8.08002E-23
8.79369E-02 7.59937E-23
9.04240E-02 7.15331E-23
9.29422E-02 6.73893E-23
9.54915E-02 6.35359E-23
9.80716E-02 5.99489E-23
1.00682E-01 5.66069E-23
1.03323E-01 5.34902E-23
1.05995E-01 5.05811E-23
1.08696E-01 4.78632E-23
1.11427E-01 4.53218E-23
1.14188E-01 4.29435E-23
1.16978E-01 4.07160E-23
1.19797E-01 3.86281E-23
1.22645E-01 3.66695E-23
1.25522E-01 3.48309E-23
1.28428E-01 3.31036E-23
1.31361E-01 3.14797E-23
1.34323E-01 2.99519E-23
1.37313E-01 2.85136E-23
1.40330E-01 2.71586E-23
1.43375E-01 2.58813E-23
1.46447E-01 2.46764E-23
1.49545E-01 2.35391E-23
1.52671E-01 2.24650E-23
1.55823E-01 2.14500E-23
1.59001E-01 2.04901E-23
1.62205E-01 1.95820E-23
1.65435E-01 1.87223E-23
1.68690E-01 1.79081E-23
1.71970E-01 1.71364E-23
1.75276E-01 1.64048E-23
1.78606E-01 1.57107E-23
1.81961E-01 1.50518E-23
1.85340E-01 1.44262E-23
1.88743E-01 1.38318E-23
1.92169E-01 1.32668E-23
1.95619E-01 1.27294E-23
1.99092E-01 1.22182E-23
2.02589E-01 1.17316E-23
2.06107E-01 1.12682E-23
2.09649E-01 1.08268E-23
2.13212E-01 1.04060E-23
2.16797E-01 1.00049E-23
2.20404E-01 9.62219E-24
2.24032E-01 9.25701E-24
2.27680E-01 8.90840E-24
2.31350E-01 8.57547E-24
2.35040E-01 8.25739E-24
2.38751E-01 7.95340E-24
2.42481E-01 7.66275E-24
2.46231E-01 7.38477E-24
2.50000E-01 7.11880E-24
2.53788E-01 6.86423E-24
2.57595E-01 6.62050E-24
2.61421E-01 6.38706E-24
2.65264E-01 6.16341E-24
2.69126E-01 5.94906E-24
2.73005E-01 5.74356E-24
2.76901E-01 5.54648E-24
2.80814E-01 5.35742E-24
2.84744E-01 5.17599E-24
2.88691E-01 5.00184E-24
2.92653E-01 4.83463E-24
2.96632E-01 4.67402E-24
3.00625E-01 4.51972E-24
3.04634E-01 4.37144E-24
3.08658E-01 4.22889E-24
3.12697E-01 4.09182E-24
3.16749E-01 3.95999E-24
3.20816E-01 3.83316E-24
3.24896E-01 3.71111E-24
3.28990E-01 3.59362E-24
3.33097E-01 3.48050E-24
3.37216E-01 3.37156E-24
3.41348E-01 3.26662E-24
3.45492E-01 3.16551E-24
3.49647E-01 3.06805E-24
3.53814E-01 2.97410E-24
3.57992E-01 2.88352E-24
3.62181E-01 2.79616E-24
3.66381E-01 2.71188E-24
3.70590E-01 2.63056E-24
3.74810E-01 2.55207E-24
3.79039E-01 2.47631E-24
3.83277E-01 2.40316E-24
3.87524E-01 2.33252E-24
3.91780E-01 2.26429E-24
3.96044E-01 2.19836E-24
4.00316E-01 2.13466E-24
4.04596E-01 2.07308E-24
4.08882E-01 2.01356E-24
4.13176E-01 1.95600E-24
4.17476E-01 1.90034E-24
4.21783E-01 1.84650E-24
4.26095E-01 1.79442E-24
4.30413E-01 1.74401E-24
4.34737E-01 1.69523E-24
4.39065E-01 1.64801E-24
4.43398E-01 1.60229E-24
4.47736E-01 1.55802E-24
4.52077E-01 1.51515E-24
4.56422E-01 1.47361E-24
4.60770E-01 1.43337E-24
4.65122E-01 1.39438E-24
4.69476E-01 1.35659E-24
4.73832E-01 1.31995E-24
4.78190E-01 1.28444E-24
4.82550E-01 1.25000E-24
4.86912E-01 1.21660E-24
4.91274E-01 1.18421E-24
4.95637E-01 1.15279E-24
5.00000E-01 1.12230E-24
5.04363E-01 1.09271E-24
5.08726E-01 1.06399E-24
5.13088E-01 1.03612E-24
5.17450E-01 1.00906E-24
5.21810E-01 9.82785E-25
5.26168E-01 9.57270E-25
5.30524E-01 9.32488E-25
5.34878E-01 9.08416E-25
5.39230E-01 8.85030E-25
5.43578E-01 8.62308E-25
5.47923E-01 8.40227E-25
5.52264E-01 8.18766E-25
5.56602E-01 7.97907E-25
5.60935E-01 7.77628E-25
5.65263E-01 7.57912E-25
5.69587E-01 7.38740E-25
5.73905E-01 7.20095E-25
5.78217E-01 7.01961E-25
5.82524E-01 6.84321E-25
5.86824E-01 6.67159E-25
5.91118E-01 6.50462E-25
5.95404E-01 6.34214E-25
5.99684E-01 6.18401E-25
6.03956E-01 6.03010E-25
6.08220E-01 5.88029E-25
6.12476E-01 5.73444E-25
6.16723E-01 5.59243E-25
6.20961E-01 5.45416E-25
6.25190E-01 5.31950E-25
6.29410E-01 5.18835E-25
6.33619E-01 5.06061E-25
6.37819E-01 4.93617E-25
6.42008E-01 4.81493E-25
6.46186E-01 4.69681E-25
6.50353E-01 4.58170E-25
6.54508E-01 4.46953E-25
6.58652E-01 4.36021E-25
6.62784E-01 4.25364E-25
6.66903E-01 4.14977E-25
6.71010E-01 4.04850E-25
6.75104E-01 3.94977E-25
6.79184E-01 3.85349E-25
6.83251E-01 3.75961E-25
6.87303E-01 3.66806E-25
6.91342E-01 3.57876E-25
6.95366E-01 3.49166E-25
6.99375E-01 3.40670E-25
7.03368E-01 3.32381E-25
7.07347E-01 3.24294E-25
7.11309E-01 3.16404E-25
7.15256E-01 3.08705E-25
7.19186E-01 3.01191E-25
7.23099E-01 2.93859E-25
7.26995E-01 2.86702E-25
7.30874E-01 2.79717E-25
7.34736E-01 2.72898E-25
7.38579E-01 2.66242E-25
7.42405E-01 2.59743E-25
7.46212E-01 2.53398E-25
7.50000E-01 2.47203E-25
7.53769E-01 2.41154E-25
7.57519E-01 2.35247E-25
7.61249E-01 2.29478E-25
7.64960E-01 2.23844E-25
7.68650E-01 2.18342E-25
7.72320E-01 2.12967E-25
7.75968E-01 2.07717E-25
7.79596E-01 2.02588E-25
7.83203E-01 1.97579E-25
7.86788E-01 1.92684E-25
7.90351E-01 1.87902E-25
7.93893E-01 1.83230E-25
7.97411E-01 1.78666E-25
8.00908E-01 1.74205E-25
8.04381E-01 1.69847E-25
8.07831E-01 1.65588E-25
8.11257E-01 1.61426E-25
8.14660E-01 1.57358E-25
8.18039E-01 1.53383E-25
8.21394E-01 1.49498E-25
8.24724E-01 1.45701E-25
8.28030E-01 1.41990E-25
8.31310E-01 1.38362E-25
8.34565E-01 1.34817E-25
8.37795E-01 1.31351E-25
8.40999E-01 1.27964E-25
8.44177E-01 1.24653E-25
8.47329E-01 1.21416E-25
8.50455E-01 1.18253E-25
8.53553E-01 1.15160E-25
8.56625E-01 1.12138E-25
8.59670E-01 1.09183E-25
8.62687E-01 1.06295E-25
8.65677E-01 1.03471E-25
8.68639E-01 1.00711E-25
8.71572E-01 9.80139E-26
8.74478E-01 9.53771E-26
8.77355E-01 9.27998E-26
8.80203E-01 9.02807E-26
8.83022E-01 8.78185E-26
8.85812E-01 8.54120E-26
8.88573E-01 8.30600E-26
8.91304E-01 8.07614E-26
8.94005E-01 7.85151E-26
8.96677E-01 7.63200E-26
8.99318E-01 7.41749E-26
9.01928E-01 7.20789E-26
9.04508E-01 7.00310E-26
9.07058E-01 6.80301E-26
9.09576E-01 6.60755E-26
9.12063E-01 6.41660E-26
9.14519E-01 6.23009E-26
9.16943E-01 6.04792E-26
9.19335E-01 5.87001E-26
9.21696E-01 5.69628E-26
9.24024E-01 5.52665E-26
9.26320E-01 5.36104E-26
9.28584E-01 5.19938E-26
9.30815E-01 5.04158E-26
9.33013E-01 4.88759E-26
9.35178E-01 4.73732E-26
9.37310E-01 4.59072E-26
9.39409E-01 4.44771E-26
9.41474E-01 4.30824E-26
9.43505E-01 4.17223E-26
9.45503E-01 4.03964E-26
9.47467E-01 3.91040E-26
9.49397E-01 3.78445E-26
9.51293E-01 3.66174E-26
9.53154E-01 3.54222E-26
9.54981E-01 3.42583E-26
9.56773E-01 3.31252E-26
9.58530E-01 3.20225E-26
9.60252E-01 3.09496E-26
9.61940E-01 2.99062E-26
9.63592E-01 2.88917E-26
9.65209E-01 2.79058E-26
9.66790E-01 2.69479E-26
9.68336E-01 2.60178E-26
9.69846E-01 2.51149E-26
9.71321E-01 2.42390E-26
9.72759E-01 2.33896E-26
9.74162E-01 2.25665E-26
9.75528E-01 2.17691E-26
9.76858E-01 2.09973E-26
9.78152E-01 2.02508E-26
9.79410E-01 1.95290E-26
9.80631E-01 1.88319E-26
9.81815E-01 1.81591E-26
9.82963E-01 1.75103E-26
9.84074E-01 1.68853E-26
9.85148E-01 1.62838E-26
9.86185E-01 1.57055E-26
9.87185E-01 1.51502E-26
9.88148E-01 1.46178E-26
9.89074E-01 1.41079E-26
9.89962E-01 1.36203E-26
9.90814E-01 1.31550E-26
9.91627E-01 1.27116E-26
9.92404E-01 1.22900E-26
9.93143E-01 1.18900E-26
9.93844E-01 1.15115E-26
9.94508E-01 1.11543E-26
9.95134E-01 1.08183E-26
9.95722E-01 1.05033E-26
9.96273E-01 1.02092E-26
9.96786E-01 9.93596E-27
9.97261E-01 9.68335E-27
9.97698E-01 9.45132E-27
9.98097E-01 9.23978E-27
9.98459E-01 9.04864E-27
9.98782E-01 8.87782E-27
9.99067E-01 8.72726E-27
9.99315E-01 8.59690E-27
9.99524E-01 8.48668E-27
9.99695E-01 8.39655E-27
9.99829E-01 8.32650E-27
9.99924E-01 8.27648E-27
9.99981E-01 8.24647E-27
1.00000E+00 8.23647E-27
