 #
 # Subroutine ELSEPA. Elastic scattering of electrons and positrons
 #                    by neutral atoms and positive ions
 #
 # Projectile: positron
 # Kinetic energy = 3.50000E+06 eV = 1.28623E+05 a.u.
 #
 # WARNING: High-energy factorization with free-atom DF screening.
 #          Absorption, polarization and exchange corrections are
 #          switched off.
 #          Phase shifts are calculated for the bare nucleus.
 #          Scattering amplitudes are not evaluated.
 #
 # Element: Ho,  Z =  67,  atomic weight = 1.64930E+02 g/mol
 #
 # Nuclear model: Fermi distribution
 #                Average radius = 5.86792E-13 cm
 #                Skin thickness = 5.46000E-14 cm
 #
 # Number of electrons = 67
 #
 # Total elastic cross section = 7.19046E-18 cm**2 = 2.56776E-01 a0**2
 # 1st transport cross section = 3.30906E-22 cm**2 = 1.18169E-05 a0**2
 # 2nd transport cross section = 9.48699E-22 cm**2 = 3.38787E-05 a0**2
 #
 #
 # Differential cross section:                       MU=(1-COS(THETA))/2
 #
 #  THETA        MU          DCS          DCS        Sherman      error
 #  (deg)                 (cm**2/sr)   (a0**2/sr)    function
 #----------------------------------------------------------------------
0.00000E+00 1.21037E-12
7.61557E-13 1.21036E-12
1.18994E-12 1.21036E-12
1.71346E-12 1.21035E-12
2.33225E-12 1.21034E-12
3.04617E-12 1.21033E-12
3.85530E-12 1.21033E-12
4.75964E-12 1.21031E-12
5.75917E-12 1.21030E-12
6.85391E-12 1.21029E-12
8.04379E-12 1.21028E-12
9.32893E-12 1.21026E-12
1.07092E-11 1.21024E-12
1.21847E-11 1.21023E-12
1.37554E-11 1.21021E-12
1.54213E-11 1.21019E-12
1.71823E-11 1.21017E-12
1.90386E-11 1.21015E-12
2.09900E-11 1.21012E-12
2.30367E-11 1.21010E-12
2.51785E-11 1.21007E-12
2.74156E-11 1.21005E-12
2.97478E-11 1.21002E-12
3.21752E-11 1.20999E-12
3.46979E-11 1.20996E-12
3.73157E-11 1.20993E-12
4.00286E-11 1.20990E-12
4.28368E-11 1.20987E-12
4.57402E-11 1.20983E-12
4.87388E-11 1.20980E-12
5.18325E-11 1.20976E-12
5.50215E-11 1.20973E-12
5.83057E-11 1.20969E-12
6.16850E-11 1.20965E-12
6.51595E-11 1.20961E-12
6.87293E-11 1.20957E-12
7.23943E-11 1.20952E-12
7.61544E-11 1.20948E-12
1.18991E-10 1.20898E-12
1.71347E-10 1.20838E-12
2.33223E-10 1.20766E-12
3.04617E-10 1.20684E-12
3.85531E-10 1.20590E-12
4.75965E-10 1.20486E-12
5.75917E-10 1.20372E-12
6.85389E-10 1.20246E-12
8.04380E-10 1.20110E-12
9.32891E-10 1.19963E-12
1.07092E-09 1.19806E-12
1.21847E-09 1.19639E-12
1.37554E-09 1.19461E-12
1.54213E-09 1.19273E-12
1.71823E-09 1.19074E-12
1.90386E-09 1.18866E-12
2.09900E-09 1.18647E-12
2.30367E-09 1.18419E-12
2.51785E-09 1.18180E-12
2.74156E-09 1.17932E-12
2.97478E-09 1.17675E-12
3.21752E-09 1.17408E-12
3.46978E-09 1.17131E-12
3.73156E-09 1.16846E-12
4.00286E-09 1.16551E-12
4.28368E-09 1.16247E-12
4.57402E-09 1.15934E-12
4.87388E-09 1.15612E-12
5.18326E-09 1.15282E-12
5.50215E-09 1.14944E-12
5.83057E-09 1.14597E-12
6.16850E-09 1.14242E-12
6.51596E-09 1.13878E-12
6.87293E-09 1.13507E-12
7.23942E-09 1.13128E-12
7.61544E-09 1.12742E-12
1.18991E-08 1.08493E-12
1.71347E-08 1.03674E-12
2.33223E-08 9.84170E-13
3.04617E-08 9.29211E-13
3.85531E-08 8.73216E-13
4.75965E-08 8.17306E-13
5.75917E-08 7.62554E-13
6.85389E-08 7.10233E-13
8.04380E-08 6.60427E-13
9.32891E-08 6.13516E-13
1.07092E-07 5.69945E-13
1.21847E-07 5.29790E-13
1.37554E-07 4.92757E-13
1.54213E-07 4.58763E-13
1.71823E-07 4.27904E-13
1.90386E-07 3.99734E-13
2.09900E-07 3.74015E-13
2.30367E-07 3.50589E-13
2.51785E-07 3.29312E-13
2.74156E-07 3.09849E-13
2.97478E-07 2.92040E-13
3.21752E-07 2.75746E-13
3.46978E-07 2.60780E-13
3.73156E-07 2.46994E-13
4.00286E-07 2.34277E-13
4.28368E-07 2.22494E-13
4.57402E-07 2.11557E-13
4.87388E-07 2.01391E-13
5.18325E-07 1.91910E-13
5.50215E-07 1.83017E-13
5.83057E-07 1.74694E-13
6.16850E-07 1.66895E-13
6.51596E-07 1.59531E-13
6.87293E-07 1.52580E-13
7.23942E-07 1.46032E-13
7.61543E-07 1.39856E-13
1.18991E-06 9.25780E-14
1.71347E-06 6.22564E-14
2.33223E-06 4.39661E-14
3.04617E-06 3.14293E-14
3.85531E-06 2.30691E-14
4.75964E-06 1.73598E-14
5.75916E-06 1.33161E-14
6.85388E-06 1.03126E-14
8.04378E-06 8.11537E-15
9.32888E-06 6.46981E-15
1.07092E-05 5.20215E-15
1.21846E-05 4.21741E-15
1.37553E-05 3.45346E-15
1.54212E-05 2.85296E-15
1.71822E-05 2.37209E-15
1.90385E-05 1.98755E-15
2.09899E-05 1.68021E-15
2.30365E-05 1.43018E-15
2.51783E-05 1.22461E-15
2.74153E-05 1.05537E-15
2.97475E-05 9.15026E-16
3.21749E-05 7.97632E-16
3.46974E-05 6.99126E-16
3.73152E-05 6.15776E-16
4.00281E-05 5.44676E-16
4.28362E-05 4.83695E-16
4.57395E-05 4.31265E-16
4.87380E-05 3.85943E-16
5.18317E-05 3.46520E-16
5.50205E-05 3.11995E-16
5.83045E-05 2.81730E-16
6.16838E-05 2.55095E-16
6.51582E-05 2.31495E-16
6.87277E-05 2.10545E-16
7.23925E-05 1.91924E-16
7.61524E-05 1.75316E-16
9.21439E-05 1.24227E-16
1.09658E-04 9.03779E-17
1.28695E-04 6.72465E-17
1.49255E-04 5.09938E-17
1.71338E-04 3.93738E-17
1.94942E-04 3.08685E-17
2.20070E-04 2.45482E-17
2.46720E-04 1.97694E-17
2.74892E-04 1.60925E-17
3.04586E-04 1.32341E-17
3.35803E-04 1.09852E-17
3.68542E-04 9.19496E-18
4.02802E-04 7.75309E-18
4.38585E-04 6.58401E-18
4.75889E-04 5.62774E-18
5.14715E-04 4.83835E-18
5.55063E-04 4.18229E-18
5.96931E-04 3.63394E-18
6.40321E-04 3.17266E-18
6.85233E-04 2.78170E-18
7.31665E-04 2.44914E-18
7.79618E-04 2.16482E-18
8.29092E-04 1.92045E-18
8.80086E-04 1.70937E-18
9.32601E-04 1.52648E-18
9.86636E-04 1.36737E-18
1.04219E-03 1.22832E-18
1.09927E-03 1.10642E-18
1.15786E-03 9.99243E-19
1.21797E-03 9.04705E-19
1.27961E-03 8.20977E-19
1.34276E-03 7.46694E-19
1.40743E-03 6.80606E-19
1.47362E-03 6.21630E-19
1.54133E-03 5.68863E-19
1.61056E-03 5.21565E-19
1.68131E-03 4.79067E-19
1.75357E-03 4.40780E-19
1.82735E-03 4.06226E-19
1.90265E-03 3.74984E-19
1.97947E-03 3.46678E-19
2.05780E-03 3.20973E-19
2.13765E-03 2.97601E-19
2.21902E-03 2.76312E-19
2.30190E-03 2.56884E-19
2.38630E-03 2.39124E-19
2.47222E-03 2.22869E-19
2.55965E-03 2.07969E-19
2.64859E-03 1.94285E-19
2.73905E-03 1.81704E-19
2.83103E-03 1.70123E-19
2.92452E-03 1.59446E-19
3.01952E-03 1.49589E-19
3.11604E-03 1.40481E-19
3.21407E-03 1.32053E-19
3.31362E-03 1.24244E-19
3.41468E-03 1.17002E-19
3.51725E-03 1.10278E-19
3.62133E-03 1.04029E-19
3.72692E-03 9.82141E-20
3.83403E-03 9.27983E-20
3.94265E-03 8.77495E-20
4.05278E-03 8.30381E-20
4.16442E-03 7.86370E-20
4.27757E-03 7.45227E-20
4.39223E-03 7.06731E-20
4.50840E-03 6.70677E-20
4.62608E-03 6.36882E-20
4.74527E-03 6.05182E-20
4.86597E-03 5.75422E-20
4.98817E-03 5.47459E-20
5.11188E-03 5.21167E-20
5.23711E-03 4.96429E-20
5.36383E-03 4.73134E-20
5.49207E-03 4.51183E-20
5.62181E-03 4.30485E-20
5.75306E-03 4.10956E-20
5.88581E-03 3.92514E-20
6.02007E-03 3.75091E-20
6.15583E-03 3.58620E-20
6.29310E-03 3.43039E-20
6.43187E-03 3.28289E-20
6.57214E-03 3.14321E-20
6.71392E-03 3.01084E-20
6.85720E-03 2.88532E-20
7.00198E-03 2.76624E-20
7.14827E-03 2.65321E-20
7.29605E-03 2.54587E-20
7.44534E-03 2.44386E-20
7.59612E-03 2.34689E-20
7.97965E-03 2.12458E-20
8.37255E-03 1.92784E-20
8.77480E-03 1.75323E-20
9.18641E-03 1.59783E-20
9.60736E-03 1.45917E-20
1.00376E-02 1.33514E-20
1.04773E-02 1.22394E-20
1.09262E-02 1.12400E-20
1.13844E-02 1.03398E-20
1.18520E-02 9.52743E-21
1.23288E-02 8.79273E-21
1.28150E-02 8.12701E-21
1.33104E-02 7.52267E-21
1.38150E-02 6.97306E-21
1.43290E-02 6.47236E-21
1.48521E-02 6.01543E-21
1.53845E-02 5.59785E-21
1.59262E-02 5.21561E-21
1.64770E-02 4.86515E-21
1.70371E-02 4.54341E-21
1.76063E-02 4.24762E-21
1.81848E-02 3.97531E-21
1.87724E-02 3.72427E-21
1.93692E-02 3.49258E-21
1.99751E-02 3.27848E-21
2.05901E-02 3.08037E-21
2.12143E-02 2.89687E-21
2.18476E-02 2.72672E-21
2.24900E-02 2.56876E-21
2.31415E-02 2.42196E-21
2.38021E-02 2.28540E-21
2.44717E-02 2.15824E-21
2.51504E-02 2.03971E-21
2.58382E-02 1.92913E-21
2.65349E-02 1.82587E-21
2.72407E-02 1.72936E-21
2.79555E-02 1.63906E-21
2.86793E-02 1.55453E-21
2.94120E-02 1.47532E-21
3.01537E-02 1.40104E-21
3.09043E-02 1.33133E-21
3.16639E-02 1.26585E-21
3.24324E-02 1.20430E-21
3.32098E-02 1.14641E-21
3.39961E-02 1.09191E-21
3.47912E-02 1.04058E-21
3.55952E-02 9.92194E-22
3.64081E-02 9.46556E-22
3.72297E-02 9.03482E-22
3.80602E-02 8.62803E-22
3.88995E-02 8.24359E-22
3.97476E-02 7.88007E-22
4.06044E-02 7.53613E-22
4.14700E-02 7.21052E-22
4.23443E-02 6.90209E-22
4.32273E-02 6.60977E-22
4.41190E-02 6.33257E-22
4.50194E-02 6.06957E-22
4.59284E-02 5.81990E-22
4.68461E-02 5.58277E-22
4.87074E-02 5.14322E-22
5.06030E-02 4.74555E-22
5.25328E-02 4.38508E-22
5.44967E-02 4.05777E-22
5.64946E-02 3.76002E-22
5.85262E-02 3.48873E-22
6.05914E-02 3.24113E-22
6.26901E-02 3.01481E-22
6.48222E-02 2.80762E-22
6.69873E-02 2.61767E-22
6.91854E-02 2.44329E-22
7.14163E-02 2.28297E-22
7.36799E-02 2.13538E-22
7.59760E-02 1.99935E-22
7.83043E-02 1.87381E-22
8.06647E-02 1.75782E-22
8.30571E-02 1.65052E-22
8.54812E-02 1.55115E-22
8.79369E-02 1.45902E-22
9.04240E-02 1.37351E-22
9.29422E-02 1.29407E-22
9.54915E-02 1.22019E-22
9.80716E-02 1.15142E-22
1.00682E-01 1.08733E-22
1.03323E-01 1.02756E-22
1.05995E-01 9.71771E-23
1.08696E-01 9.19641E-23
1.11427E-01 8.70895E-23
1.14188E-01 8.25271E-23
1.16978E-01 7.82538E-23
1.19797E-01 7.42480E-23
1.22645E-01 7.04900E-23
1.25522E-01 6.69619E-23
1.28428E-01 6.36472E-23
1.31361E-01 6.05307E-23
1.34323E-01 5.75985E-23
1.37313E-01 5.48378E-23
1.40330E-01 5.22369E-23
1.43375E-01 4.97849E-23
1.46447E-01 4.74718E-23
1.49545E-01 4.52883E-23
1.52671E-01 4.32259E-23
1.55823E-01 4.12768E-23
1.59001E-01 3.94336E-23
1.62205E-01 3.76897E-23
1.65435E-01 3.60387E-23
1.68690E-01 3.44748E-23
1.71970E-01 3.29926E-23
1.75276E-01 3.15871E-23
1.78606E-01 3.02537E-23
1.81961E-01 2.89880E-23
1.85340E-01 2.77859E-23
1.88743E-01 2.66438E-23
1.92169E-01 2.55581E-23
1.95619E-01 2.45256E-23
1.99092E-01 2.35431E-23
2.02589E-01 2.26079E-23
2.06107E-01 2.17173E-23
2.09649E-01 2.08688E-23
2.13212E-01 2.00600E-23
2.16797E-01 1.92888E-23
2.20404E-01 1.85531E-23
2.24032E-01 1.78510E-23
2.27680E-01 1.71807E-23
2.31350E-01 1.65405E-23
2.35040E-01 1.59289E-23
2.38751E-01 1.53443E-23
2.42481E-01 1.47853E-23
2.46231E-01 1.42506E-23
2.50000E-01 1.37390E-23
2.53788E-01 1.32493E-23
2.57595E-01 1.27805E-23
2.61421E-01 1.23314E-23
2.65264E-01 1.19011E-23
2.69126E-01 1.14886E-23
2.73005E-01 1.10932E-23
2.76901E-01 1.07140E-23
2.80814E-01 1.03501E-23
2.84744E-01 1.00010E-23
2.88691E-01 9.66577E-24
2.92653E-01 9.34391E-24
2.96632E-01 9.03475E-24
3.00625E-01 8.73770E-24
3.04634E-01 8.45221E-24
3.08658E-01 8.17776E-24
3.12697E-01 7.91384E-24
3.16749E-01 7.65999E-24
3.20816E-01 7.41574E-24
3.24896E-01 7.18069E-24
3.28990E-01 6.95441E-24
3.33097E-01 6.73653E-24
3.37216E-01 6.52668E-24
3.41348E-01 6.32452E-24
3.45492E-01 6.12971E-24
3.49647E-01 5.94195E-24
3.53814E-01 5.76094E-24
3.57992E-01 5.58639E-24
3.62181E-01 5.41803E-24
3.66381E-01 5.25561E-24
3.70590E-01 5.09888E-24
3.74810E-01 4.94760E-24
3.79039E-01 4.80157E-24
3.83277E-01 4.66055E-24
3.87524E-01 4.52436E-24
3.91780E-01 4.39280E-24
3.96044E-01 4.26569E-24
4.00316E-01 4.14284E-24
4.04596E-01 4.02410E-24
4.08882E-01 3.90931E-24
4.13176E-01 3.79830E-24
4.17476E-01 3.69094E-24
4.21783E-01 3.58708E-24
4.26095E-01 3.48660E-24
4.30413E-01 3.38935E-24
4.34737E-01 3.29523E-24
4.39065E-01 3.20411E-24
4.43398E-01 3.11589E-24
4.47736E-01 3.03045E-24
4.52077E-01 2.94770E-24
4.56422E-01 2.86753E-24
4.60770E-01 2.78985E-24
4.65122E-01 2.71457E-24
4.69476E-01 2.64161E-24
4.73832E-01 2.57088E-24
4.78190E-01 2.50231E-24
4.82550E-01 2.43581E-24
4.86912E-01 2.37131E-24
4.91274E-01 2.30874E-24
4.95637E-01 2.24804E-24
5.00000E-01 2.18914E-24
5.04363E-01 2.13199E-24
5.08726E-01 2.07651E-24
5.13088E-01 2.02265E-24
5.17450E-01 1.97036E-24
5.21810E-01 1.91958E-24
5.26168E-01 1.87027E-24
5.30524E-01 1.82237E-24
5.34878E-01 1.77584E-24
5.39230E-01 1.73063E-24
5.43578E-01 1.68670E-24
5.47923E-01 1.64401E-24
5.52264E-01 1.60251E-24
5.56602E-01 1.56217E-24
5.60935E-01 1.52296E-24
5.65263E-01 1.48482E-24
5.69587E-01 1.44774E-24
5.73905E-01 1.41167E-24
5.78217E-01 1.37659E-24
5.82524E-01 1.34246E-24
5.86824E-01 1.30925E-24
5.91118E-01 1.27694E-24
5.95404E-01 1.24549E-24
5.99684E-01 1.21489E-24
6.03956E-01 1.18510E-24
6.08220E-01 1.15610E-24
6.12476E-01 1.12786E-24
6.16723E-01 1.10036E-24
6.20961E-01 1.07359E-24
6.25190E-01 1.04751E-24
6.29410E-01 1.02211E-24
6.33619E-01 9.97372E-25
6.37819E-01 9.73267E-25
6.42008E-01 9.49781E-25
6.46186E-01 9.26895E-25
6.50353E-01 9.04593E-25
6.54508E-01 8.82857E-25
6.58652E-01 8.61671E-25
6.62784E-01 8.41017E-25
6.66903E-01 8.20883E-25
6.71010E-01 8.01252E-25
6.75104E-01 7.82111E-25
6.79184E-01 7.63446E-25
6.83251E-01 7.45242E-25
6.87303E-01 7.27488E-25
6.91342E-01 7.10171E-25
6.95366E-01 6.93277E-25
6.99375E-01 6.76796E-25
7.03368E-01 6.60717E-25
7.07347E-01 6.45028E-25
7.11309E-01 6.29718E-25
7.15256E-01 6.14778E-25
7.19186E-01 6.00197E-25
7.23099E-01 5.85966E-25
7.26995E-01 5.72075E-25
7.30874E-01 5.58515E-25
7.34736E-01 5.45277E-25
7.38579E-01 5.32353E-25
7.42405E-01 5.19734E-25
7.46212E-01 5.07413E-25
7.50000E-01 4.95381E-25
7.53769E-01 4.83632E-25
7.57519E-01 4.72157E-25
7.61249E-01 4.60950E-25
7.64960E-01 4.50004E-25
7.68650E-01 4.39312E-25
7.72320E-01 4.28867E-25
7.75968E-01 4.18664E-25
7.79596E-01 4.08697E-25
7.83203E-01 3.98958E-25
7.86788E-01 3.89444E-25
7.90351E-01 3.80147E-25
7.93893E-01 3.71063E-25
7.97411E-01 3.62186E-25
8.00908E-01 3.53512E-25
8.04381E-01 3.45035E-25
8.07831E-01 3.36751E-25
8.11257E-01 3.28654E-25
8.14660E-01 3.20741E-25
8.18039E-01 3.13007E-25
8.21394E-01 3.05447E-25
8.24724E-01 2.98059E-25
8.28030E-01 2.90836E-25
8.31310E-01 2.83776E-25
8.34565E-01 2.76875E-25
8.37795E-01 2.70129E-25
8.40999E-01 2.63535E-25
8.44177E-01 2.57088E-25
8.47329E-01 2.50786E-25
8.50455E-01 2.44626E-25
8.53553E-01 2.38603E-25
8.56625E-01 2.32716E-25
8.59670E-01 2.26960E-25
8.62687E-01 2.21334E-25
8.65677E-01 2.15833E-25
8.68639E-01 2.10456E-25
8.71572E-01 2.05200E-25
8.74478E-01 2.00061E-25
8.77355E-01 1.95038E-25
8.80203E-01 1.90128E-25
8.83022E-01 1.85329E-25
8.85812E-01 1.80637E-25
8.88573E-01 1.76052E-25
8.91304E-01 1.71570E-25
8.94005E-01 1.67190E-25
8.96677E-01 1.62909E-25
8.99318E-01 1.58726E-25
9.01928E-01 1.54637E-25
9.04508E-01 1.50643E-25
9.07058E-01 1.46739E-25
9.09576E-01 1.42926E-25
9.12063E-01 1.39200E-25
9.14519E-01 1.35561E-25
9.16943E-01 1.32006E-25
9.19335E-01 1.28534E-25
9.21696E-01 1.25143E-25
9.24024E-01 1.21832E-25
9.26320E-01 1.18599E-25
9.28584E-01 1.15443E-25
9.30815E-01 1.12363E-25
9.33013E-01 1.09356E-25
9.35178E-01 1.06422E-25
9.37310E-01 1.03559E-25
9.39409E-01 1.00766E-25
9.41474E-01 9.80418E-26
9.43505E-01 9.53853E-26
9.45503E-01 9.27952E-26
9.47467E-01 9.02704E-26
9.49397E-01 8.78099E-26
9.51293E-01 8.54124E-26
9.53154E-01 8.30770E-26
9.54981E-01 8.08028E-26
9.56773E-01 7.85886E-26
9.58530E-01 7.64335E-26
9.60252E-01 7.43368E-26
9.61940E-01 7.22973E-26
9.63592E-01 7.03143E-26
9.65209E-01 6.83870E-26
9.66790E-01 6.65145E-26
9.68336E-01 6.46961E-26
9.69846E-01 6.29309E-26
9.71321E-01 6.12183E-26
9.72759E-01 5.95575E-26
9.74162E-01 5.79479E-26
9.75528E-01 5.63887E-26
9.76858E-01 5.48794E-26
9.78152E-01 5.34192E-26
9.79410E-01 5.20077E-26
9.80631E-01 5.06442E-26
9.81815E-01 4.93282E-26
9.82963E-01 4.80591E-26
9.84074E-01 4.68365E-26
9.85148E-01 4.56597E-26
9.86185E-01 4.45284E-26
9.87185E-01 4.34421E-26
9.88148E-01 4.24004E-26
9.89074E-01 4.14027E-26
9.89962E-01 4.04488E-26
9.90814E-01 3.95382E-26
9.91627E-01 3.86706E-26
9.92404E-01 3.78457E-26
9.93143E-01 3.70630E-26
9.93844E-01 3.63223E-26
9.94508E-01 3.56233E-26
9.95134E-01 3.49657E-26
9.95722E-01 3.43493E-26
9.96273E-01 3.37737E-26
9.96786E-01 3.32389E-26
9.97261E-01 3.27445E-26
9.97698E-01 3.22903E-26
9.98097E-01 3.18763E-26
9.98459E-01 3.15022E-26
9.98782E-01 3.11679E-26
9.99067E-01 3.08732E-26
9.99315E-01 3.06180E-26
9.99524E-01 3.04022E-26
9.99695E-01 3.02258E-26
9.99829E-01 3.00887E-26
9.99924E-01 2.99908E-26
9.99981E-01 2.99321E-26
1.00000E+00 2.99125E-26
