 #
 # Subroutine ELSEPA. Elastic scattering of electrons and positrons
 #                    by neutral atoms and positive ions
 #
 # Projectile: positron
 # Kinetic energy = 3.00000E+08 eV = 1.10248E+07 a.u.
 #
 # WARNING: High-energy factorization with free-atom DF screening.
 #          Absorption, polarization and exchange corrections are
 #          switched off.
 #          Phase shifts are calculated for the bare nucleus.
 #          Scattering amplitudes are not evaluated.
 #
 # Element: Ho,  Z =  67,  atomic weight = 1.64930E+02 g/mol
 #
 # Nuclear model: Fermi distribution
 #                Average radius = 5.86792E-13 cm
 #                Skin thickness = 5.46000E-14 cm
 #
 # Number of electrons = 67
 #
 # Total elastic cross section = 7.08579E-18 cm**2 = 2.53038E-01 a0**2
 # 1st transport cross section = 9.43013E-26 cm**2 = 3.36756E-09 a0**2
 # 2nd transport cross section = 2.82592E-25 cm**2 = 1.00915E-08 a0**2
 #
 #
 # Differential cross section:                       MU=(1-COS(THETA))/2
 #
 #  THETA        MU          DCS          DCS        Sherman      error
 #  (deg)                 (cm**2/sr)   (a0**2/sr)    function
 #----------------------------------------------------------------------
0.00000E+00 6.79415E-09
7.61557E-13 6.52185E-09
1.18994E-12 6.37674E-09
1.71346E-12 6.20670E-09
2.33225E-12 6.01549E-09
3.04617E-12 5.80789E-09
3.85530E-12 5.58587E-09
4.75964E-12 5.35607E-09
5.75917E-12 5.11903E-09
6.85391E-12 4.88203E-09
8.04379E-12 4.64424E-09
9.32893E-12 4.41129E-09
1.07092E-11 4.18316E-09
1.21847E-11 3.96274E-09
1.37554E-11 3.75113E-09
1.54213E-11 3.54845E-09
1.71823E-11 3.35706E-09
1.90386E-11 3.17462E-09
2.09900E-11 3.00465E-09
2.30367E-11 2.84332E-09
2.51785E-11 2.69383E-09
2.74156E-11 2.55293E-09
2.97478E-11 2.42214E-09
3.21752E-11 2.29978E-09
3.46979E-11 2.18584E-09
3.73157E-11 2.07977E-09
4.00286E-11 1.98066E-09
4.28368E-11 1.88862E-09
4.57402E-11 1.80233E-09
4.87388E-11 1.72221E-09
5.18325E-11 1.64697E-09
5.50215E-11 1.57677E-09
5.83057E-11 1.51085E-09
6.16850E-11 1.44906E-09
6.51595E-11 1.39094E-09
6.87293E-11 1.33627E-09
7.23943E-11 1.28467E-09
7.61544E-11 1.23605E-09
1.18991E-10 8.65869E-10
1.71347E-10 6.28130E-10
2.33223E-10 4.64561E-10
3.04617E-10 3.44165E-10
3.85531E-10 2.64851E-10
4.75965E-10 2.03584E-10
5.75917E-10 1.61000E-10
6.85389E-10 1.27262E-10
8.04380E-10 1.02806E-10
9.32891E-10 8.34432E-11
1.07092E-09 6.86286E-11
1.21847E-09 5.68252E-11
1.37554E-09 4.74063E-11
1.54213E-09 3.98578E-11
1.71823E-09 3.36402E-11
1.90386E-09 2.86339E-11
2.09900E-09 2.44152E-11
2.30367E-09 2.09879E-11
2.51785E-09 1.80791E-11
2.74156E-09 1.56766E-11
2.97478E-09 1.36392E-11
3.21752E-09 1.19272E-11
3.46978E-09 1.04725E-11
3.73156E-09 9.23300E-12
4.00286E-09 8.17542E-12
4.28368E-09 7.26380E-12
4.57402E-09 6.48152E-12
4.87388E-09 5.80024E-12
5.18326E-09 5.21100E-12
5.50215E-09 4.69461E-12
5.83057E-09 4.24392E-12
6.16850E-09 3.84752E-12
6.51596E-09 3.49693E-12
6.87293E-09 3.18550E-12
7.23942E-09 2.90866E-12
7.61544E-09 2.66252E-12
1.18991E-08 1.21597E-12
1.71347E-08 6.30996E-13
2.33223E-08 3.58039E-13
3.04617E-08 2.17495E-13
3.85531E-08 1.39573E-13
4.75965E-08 9.36800E-14
5.75917E-08 6.52291E-14
6.85389E-08 4.68034E-14
8.04380E-08 3.44632E-14
9.32891E-08 2.59375E-14
1.07092E-07 1.98919E-14
1.21847E-07 1.55114E-14
1.37554E-07 1.22710E-14
1.54213E-07 9.83382E-15
1.71823E-07 7.97251E-15
1.90386E-07 6.53005E-15
2.09900E-07 5.39933E-15
2.30367E-07 4.50268E-15
2.51785E-07 3.78420E-15
2.74156E-07 3.20336E-15
2.97478E-07 2.72956E-15
3.21752E-07 2.34008E-15
3.46978E-07 2.01762E-15
3.73156E-07 1.74872E-15
4.00286E-07 1.52314E-15
4.28368E-07 1.33277E-15
4.57402E-07 1.17120E-15
4.87388E-07 1.03340E-15
5.18325E-07 9.15264E-16
5.50215E-07 8.13534E-16
5.83057E-07 7.25560E-16
6.16850E-07 6.49156E-16
6.51596E-07 5.82554E-16
6.87293E-07 5.24282E-16
7.23942E-07 4.73115E-16
7.61543E-07 4.28044E-16
1.18991E-06 1.76951E-16
1.71347E-06 8.58727E-17
2.33223E-06 4.65567E-17
3.04617E-06 2.73767E-17
3.85531E-06 1.71302E-17
4.75964E-06 1.12580E-17
5.75916E-06 7.69896E-18
6.85388E-06 5.44105E-18
8.04378E-06 3.95311E-18
9.32888E-06 2.94055E-18
1.07092E-05 2.23228E-18
1.21846E-05 1.72489E-18
1.37553E-05 1.35375E-18
1.54212E-05 1.07723E-18
1.71822E-05 8.67816E-19
1.90385E-05 7.06553E-19
2.09899E-05 5.81623E-19
2.30365E-05 4.83046E-19
2.51783E-05 4.04389E-19
2.74153E-05 3.41024E-19
2.97475E-05 2.89553E-19
3.21749E-05 2.47429E-19
3.46974E-05 2.12707E-19
3.73152E-05 1.83887E-19
4.00281E-05 1.59803E-19
4.28362E-05 1.39542E-19
4.57395E-05 1.22391E-19
4.87380E-05 1.07789E-19
5.18317E-05 9.52928E-20
5.50205E-05 8.45504E-20
5.83045E-05 7.52772E-20
6.16838E-05 6.72407E-20
6.51582E-05 6.02501E-20
6.87277E-05 5.41463E-20
7.23925E-05 4.87974E-20
7.61524E-05 4.42661E-20
9.21439E-05 3.02344E-20
1.09658E-04 2.13451E-20
1.28695E-04 1.54963E-20
1.49255E-04 1.15188E-20
1.71338E-04 8.73925E-21
1.94942E-04 6.74902E-21
2.20070E-04 5.29396E-21
2.46720E-04 4.21035E-21
2.74892E-04 3.38995E-21
3.04586E-04 2.75955E-21
3.35803E-04 2.26878E-21
3.68542E-04 1.88214E-21
4.02802E-04 1.57422E-21
4.38585E-04 1.32655E-21
4.75889E-04 1.12554E-21
5.14715E-04 9.61026E-22
5.55063E-04 8.25347E-22
5.96931E-04 7.12651E-22
6.40321E-04 6.18427E-22
6.85233E-04 5.39163E-22
7.31665E-04 4.72101E-22
7.79618E-04 4.15059E-22
8.29092E-04 3.66297E-22
8.80086E-04 3.24417E-22
9.32601E-04 2.88289E-22
9.86636E-04 2.56992E-22
1.04219E-03 2.29775E-22
1.09927E-03 2.06018E-22
1.15786E-03 1.85207E-22
1.21797E-03 1.66918E-22
1.27961E-03 1.50794E-22
1.34276E-03 1.36535E-22
1.40743E-03 1.23891E-22
1.47362E-03 1.12648E-22
1.54133E-03 1.02625E-22
1.61056E-03 9.36669E-23
1.68131E-03 8.56426E-23
1.75357E-03 7.84383E-23
1.82735E-03 7.19561E-23
1.90265E-03 6.61119E-23
1.97947E-03 6.08322E-23
2.05780E-03 5.60536E-23
2.13765E-03 5.17206E-23
2.21902E-03 4.77849E-23
2.30190E-03 4.42039E-23
2.38630E-03 4.09405E-23
2.47222E-03 3.79619E-23
2.55965E-03 3.52391E-23
2.64859E-03 3.27466E-23
2.73905E-03 3.04618E-23
2.83103E-03 2.83645E-23
2.92452E-03 2.64368E-23
3.01952E-03 2.46629E-23
3.11604E-03 2.30284E-23
3.21407E-03 2.15208E-23
3.31362E-03 2.01284E-23
3.41468E-03 1.88413E-23
3.51725E-03 1.76501E-23
3.62133E-03 1.65465E-23
3.72692E-03 1.55231E-23
3.83403E-03 1.45733E-23
3.94265E-03 1.36907E-23
4.05278E-03 1.28701E-23
4.16442E-03 1.21063E-23
4.27757E-03 1.13948E-23
4.39223E-03 1.07315E-23
4.50840E-03 1.01126E-23
4.62608E-03 9.53476E-24
4.74527E-03 8.99478E-24
4.86597E-03 8.48983E-24
4.98817E-03 8.01730E-24
5.11188E-03 7.57481E-24
5.23711E-03 7.16017E-24
5.36383E-03 6.77137E-24
5.49207E-03 6.40657E-24
5.62181E-03 6.06408E-24
5.75306E-03 5.74234E-24
5.88581E-03 5.43992E-24
6.02007E-03 5.15549E-24
6.15583E-03 4.88783E-24
6.29310E-03 4.63583E-24
6.43187E-03 4.39844E-24
6.57214E-03 4.17469E-24
6.71392E-03 3.96371E-24
6.85720E-03 3.76466E-24
7.00198E-03 3.57678E-24
7.14827E-03 3.39936E-24
7.29605E-03 3.23174E-24
7.44534E-03 3.07332E-24
7.59612E-03 2.92352E-24
7.97965E-03 2.58338E-24
8.37255E-03 2.28661E-24
8.77480E-03 2.02709E-24
9.18641E-03 1.79962E-24
9.60736E-03 1.59984E-24
1.00376E-02 1.42404E-24
1.04773E-02 1.26905E-24
1.09262E-02 1.13217E-24
1.13844E-02 1.01108E-24
1.18520E-02 9.03806E-25
1.23288E-02 8.08627E-25
1.28150E-02 7.24066E-25
1.33104E-02 6.48842E-25
1.38150E-02 5.81843E-25
1.43290E-02 5.22102E-25
1.48521E-02 4.68777E-25
1.53845E-02 4.21132E-25
1.59262E-02 3.78520E-25
1.64770E-02 3.40378E-25
1.70371E-02 3.06209E-25
1.76063E-02 2.75576E-25
1.81848E-02 2.48092E-25
1.87724E-02 2.23419E-25
1.93692E-02 2.01254E-25
1.99751E-02 1.81333E-25
2.05901E-02 1.63418E-25
2.12143E-02 1.47300E-25
2.18476E-02 1.32792E-25
2.24900E-02 1.19728E-25
2.31415E-02 1.07960E-25
2.38021E-02 9.73562E-26
2.44717E-02 8.77988E-26
2.51504E-02 7.91823E-26
2.58382E-02 7.14123E-26
2.65349E-02 6.44045E-26
2.72407E-02 5.80829E-26
2.79555E-02 5.23798E-26
2.86793E-02 4.72342E-26
2.94120E-02 4.25912E-26
3.01537E-02 3.84016E-26
3.09043E-02 3.46210E-26
3.16639E-02 3.12097E-26
3.24324E-02 2.81316E-26
3.32098E-02 2.53543E-26
3.39961E-02 2.28488E-26
3.47912E-02 2.05885E-26
3.55952E-02 1.85499E-26
3.64081E-02 1.67114E-26
3.72297E-02 1.50537E-26
3.80602E-02 1.35593E-26
3.88995E-02 1.22123E-26
3.97476E-02 1.09986E-26
4.06044E-02 9.90512E-27
4.14700E-02 8.92026E-27
4.23443E-02 8.03345E-27
4.32273E-02 7.23516E-27
4.41190E-02 6.51675E-27
4.50194E-02 5.87042E-27
4.59284E-02 5.28910E-27
4.68461E-02 4.76642E-27
4.87074E-02 3.87441E-27
5.06030E-02 3.15452E-27
5.25328E-02 2.57419E-27
5.44967E-02 2.10679E-27
5.64946E-02 1.73065E-27
5.85262E-02 1.42806E-27
6.05914E-02 1.18466E-27
6.26901E-02 9.88766E-28
6.48222E-02 8.30914E-28
6.69873E-02 7.03455E-28
6.91854E-02 6.00225E-28
7.14163E-02 5.16264E-28
7.36799E-02 4.47601E-28
7.59760E-02 3.91063E-28
7.83043E-02 3.44128E-28
8.06647E-02 3.04798E-28
8.30571E-02 2.71495E-28
8.54812E-02 2.42983E-28
8.79369E-02 2.18294E-28
9.04240E-02 1.96678E-28
9.29422E-02 1.77552E-28
9.54915E-02 1.60469E-28
9.80716E-02 1.45086E-28
1.00682E-01 1.31139E-28
1.03323E-01 1.18428E-28
1.05995E-01 1.06800E-28
1.08696E-01 9.61354E-29
1.11427E-01 8.63427E-29
1.14188E-01 7.73488E-29
1.16978E-01 6.90945E-29
1.19797E-01 6.15299E-29
1.22645E-01 5.46122E-29
1.25522E-01 4.83024E-29
1.28428E-01 4.25649E-29
1.31361E-01 3.73656E-29
1.34323E-01 3.26716E-29
1.37313E-01 2.84507E-29
1.40330E-01 2.46712E-29
1.43375E-01 2.13021E-29
1.46447E-01 1.83128E-29
1.49545E-01 1.56732E-29
1.52671E-01 1.33542E-29
1.55823E-01 1.13275E-29
1.59001E-01 9.56606E-30
1.62205E-01 8.04384E-30
1.65435E-01 6.73623E-30
1.68690E-01 5.62005E-30
1.71970E-01 4.67357E-30
1.75276E-01 3.87663E-30
1.78606E-01 3.21060E-30
1.81961E-01 2.65840E-30
1.85340E-01 2.20448E-30
1.88743E-01 1.83477E-30
1.92169E-01 1.53662E-30
1.95619E-01 1.29876E-30
1.99092E-01 1.11121E-30
2.02589E-01 9.65174E-31
2.06107E-01 8.53006E-31
2.09649E-01 7.68077E-31
2.13212E-01 7.04703E-31
2.16797E-01 6.58058E-31
2.20404E-01 6.24085E-31
2.24032E-01 5.99411E-31
2.27680E-01 5.81274E-31
2.31350E-01 5.67443E-31
2.35040E-01 5.56149E-31
2.38751E-01 5.46026E-31
2.42481E-01 5.36045E-31
2.46231E-01 5.25465E-31
2.50000E-01 5.13782E-31
2.53788E-01 5.00691E-31
2.57595E-01 4.86041E-31
2.61421E-01 4.69809E-31
2.65264E-01 4.52063E-31
2.69126E-01 4.32945E-31
2.73005E-01 4.12647E-31
2.76901E-01 3.91392E-31
2.80814E-01 3.69419E-31
2.84744E-01 3.46975E-31
2.88691E-01 3.24304E-31
2.92653E-01 3.01636E-31
2.96632E-01 2.79187E-31
3.00625E-01 2.57154E-31
3.04634E-01 2.35709E-31
3.08658E-01 2.15001E-31
3.12697E-01 1.95156E-31
3.16749E-01 1.76274E-31
3.20816E-01 1.58433E-31
3.24896E-01 1.41688E-31
3.28990E-01 1.26077E-31
3.33097E-01 1.11614E-31
3.37216E-01 9.83026E-32
3.41348E-01 8.61276E-32
3.45492E-01 7.50633E-32
3.49647E-01 6.50731E-32
3.53814E-01 5.61120E-32
3.57992E-01 4.81284E-32
3.62181E-01 4.10653E-32
3.66381E-01 3.48623E-32
3.70590E-01 2.94567E-32
3.74810E-01 2.47849E-32
3.79039E-01 2.07831E-32
3.83277E-01 1.73886E-32
3.87524E-01 1.45400E-32
3.91780E-01 1.21786E-32
3.96044E-01 1.02482E-32
4.00316E-01 8.69575E-33
4.04596E-01 7.47162E-33
4.08882E-01 6.52977E-33
4.13176E-01 5.82782E-33
4.17476E-01 5.32713E-33
4.21783E-01 4.99271E-33
4.26095E-01 4.79317E-33
4.30413E-01 4.70063E-33
4.34737E-01 4.69049E-33
4.39065E-01 4.74133E-33
4.43398E-01 4.83465E-33
4.47736E-01 4.95470E-33
4.52077E-01 5.08824E-33
4.56422E-01 5.22432E-33
4.60770E-01 5.35410E-33
4.65122E-01 5.47056E-33
4.69476E-01 5.56835E-33
4.73832E-01 5.64358E-33
4.78190E-01 5.69361E-33
4.82550E-01 5.71691E-33
4.86912E-01 5.71285E-33
4.91274E-01 5.68158E-33
4.95637E-01 5.62389E-33
5.00000E-01 5.54107E-33
5.04363E-01 5.43480E-33
5.08726E-01 5.30706E-33
5.13088E-01 5.16006E-33
5.17450E-01 4.99612E-33
5.21810E-01 4.81762E-33
5.26168E-01 4.62696E-33
5.30524E-01 4.42652E-33
5.34878E-01 4.21859E-33
5.39230E-01 4.00536E-33
5.43578E-01 3.78889E-33
5.47923E-01 3.57109E-33
5.52264E-01 3.35372E-33
5.56602E-01 3.13838E-33
5.60935E-01 2.92649E-33
5.65263E-01 2.71931E-33
5.69587E-01 2.51791E-33
5.73905E-01 2.32322E-33
5.78217E-01 2.13601E-33
5.82524E-01 1.95689E-33
5.86824E-01 1.78635E-33
5.91118E-01 1.62474E-33
5.95404E-01 1.47229E-33
5.99684E-01 1.32913E-33
6.03956E-01 1.19528E-33
6.08220E-01 1.07069E-33
6.12476E-01 9.55230E-34
6.16723E-01 8.48697E-34
6.20961E-01 7.50842E-34
6.25190E-01 6.61362E-34
6.29410E-01 5.79924E-34
6.33619E-01 5.06158E-34
6.37819E-01 4.39675E-34
6.42008E-01 3.80068E-34
6.46186E-01 3.26920E-34
6.50353E-01 2.79810E-34
6.54508E-01 2.38315E-34
6.58652E-01 2.02018E-34
6.62784E-01 1.70506E-34
6.66903E-01 1.43381E-34
6.71010E-01 1.20252E-34
6.75104E-01 1.00749E-34
6.79184E-01 8.45142E-35
6.83251E-01 7.12092E-35
6.87303E-01 6.05147E-35
6.91342E-01 5.21296E-35
6.95366E-01 4.57732E-35
6.99375E-01 4.11845E-35
7.03368E-01 3.81211E-35
7.07347E-01 3.63614E-35
7.11309E-01 3.57015E-35
7.15256E-01 3.59563E-35
7.19186E-01 3.69578E-35
7.23099E-01 3.85552E-35
7.26995E-01 4.06135E-35
7.30874E-01 4.30127E-35
7.34736E-01 4.56470E-35
7.38579E-01 4.84238E-35
7.42405E-01 5.12629E-35
7.46212E-01 5.40954E-35
7.50000E-01 5.68627E-35
7.53769E-01 5.95161E-35
7.57519E-01 6.20155E-35
7.61249E-01 6.43287E-35
7.64960E-01 6.64303E-35
7.68650E-01 6.83016E-35
7.72320E-01 6.99296E-35
7.75968E-01 7.13060E-35
7.79596E-01 7.24268E-35
7.83203E-01 7.32920E-35
7.86788E-01 7.39046E-35
7.90351E-01 7.42708E-35
7.93893E-01 7.43983E-35
7.97411E-01 7.42974E-35
8.00908E-01 7.39795E-35
8.04381E-01 7.34573E-35
8.07831E-01 7.27445E-35
8.11257E-01 7.18550E-35
8.14660E-01 7.08035E-35
8.18039E-01 6.96042E-35
8.21394E-01 6.82726E-35
8.24724E-01 6.68226E-35
8.28030E-01 6.52687E-35
8.31310E-01 6.36247E-35
8.34565E-01 6.19039E-35
8.37795E-01 6.01189E-35
8.40999E-01 5.82818E-35
8.44177E-01 5.64046E-35
8.47329E-01 5.44973E-35
8.50455E-01 5.25706E-35
8.53553E-01 5.06334E-35
8.56625E-01 4.86945E-35
8.59670E-01 4.67617E-35
8.62687E-01 4.48423E-35
8.65677E-01 4.29425E-35
8.68639E-01 4.10684E-35
8.71572E-01 3.92253E-35
8.74478E-01 3.74173E-35
8.77355E-01 3.56490E-35
8.80203E-01 3.39232E-35
8.83022E-01 3.22430E-35
8.85812E-01 3.06111E-35
8.88573E-01 2.90294E-35
8.91304E-01 2.74988E-35
8.94005E-01 2.60212E-35
8.96677E-01 2.45971E-35
8.99318E-01 2.32273E-35
9.01928E-01 2.19112E-35
9.04508E-01 2.06493E-35
9.07058E-01 1.94411E-35
9.09576E-01 1.82862E-35
9.12063E-01 1.71836E-35
9.14519E-01 1.61324E-35
9.16943E-01 1.51317E-35
9.19335E-01 1.41803E-35
9.21696E-01 1.32769E-35
9.24024E-01 1.24200E-35
9.26320E-01 1.16086E-35
9.28584E-01 1.08409E-35
9.30815E-01 1.01151E-35
9.33013E-01 9.43002E-36
9.35178E-01 8.78421E-36
9.37310E-01 8.17581E-36
9.39409E-01 7.60326E-36
9.41474E-01 7.06495E-36
9.43505E-01 6.55942E-36
9.45503E-01 6.08506E-36
9.47467E-01 5.64057E-36
9.49397E-01 5.22431E-36
9.51293E-01 4.83480E-36
9.53154E-01 4.47064E-36
9.54981E-01 4.13082E-36
9.56773E-01 3.81339E-36
9.58530E-01 3.51756E-36
9.60252E-01 3.24194E-36
9.61940E-01 2.98542E-36
9.63592E-01 2.74675E-36
9.65209E-01 2.52498E-36
9.66790E-01 2.31901E-36
9.68336E-01 2.12791E-36
9.69846E-01 1.95078E-36
9.71321E-01 1.78664E-36
9.72759E-01 1.63465E-36
9.74162E-01 1.49407E-36
9.75528E-01 1.36408E-36
9.76858E-01 1.24402E-36
9.78152E-01 1.13321E-36
9.79410E-01 1.03093E-36
9.80631E-01 9.36736E-37
9.81815E-01 8.49862E-37
9.82963E-01 7.69944E-37
9.84074E-01 6.96413E-37
9.85148E-01 6.28802E-37
9.86185E-01 5.66761E-37
9.87185E-01 5.09730E-37
9.88148E-01 4.57517E-37
9.89074E-01 4.09642E-37
9.89962E-01 3.65871E-37
9.90814E-01 3.25768E-37
9.91627E-01 2.89167E-37
9.92404E-01 2.55774E-37
9.93143E-01 2.25334E-37
9.93844E-01 1.97568E-37
9.94508E-01 1.72368E-37
9.95134E-01 1.49500E-37
9.95722E-01 1.28781E-37
9.96273E-01 1.10100E-37
9.96786E-01 9.32947E-38
9.97261E-01 7.81971E-38
9.97698E-01 6.47266E-38
9.98097E-01 5.27500E-38
9.98459E-01 4.22226E-38
9.98782E-01 3.29897E-38
9.99067E-01 2.50137E-38
9.99315E-01 1.82544E-38
9.99524E-01 1.25948E-38
9.99695E-01 8.03687E-39
9.99829E-01 4.54070E-39
9.99924E-01 2.05694E-39
9.99981E-01 5.83077E-40
1.00000E+00 7.60891E-41
