 #
 # Subroutine ELSEPA. Elastic scattering of electrons and positrons
 #                    by neutral atoms and positive ions
 #
 # Projectile: positron
 # Kinetic energy = 1.75000E+06 eV = 6.43113E+04 a.u.
 #
 # WARNING: High-energy factorization with free-atom DF screening.
 #          Absorption, polarization and exchange corrections are
 #          switched off.
 #          Phase shifts are calculated for the bare nucleus.
 #          Scattering amplitudes are not evaluated.
 #
 # Element: Ho,  Z =  67,  atomic weight = 1.64930E+02 g/mol
 #
 # Nuclear model: Fermi distribution
 #                Average radius = 5.86792E-13 cm
 #                Skin thickness = 5.46000E-14 cm
 #
 # Number of electrons = 67
 #
 # Total elastic cross section = 7.45028E-18 cm**2 = 2.66054E-01 a0**2
 # 1st transport cross section = 9.79456E-22 cm**2 = 3.49770E-05 a0**2
 # 2nd transport cross section = 2.78076E-21 cm**2 = 9.93027E-05 a0**2
 #
 #
 # Differential cross section:                       MU=(1-COS(THETA))/2
 #
 #  THETA        MU          DCS          DCS        Sherman      error
 #  (deg)                 (cm**2/sr)   (a0**2/sr)    function
 #----------------------------------------------------------------------
0.00000E+00 3.84605E-13
7.61557E-13 3.84604E-13
1.18994E-12 3.84603E-13
1.71346E-12 3.84603E-13
2.33225E-12 3.84602E-13
3.04617E-12 3.84601E-13
3.85530E-12 3.84600E-13
4.75964E-12 3.84599E-13
5.75917E-12 3.84597E-13
6.85391E-12 3.84596E-13
8.04379E-12 3.84595E-13
9.32893E-12 3.84593E-13
1.07092E-11 3.84592E-13
1.21847E-11 3.84590E-13
1.37554E-11 3.84588E-13
1.54213E-11 3.84586E-13
1.71823E-11 3.84584E-13
1.90386E-11 3.84582E-13
2.09900E-11 3.84579E-13
2.30367E-11 3.84577E-13
2.51785E-11 3.84574E-13
2.74156E-11 3.84572E-13
2.97478E-11 3.84569E-13
3.21752E-11 3.84566E-13
3.46979E-11 3.84563E-13
3.73157E-11 3.84560E-13
4.00286E-11 3.84557E-13
4.28368E-11 3.84554E-13
4.57402E-11 3.84551E-13
4.87388E-11 3.84547E-13
5.18325E-11 3.84544E-13
5.50215E-11 3.84540E-13
5.83057E-11 3.84536E-13
6.16850E-11 3.84532E-13
6.51595E-11 3.84528E-13
6.87293E-11 3.84524E-13
7.23943E-11 3.84520E-13
7.61544E-11 3.84516E-13
1.18991E-10 3.84467E-13
1.71347E-10 3.84407E-13
2.33223E-10 3.84336E-13
3.04617E-10 3.84255E-13
3.85531E-10 3.84164E-13
4.75965E-10 3.84061E-13
5.75917E-10 3.83948E-13
6.85389E-10 3.83825E-13
8.04380E-10 3.83690E-13
9.32891E-10 3.83546E-13
1.07092E-09 3.83390E-13
1.21847E-09 3.83224E-13
1.37554E-09 3.83048E-13
1.54213E-09 3.82861E-13
1.71823E-09 3.82664E-13
1.90386E-09 3.82456E-13
2.09900E-09 3.82238E-13
2.30367E-09 3.82009E-13
2.51785E-09 3.81771E-13
2.74156E-09 3.81521E-13
2.97478E-09 3.81262E-13
3.21752E-09 3.80992E-13
3.46978E-09 3.80712E-13
3.73156E-09 3.80422E-13
4.00286E-09 3.80122E-13
4.28368E-09 3.79812E-13
4.57402E-09 3.79492E-13
4.87388E-09 3.79161E-13
5.18326E-09 3.78821E-13
5.50215E-09 3.78471E-13
5.83057E-09 3.78111E-13
6.16850E-09 3.77741E-13
6.51596E-09 3.77362E-13
6.87293E-09 3.76972E-13
7.23942E-09 3.76573E-13
7.61544E-09 3.76165E-13
1.18991E-08 3.71564E-13
1.71347E-08 3.66070E-13
2.33223E-08 3.59754E-13
3.04617E-08 3.52693E-13
3.85531E-08 3.44973E-13
4.75965E-08 3.36684E-13
5.75917E-08 3.27955E-13
6.85389E-08 3.18777E-13
8.04380E-08 3.09323E-13
9.32891E-08 2.99658E-13
1.07092E-07 2.89788E-13
1.21847E-07 2.79971E-13
1.37554E-07 2.70071E-13
1.54213E-07 2.60278E-13
1.71823E-07 2.50614E-13
1.90386E-07 2.41038E-13
2.09900E-07 2.31804E-13
2.30367E-07 2.22710E-13
2.51785E-07 2.13931E-13
2.74156E-07 2.05444E-13
2.97478E-07 1.97187E-13
3.21752E-07 1.89365E-13
3.46978E-07 1.81771E-13
3.73156E-07 1.74540E-13
4.00286E-07 1.67631E-13
4.28368E-07 1.60981E-13
4.57402E-07 1.54733E-13
4.87388E-07 1.48717E-13
5.18325E-07 1.43026E-13
5.50215E-07 1.37616E-13
5.83057E-07 1.32439E-13
6.16850E-07 1.27580E-13
6.51596E-07 1.22923E-13
6.87293E-07 1.18521E-13
7.23942E-07 1.14340E-13
7.61543E-07 1.10348E-13
1.18991E-06 7.98125E-14
1.71347E-06 6.03243E-14
2.33223E-06 4.68848E-14
3.04617E-06 3.70526E-14
3.85531E-06 2.96031E-14
4.75964E-06 2.38357E-14
5.75916E-06 1.91060E-14
6.85388E-06 1.57298E-14
8.04378E-06 1.29956E-14
9.32888E-06 1.07832E-14
1.07092E-05 9.10478E-15
1.21846E-05 7.63957E-15
1.37553E-05 6.50747E-15
1.54212E-05 5.56368E-15
1.71822E-05 4.77854E-15
1.90385E-05 4.14435E-15
2.09899E-05 3.58846E-15
2.30365E-05 3.13564E-15
2.51783E-05 2.74488E-15
2.74153E-05 2.40973E-15
2.97475E-05 2.12903E-15
3.21749E-05 1.87813E-15
3.46974E-05 1.66734E-15
3.73152E-05 1.48277E-15
4.00281E-05 1.32211E-15
4.28362E-05 1.18422E-15
4.57395E-05 1.06058E-15
4.87380E-05 9.53989E-16
5.18317E-05 8.59523E-16
5.50205E-05 7.76185E-16
5.83045E-05 7.03247E-16
6.16838E-05 6.37768E-16
6.51582E-05 5.80303E-16
6.87277E-05 5.28990E-16
7.23925E-05 4.83275E-16
7.61524E-05 4.42661E-16
9.21439E-05 3.17231E-16
1.09658E-04 2.34048E-16
1.28695E-04 1.76920E-16
1.49255E-04 1.36417E-16
1.71338E-04 1.07114E-16
1.94942E-04 8.53339E-17
2.20070E-04 6.88301E-17
2.46720E-04 5.61085E-17
2.74892E-04 4.61613E-17
3.04586E-04 3.83170E-17
3.35803E-04 3.20563E-17
3.68542E-04 2.70163E-17
4.02802E-04 2.29214E-17
4.38585E-04 1.95642E-17
4.75889E-04 1.67955E-17
5.14715E-04 1.44882E-17
5.55063E-04 1.25759E-17
5.96931E-04 1.09643E-17
6.40321E-04 9.60133E-18
6.85233E-04 8.44843E-18
7.31665E-04 7.45683E-18
7.79618E-04 6.61032E-18
8.29092E-04 5.87929E-18
8.80086E-04 5.24651E-18
9.32601E-04 4.69820E-18
9.86636E-04 4.21744E-18
1.04219E-03 3.79807E-18
1.09927E-03 3.42896E-18
1.15786E-03 3.10362E-18
1.21797E-03 2.81658E-18
1.27961E-03 2.56105E-18
1.34276E-03 2.33447E-18
1.40743E-03 2.13207E-18
1.47362E-03 1.95113E-18
1.54133E-03 1.78923E-18
1.61056E-03 1.64335E-18
1.68131E-03 1.51233E-18
1.75357E-03 1.39391E-18
1.82735E-03 1.28685E-18
1.90265E-03 1.18998E-18
1.97947E-03 1.10183E-18
2.05780E-03 1.02183E-18
2.13765E-03 9.48845E-19
2.21902E-03 8.82254E-19
2.30190E-03 8.21451E-19
2.38630E-03 7.65665E-19
2.47222E-03 7.14607E-19
2.55965E-03 6.67663E-19
2.64859E-03 6.24505E-19
2.73905E-03 5.84799E-19
2.83103E-03 5.48121E-19
2.92452E-03 5.14312E-19
3.01952E-03 4.83024E-19
3.11604E-03 4.54075E-19
3.21407E-03 4.27271E-19
3.31362E-03 4.02369E-19
3.41468E-03 3.79276E-19
3.51725E-03 3.57786E-19
3.62133E-03 3.37793E-19
3.72692E-03 3.19181E-19
3.83403E-03 3.01804E-19
3.94265E-03 2.85606E-19
4.05278E-03 2.70460E-19
4.16442E-03 2.56303E-19
4.27757E-03 2.43060E-19
4.39223E-03 2.30645E-19
4.50840E-03 2.19018E-19
4.62608E-03 2.08102E-19
4.74527E-03 1.97856E-19
4.86597E-03 1.88233E-19
4.98817E-03 1.79176E-19
5.11188E-03 1.70661E-19
5.23711E-03 1.62638E-19
5.36383E-03 1.55079E-19
5.49207E-03 1.47954E-19
5.62181E-03 1.41226E-19
5.75306E-03 1.34879E-19
5.88581E-03 1.28878E-19
6.02007E-03 1.23206E-19
6.15583E-03 1.17843E-19
6.29310E-03 1.12763E-19
6.43187E-03 1.07955E-19
6.57214E-03 1.03397E-19
6.71392E-03 9.90763E-20
6.85720E-03 9.49784E-20
7.00198E-03 9.10869E-20
7.14827E-03 8.73933E-20
7.29605E-03 8.38824E-20
7.44534E-03 8.05455E-20
7.59612E-03 7.73724E-20
7.97965E-03 7.00920E-20
8.37255E-03 6.36430E-20
8.77480E-03 5.79147E-20
9.18641E-03 5.28129E-20
9.60736E-03 4.82574E-20
1.00376E-02 4.41798E-20
1.04773E-02 4.05213E-20
1.09262E-02 3.72316E-20
1.13844E-02 3.42671E-20
1.18520E-02 3.15900E-20
1.23288E-02 2.91677E-20
1.28150E-02 2.69718E-20
1.33104E-02 2.49774E-20
1.38150E-02 2.31628E-20
1.43290E-02 2.15089E-20
1.48521E-02 1.99991E-20
1.53845E-02 1.86186E-20
1.59262E-02 1.73544E-20
1.64770E-02 1.61949E-20
1.70371E-02 1.51300E-20
1.76063E-02 1.41506E-20
1.81848E-02 1.32486E-20
1.87724E-02 1.24167E-20
1.93692E-02 1.16487E-20
1.99751E-02 1.09387E-20
2.05901E-02 1.02816E-20
2.12143E-02 9.67263E-21
2.18476E-02 9.10778E-21
2.24900E-02 8.58321E-21
2.31415E-02 8.09556E-21
2.38021E-02 7.64177E-21
2.44717E-02 7.21905E-21
2.51504E-02 6.82492E-21
2.58382E-02 6.45708E-21
2.65349E-02 6.11347E-21
2.72407E-02 5.79221E-21
2.79555E-02 5.49158E-21
2.86793E-02 5.21002E-21
2.94120E-02 4.94611E-21
3.01537E-02 4.69854E-21
3.09043E-02 4.46612E-21
3.16639E-02 4.24775E-21
3.24324E-02 4.04243E-21
3.32098E-02 3.84925E-21
3.39961E-02 3.66735E-21
3.47912E-02 3.49596E-21
3.55952E-02 3.33436E-21
3.64081E-02 3.18189E-21
3.72297E-02 3.03795E-21
3.80602E-02 2.90196E-21
3.88995E-02 2.77342E-21
3.97476E-02 2.65184E-21
4.06044E-02 2.53677E-21
4.14700E-02 2.42780E-21
4.23443E-02 2.32456E-21
4.32273E-02 2.22669E-21
4.41190E-02 2.13385E-21
4.50194E-02 2.04575E-21
4.59284E-02 1.96209E-21
4.68461E-02 1.88261E-21
4.87074E-02 1.73522E-21
5.06030E-02 1.60182E-21
5.25328E-02 1.48085E-21
5.44967E-02 1.37095E-21
5.64946E-02 1.27093E-21
5.85262E-02 1.17975E-21
6.05914E-02 1.09650E-21
6.26901E-02 1.02038E-21
6.48222E-02 9.50656E-22
6.69873E-02 8.86709E-22
6.91854E-02 8.27979E-22
7.14163E-02 7.73965E-22
7.36799E-02 7.24225E-22
7.59760E-02 6.78358E-22
7.83043E-02 6.36014E-22
8.06647E-02 5.96875E-22
8.30571E-02 5.60658E-22
8.54812E-02 5.27104E-22
8.79369E-02 4.95985E-22
9.04240E-02 4.67094E-22
9.29422E-02 4.40243E-22
9.54915E-02 4.15265E-22
9.80716E-02 3.92003E-22
1.00682E-01 3.70321E-22
1.03323E-01 3.50094E-22
1.05995E-01 3.31206E-22
1.08696E-01 3.13553E-22
1.11427E-01 2.97040E-22
1.14188E-01 2.81581E-22
1.16978E-01 2.67097E-22
1.19797E-01 2.53516E-22
1.22645E-01 2.40772E-22
1.25522E-01 2.28804E-22
1.28428E-01 2.17556E-22
1.31361E-01 2.06979E-22
1.34323E-01 1.97024E-22
1.37313E-01 1.87649E-22
1.40330E-01 1.78814E-22
1.43375E-01 1.70482E-22
1.46447E-01 1.62621E-22
1.49545E-01 1.55198E-22
1.52671E-01 1.48185E-22
1.55823E-01 1.41556E-22
1.59001E-01 1.35285E-22
1.62205E-01 1.29351E-22
1.65435E-01 1.23731E-22
1.68690E-01 1.18406E-22
1.71970E-01 1.13359E-22
1.75276E-01 1.08571E-22
1.78606E-01 1.04028E-22
1.81961E-01 9.97145E-23
1.85340E-01 9.56170E-23
1.88743E-01 9.17229E-23
1.92169E-01 8.80202E-23
1.95619E-01 8.44979E-23
1.99092E-01 8.11457E-23
2.02589E-01 7.79540E-23
2.06107E-01 7.49137E-23
2.09649E-01 7.20164E-23
2.13212E-01 6.92541E-23
2.16797E-01 6.66195E-23
2.20404E-01 6.41057E-23
2.24032E-01 6.17061E-23
2.27680E-01 5.94147E-23
2.31350E-01 5.72257E-23
2.35040E-01 5.51338E-23
2.38751E-01 5.31339E-23
2.42481E-01 5.12212E-23
2.46231E-01 4.93913E-23
2.50000E-01 4.76399E-23
2.53788E-01 4.59632E-23
2.57595E-01 4.43574E-23
2.61421E-01 4.28189E-23
2.65264E-01 4.13444E-23
2.69126E-01 3.99309E-23
2.73005E-01 3.85753E-23
2.76901E-01 3.72749E-23
2.80814E-01 3.60270E-23
2.84744E-01 3.48292E-23
2.88691E-01 3.36790E-23
2.92653E-01 3.25743E-23
2.96632E-01 3.15130E-23
3.00625E-01 3.04930E-23
3.04634E-01 2.95125E-23
3.08658E-01 2.85696E-23
3.12697E-01 2.76627E-23
3.16749E-01 2.67902E-23
3.20816E-01 2.59505E-23
3.24896E-01 2.51422E-23
3.28990E-01 2.43639E-23
3.33097E-01 2.36143E-23
3.37216E-01 2.28922E-23
3.41348E-01 2.21963E-23
3.45492E-01 2.15256E-23
3.49647E-01 2.08791E-23
3.53814E-01 2.02555E-23
3.57992E-01 1.96541E-23
3.62181E-01 1.90739E-23
3.66381E-01 1.85140E-23
3.70590E-01 1.79736E-23
3.74810E-01 1.74519E-23
3.79039E-01 1.69482E-23
3.83277E-01 1.64616E-23
3.87524E-01 1.59915E-23
3.91780E-01 1.55373E-23
3.96044E-01 1.50984E-23
4.00316E-01 1.46741E-23
4.04596E-01 1.42639E-23
4.08882E-01 1.38671E-23
4.13176E-01 1.34834E-23
4.17476E-01 1.31122E-23
4.21783E-01 1.27530E-23
4.26095E-01 1.24054E-23
4.30413E-01 1.20689E-23
4.34737E-01 1.17431E-23
4.39065E-01 1.14277E-23
4.43398E-01 1.11222E-23
4.47736E-01 1.08262E-23
4.52077E-01 1.05395E-23
4.56422E-01 1.02617E-23
4.60770E-01 9.99240E-24
4.65122E-01 9.73137E-24
4.69476E-01 9.47830E-24
4.73832E-01 9.23291E-24
4.78190E-01 8.99492E-24
4.82550E-01 8.76407E-24
4.86912E-01 8.54012E-24
4.91274E-01 8.32281E-24
4.95637E-01 8.11193E-24
5.00000E-01 7.90725E-24
5.04363E-01 7.70856E-24
5.08726E-01 7.51565E-24
5.13088E-01 7.32833E-24
5.17450E-01 7.14642E-24
5.21810E-01 6.96971E-24
5.26168E-01 6.79806E-24
5.30524E-01 6.63128E-24
5.34878E-01 6.46922E-24
5.39230E-01 6.31171E-24
5.43578E-01 6.15862E-24
5.47923E-01 6.00980E-24
5.52264E-01 5.86511E-24
5.56602E-01 5.72441E-24
5.60935E-01 5.58758E-24
5.65263E-01 5.45449E-24
5.69587E-01 5.32503E-24
5.73905E-01 5.19908E-24
5.78217E-01 5.07654E-24
5.82524E-01 4.95728E-24
5.86824E-01 4.84122E-24
5.91118E-01 4.72826E-24
5.95404E-01 4.61829E-24
5.99684E-01 4.51122E-24
6.03956E-01 4.40697E-24
6.08220E-01 4.30546E-24
6.12476E-01 4.20659E-24
6.16723E-01 4.11029E-24
6.20961E-01 4.01649E-24
6.25190E-01 3.92510E-24
6.29410E-01 3.83606E-24
6.33619E-01 3.74930E-24
6.37819E-01 3.66475E-24
6.42008E-01 3.58234E-24
6.46186E-01 3.50201E-24
6.50353E-01 3.42371E-24
6.54508E-01 3.34737E-24
6.58652E-01 3.27294E-24
6.62784E-01 3.20036E-24
6.66903E-01 3.12958E-24
6.71010E-01 3.06056E-24
6.75104E-01 2.99323E-24
6.79184E-01 2.92755E-24
6.83251E-01 2.86348E-24
6.87303E-01 2.80097E-24
6.91342E-01 2.73998E-24
6.95366E-01 2.68046E-24
6.99375E-01 2.62238E-24
7.03368E-01 2.56570E-24
7.07347E-01 2.51037E-24
7.11309E-01 2.45637E-24
7.15256E-01 2.40365E-24
7.19186E-01 2.35218E-24
7.23099E-01 2.30193E-24
7.26995E-01 2.25287E-24
7.30874E-01 2.20496E-24
7.34736E-01 2.15817E-24
7.38579E-01 2.11248E-24
7.42405E-01 2.06785E-24
7.46212E-01 2.02427E-24
7.50000E-01 1.98169E-24
7.53769E-01 1.94010E-24
7.57519E-01 1.89947E-24
7.61249E-01 1.85977E-24
7.64960E-01 1.82099E-24
7.68650E-01 1.78309E-24
7.72320E-01 1.74606E-24
7.75968E-01 1.70987E-24
7.79596E-01 1.67451E-24
7.83203E-01 1.63995E-24
7.86788E-01 1.60617E-24
7.90351E-01 1.57316E-24
7.93893E-01 1.54089E-24
7.97411E-01 1.50935E-24
8.00908E-01 1.47851E-24
8.04381E-01 1.44837E-24
8.07831E-01 1.41891E-24
8.11257E-01 1.39010E-24
8.14660E-01 1.36194E-24
8.18039E-01 1.33440E-24
8.21394E-01 1.30748E-24
8.24724E-01 1.28116E-24
8.28030E-01 1.25542E-24
8.31310E-01 1.23025E-24
8.34565E-01 1.20565E-24
8.37795E-01 1.18158E-24
8.40999E-01 1.15806E-24
8.44177E-01 1.13505E-24
8.47329E-01 1.11255E-24
8.50455E-01 1.09055E-24
8.53553E-01 1.06903E-24
8.56625E-01 1.04799E-24
8.59670E-01 1.02742E-24
8.62687E-01 1.00730E-24
8.65677E-01 9.87630E-25
8.68639E-01 9.68392E-25
8.71572E-01 9.49580E-25
8.74478E-01 9.31186E-25
8.77355E-01 9.13199E-25
8.80203E-01 8.95611E-25
8.83022E-01 8.78415E-25
8.85812E-01 8.61601E-25
8.88573E-01 8.45162E-25
8.91304E-01 8.29090E-25
8.94005E-01 8.13377E-25
8.96677E-01 7.98017E-25
8.99318E-01 7.83002E-25
9.01928E-01 7.68325E-25
9.04508E-01 7.53979E-25
9.07058E-01 7.39959E-25
9.09576E-01 7.26256E-25
9.12063E-01 7.12866E-25
9.14519E-01 6.99783E-25
9.16943E-01 6.87000E-25
9.19335E-01 6.74511E-25
9.21696E-01 6.62312E-25
9.24024E-01 6.50396E-25
9.26320E-01 6.38759E-25
9.28584E-01 6.27395E-25
9.30815E-01 6.16300E-25
9.33013E-01 6.05468E-25
9.35178E-01 5.94895E-25
9.37310E-01 5.84577E-25
9.39409E-01 5.74509E-25
9.41474E-01 5.64686E-25
9.43505E-01 5.55105E-25
9.45503E-01 5.45761E-25
9.47467E-01 5.36651E-25
9.49397E-01 5.27770E-25
9.51293E-01 5.19115E-25
9.53154E-01 5.10683E-25
9.54981E-01 5.02469E-25
9.56773E-01 4.94471E-25
9.58530E-01 4.86684E-25
9.60252E-01 4.79107E-25
9.61940E-01 4.71735E-25
9.63592E-01 4.64566E-25
9.65209E-01 4.57597E-25
9.66790E-01 4.50825E-25
9.68336E-01 4.44247E-25
9.69846E-01 4.37861E-25
9.71321E-01 4.31664E-25
9.72759E-01 4.25653E-25
9.74162E-01 4.19826E-25
9.75528E-01 4.14181E-25
9.76858E-01 4.08716E-25
9.78152E-01 4.03428E-25
9.79410E-01 3.98315E-25
9.80631E-01 3.93375E-25
9.81815E-01 3.88607E-25
9.82963E-01 3.84008E-25
9.84074E-01 3.79577E-25
9.85148E-01 3.75312E-25
9.86185E-01 3.71210E-25
9.87185E-01 3.67272E-25
9.88148E-01 3.63494E-25
9.89074E-01 3.59876E-25
9.89962E-01 3.56416E-25
9.90814E-01 3.53113E-25
9.91627E-01 3.49966E-25
9.92404E-01 3.46973E-25
9.93143E-01 3.44133E-25
9.93844E-01 3.41445E-25
9.94508E-01 3.38908E-25
9.95134E-01 3.36522E-25
9.95722E-01 3.34284E-25
9.96273E-01 3.32195E-25
9.96786E-01 3.30253E-25
9.97261E-01 3.28459E-25
9.97698E-01 3.26810E-25
9.98097E-01 3.25307E-25
9.98459E-01 3.23948E-25
9.98782E-01 3.22734E-25
9.99067E-01 3.21664E-25
9.99315E-01 3.20737E-25
9.99524E-01 3.19954E-25
9.99695E-01 3.19313E-25
9.99829E-01 3.18815E-25
9.99924E-01 3.18460E-25
9.99981E-01 3.18246E-25
1.00000E+00 3.18175E-25
