 #
 # Subroutine ELSEPA. Elastic scattering of electrons and positrons
 #                    by neutral atoms and positive ions
 #
 # Projectile: positron
 # Kinetic energy = 3.50000E+07 eV = 1.28623E+06 a.u.
 #
 # WARNING: High-energy factorization with free-atom DF screening.
 #          Absorption, polarization and exchange corrections are
 #          switched off.
 #          Phase shifts are calculated for the bare nucleus.
 #          Scattering amplitudes are not evaluated.
 #
 # Element: Rh,  Z =  45,  atomic weight = 1.02906E+02 g/mol
 #
 # Nuclear model: Fermi distribution
 #                Average radius = 5.01414E-13 cm
 #                Skin thickness = 5.46000E-14 cm
 #
 # Number of electrons = 45
 #
 # Total elastic cross section = 4.21076E-18 cm**2 = 1.50369E-01 a0**2
 # 1st transport cross section = 2.84991E-24 cm**2 = 1.01772E-07 a0**2
 # 2nd transport cross section = 8.33215E-24 cm**2 = 2.97546E-07 a0**2
 #
 #
 # Differential cross section:                       MU=(1-COS(THETA))/2
 #
 #  THETA        MU          DCS          DCS        Sherman      error
 #  (deg)                 (cm**2/sr)   (a0**2/sr)    function
 #----------------------------------------------------------------------
0.00000E+00 4.00393E-11
7.61557E-13 4.00269E-11
1.18994E-12 4.00201E-11
1.71346E-12 4.00117E-11
2.33225E-12 4.00018E-11
3.04617E-12 3.99904E-11
3.85530E-12 3.99775E-11
4.75964E-12 3.99631E-11
5.75917E-12 3.99472E-11
6.85391E-12 3.99298E-11
8.04379E-12 3.99109E-11
9.32893E-12 3.98905E-11
1.07092E-11 3.98686E-11
1.21847E-11 3.98452E-11
1.37554E-11 3.98204E-11
1.54213E-11 3.97941E-11
1.71823E-11 3.97664E-11
1.90386E-11 3.97371E-11
2.09900E-11 3.97065E-11
2.30367E-11 3.96743E-11
2.51785E-11 3.96408E-11
2.74156E-11 3.96058E-11
2.97478E-11 3.95694E-11
3.21752E-11 3.95316E-11
3.46979E-11 3.94923E-11
3.73157E-11 3.94517E-11
4.00286E-11 3.94096E-11
4.28368E-11 3.93662E-11
4.57402E-11 3.93215E-11
4.87388E-11 3.92753E-11
5.18325E-11 3.92278E-11
5.50215E-11 3.91789E-11
5.83057E-11 3.91287E-11
6.16850E-11 3.90772E-11
6.51595E-11 3.90244E-11
6.87293E-11 3.89703E-11
7.23943E-11 3.89148E-11
7.61544E-11 3.88581E-11
1.18991E-10 3.82232E-11
1.71347E-10 3.74737E-11
2.33223E-10 3.66211E-11
3.04617E-10 3.56860E-11
3.85531E-10 3.46797E-11
4.75965E-10 3.36161E-11
5.75917E-10 3.25159E-11
6.85389E-10 3.13850E-11
8.04380E-10 3.02393E-11
9.32891E-10 2.90950E-11
1.07092E-09 2.79499E-11
1.21847E-09 2.68213E-11
1.37554E-09 2.57191E-11
1.54213E-09 2.46332E-11
1.71823E-09 2.35830E-11
1.90386E-09 2.25692E-11
2.09900E-09 2.15836E-11
2.30367E-09 2.06403E-11
2.51785E-09 1.97351E-11
2.74156E-09 1.88630E-11
2.97478E-09 1.80334E-11
3.21752E-09 1.72387E-11
3.46978E-09 1.64779E-11
3.73156E-09 1.57566E-11
4.00286E-09 1.50651E-11
4.28368E-09 1.44061E-11
4.57402E-09 1.37822E-11
4.87388E-09 1.31826E-11
5.18326E-09 1.26133E-11
5.50215E-09 1.20745E-11
5.83057E-09 1.15549E-11
6.16850E-09 1.10632E-11
6.51596E-09 1.05962E-11
6.87293E-09 1.01470E-11
7.23942E-09 9.72167E-12
7.61544E-09 9.31624E-12
1.18991E-08 6.14580E-12
1.71347E-08 4.13347E-12
2.33223E-08 2.79339E-12
3.04617E-08 1.97158E-12
3.85531E-08 1.40962E-12
4.75965E-08 1.02977E-12
5.75917E-08 7.72033E-13
6.85389E-08 5.88949E-13
8.04380E-08 4.58843E-13
9.32891E-08 3.64537E-13
1.07092E-07 2.93757E-13
1.21847E-07 2.40281E-13
1.37554E-07 1.99197E-13
1.54213E-07 1.66459E-13
1.71823E-07 1.40511E-13
1.90386E-07 1.19579E-13
2.09900E-07 1.02235E-13
2.30367E-07 8.80057E-14
2.51785E-07 7.61246E-14
2.74156E-07 6.60699E-14
2.97478E-07 5.76320E-14
3.21752E-07 5.04299E-14
3.46978E-07 4.42670E-14
3.73156E-07 3.90132E-14
4.00286E-07 3.44670E-14
4.28368E-07 3.05493E-14
4.57402E-07 2.71698E-14
4.87388E-07 2.42107E-14
5.18325E-07 2.16411E-14
5.50215E-07 1.94027E-14
5.83057E-07 1.74347E-14
6.16850E-07 1.57123E-14
6.51596E-07 1.41974E-14
6.87293E-07 1.28576E-14
7.23942E-07 1.16740E-14
7.61543E-07 1.06237E-14
1.18991E-06 4.61270E-15
1.71347E-06 2.33260E-15
2.33223E-06 1.30570E-15
3.04617E-06 7.86835E-16
3.85531E-06 5.00824E-16
4.75964E-06 3.33330E-16
5.75916E-06 2.30059E-16
6.85388E-06 1.63745E-16
8.04378E-06 1.19658E-16
9.32888E-06 8.94356E-17
1.07092E-05 6.81821E-17
1.21846E-05 5.28853E-17
1.37553E-05 4.16494E-17
1.54212E-05 3.32487E-17
1.71822E-05 2.68645E-17
1.90385E-05 2.19384E-17
2.09899E-05 1.81011E-17
2.30365E-05 1.50665E-17
2.51783E-05 1.26409E-17
2.74153E-05 1.06832E-17
2.97475E-05 9.08960E-18
3.21749E-05 7.78236E-18
3.46974E-05 6.70205E-18
3.73152E-05 5.80322E-18
4.00281E-05 5.05039E-18
4.28362E-05 4.41581E-18
4.57395E-05 3.87778E-18
4.87380E-05 3.41907E-18
5.18317E-05 3.02603E-18
5.50205E-05 2.68774E-18
5.83045E-05 2.39532E-18
6.16838E-05 2.14157E-18
6.51582E-05 1.92056E-18
6.87277E-05 1.72733E-18
7.23925E-05 1.55782E-18
7.61524E-05 1.40861E-18
9.21439E-05 9.63753E-19
1.09658E-04 6.81249E-19
1.28695E-04 4.95011E-19
1.49255E-04 3.68191E-19
1.71338E-04 2.79477E-19
1.94942E-04 2.15909E-19
2.20070E-04 1.69411E-19
2.46720E-04 1.34770E-19
2.74892E-04 1.08536E-19
3.04586E-04 8.83796E-20
3.35803E-04 7.26858E-20
3.68542E-04 6.03223E-20
4.02802E-04 5.04756E-20
4.38585E-04 4.25559E-20
4.75889E-04 3.61284E-20
5.14715E-04 3.08680E-20
5.55063E-04 2.65298E-20
5.96931E-04 2.29265E-20
6.40321E-04 1.99138E-20
6.85233E-04 1.73793E-20
7.31665E-04 1.52348E-20
7.79618E-04 1.34106E-20
8.29092E-04 1.18510E-20
8.80086E-04 1.05112E-20
9.32601E-04 9.35520E-21
9.86636E-04 8.35352E-21
1.04219E-03 7.48215E-21
1.09927E-03 6.72126E-21
1.15786E-03 6.05448E-21
1.21797E-03 5.46820E-21
1.27961E-03 4.95104E-21
1.34276E-03 4.49347E-21
1.40743E-03 4.08745E-21
1.47362E-03 3.72616E-21
1.54133E-03 3.40382E-21
1.61056E-03 3.11551E-21
1.68131E-03 2.85702E-21
1.75357E-03 2.62472E-21
1.82735E-03 2.41550E-21
1.90265E-03 2.22665E-21
1.97947E-03 2.05586E-21
2.05780E-03 1.90109E-21
2.13765E-03 1.76057E-21
2.21902E-03 1.63277E-21
2.30190E-03 1.51631E-21
2.38630E-03 1.41003E-21
2.47222E-03 1.31286E-21
2.55965E-03 1.22391E-21
2.64859E-03 1.14233E-21
2.73905E-03 1.06742E-21
2.83103E-03 9.98524E-22
2.92452E-03 9.35083E-22
3.01952E-03 8.76585E-22
3.11604E-03 8.22575E-22
3.21407E-03 7.72645E-22
3.31362E-03 7.26433E-22
3.41468E-03 6.83613E-22
3.51725E-03 6.43891E-22
3.62133E-03 6.07002E-22
3.72692E-03 5.72706E-22
3.83403E-03 5.40789E-22
3.94265E-03 5.11056E-22
4.05278E-03 4.83331E-22
4.16442E-03 4.57454E-22
4.27757E-03 4.33277E-22
4.39223E-03 4.10670E-22
4.50840E-03 3.89512E-22
4.62608E-03 3.69694E-22
4.74527E-03 3.51115E-22
4.86597E-03 3.33683E-22
4.98817E-03 3.17314E-22
5.11188E-03 3.01933E-22
5.23711E-03 2.87469E-22
5.36383E-03 2.73856E-22
5.49207E-03 2.61035E-22
5.62181E-03 2.48952E-22
5.75306E-03 2.37557E-22
5.88581E-03 2.26804E-22
6.02007E-03 2.16649E-22
6.15583E-03 2.07053E-22
6.29310E-03 1.97980E-22
6.43187E-03 1.89396E-22
6.57214E-03 1.81270E-22
6.71392E-03 1.73572E-22
6.85720E-03 1.66276E-22
7.00198E-03 1.59358E-22
7.14827E-03 1.52794E-22
7.29605E-03 1.46563E-22
7.44534E-03 1.40644E-22
7.59612E-03 1.35019E-22
7.97965E-03 1.22134E-22
8.37255E-03 1.10740E-22
8.77480E-03 1.00638E-22
9.18641E-03 9.16549E-23
9.60736E-03 8.36460E-23
1.00376E-02 7.64882E-23
1.04773E-02 7.00748E-23
1.09262E-02 6.43155E-23
1.13844E-02 5.91320E-23
1.18520E-02 5.44568E-23
1.23288E-02 5.02315E-23
1.28150E-02 4.64051E-23
1.33104E-02 4.29337E-23
1.38150E-02 3.97784E-23
1.43290E-02 3.69055E-23
1.48521E-02 3.42853E-23
1.53845E-02 3.18916E-23
1.59262E-02 2.97015E-23
1.64770E-02 2.76947E-23
1.70371E-02 2.58531E-23
1.76063E-02 2.41607E-23
1.81848E-02 2.26033E-23
1.87724E-02 2.11683E-23
1.93692E-02 1.98443E-23
1.99751E-02 1.86212E-23
2.05901E-02 1.74900E-23
2.12143E-02 1.64426E-23
2.18476E-02 1.54717E-23
2.24900E-02 1.45706E-23
2.31415E-02 1.37335E-23
2.38021E-02 1.29550E-23
2.44717E-02 1.22303E-23
2.51504E-02 1.15550E-23
2.58382E-02 1.09252E-23
2.65349E-02 1.03372E-23
2.72407E-02 9.78781E-24
2.79555E-02 9.27399E-24
2.86793E-02 8.79304E-24
2.94120E-02 8.34248E-24
3.01537E-02 7.92006E-24
3.09043E-02 7.52371E-24
3.16639E-02 7.15152E-24
3.24324E-02 6.80176E-24
3.32098E-02 6.47285E-24
3.39961E-02 6.16331E-24
3.47912E-02 5.87180E-24
3.55952E-02 5.59709E-24
3.64081E-02 5.33802E-24
3.72297E-02 5.09357E-24
3.80602E-02 4.86274E-24
3.88995E-02 4.64465E-24
3.97476E-02 4.43846E-24
4.06044E-02 4.24342E-24
4.14700E-02 4.05881E-24
4.23443E-02 3.88398E-24
4.32273E-02 3.71831E-24
4.41190E-02 3.56123E-24
4.50194E-02 3.41223E-24
4.59284E-02 3.27081E-24
4.68461E-02 3.13653E-24
4.87074E-02 2.88767E-24
5.06030E-02 2.66260E-24
5.25328E-02 2.45868E-24
5.44967E-02 2.27356E-24
5.64946E-02 2.10524E-24
5.85262E-02 1.95193E-24
6.05914E-02 1.81206E-24
6.26901E-02 1.68426E-24
6.48222E-02 1.56730E-24
6.69873E-02 1.46012E-24
6.91854E-02 1.36176E-24
7.14163E-02 1.27137E-24
7.36799E-02 1.18819E-24
7.59760E-02 1.11156E-24
7.83043E-02 1.04086E-24
8.06647E-02 9.75571E-25
8.30571E-02 9.15197E-25
8.54812E-02 8.59309E-25
8.79369E-02 8.07518E-25
9.04240E-02 7.59472E-25
9.29422E-02 7.14854E-25
9.54915E-02 6.73379E-25
9.80716E-02 6.34789E-25
1.00682E-01 5.98848E-25
1.03323E-01 5.65344E-25
1.05995E-01 5.34084E-25
1.08696E-01 5.04892E-25
1.11427E-01 4.77608E-25
1.14188E-01 4.52088E-25
1.16978E-01 4.28197E-25
1.19797E-01 4.05814E-25
1.22645E-01 3.84828E-25
1.25522E-01 3.65137E-25
1.28428E-01 3.46648E-25
1.31361E-01 3.29276E-25
1.34323E-01 3.12941E-25
1.37313E-01 2.97571E-25
1.40330E-01 2.83099E-25
1.43375E-01 2.69466E-25
1.46447E-01 2.56613E-25
1.49545E-01 2.44488E-25
1.52671E-01 2.33045E-25
1.55823E-01 2.22237E-25
1.59001E-01 2.12024E-25
1.62205E-01 2.02368E-25
1.65435E-01 1.93233E-25
1.68690E-01 1.84586E-25
1.71970E-01 1.76398E-25
1.75276E-01 1.68640E-25
1.78606E-01 1.61285E-25
1.81961E-01 1.54309E-25
1.85340E-01 1.47689E-25
1.88743E-01 1.41405E-25
1.92169E-01 1.35437E-25
1.95619E-01 1.29765E-25
1.99092E-01 1.24373E-25
2.02589E-01 1.19245E-25
2.06107E-01 1.14366E-25
2.09649E-01 1.09721E-25
2.13212E-01 1.05299E-25
2.16797E-01 1.01085E-25
2.20404E-01 9.70696E-26
2.24032E-01 9.32411E-26
2.27680E-01 8.95897E-26
2.31350E-01 8.61057E-26
2.35040E-01 8.27803E-26
2.38751E-01 7.96050E-26
2.42481E-01 7.65722E-26
2.46231E-01 7.36743E-26
2.50000E-01 7.09043E-26
2.53788E-01 6.82558E-26
2.57595E-01 6.57226E-26
2.61421E-01 6.32989E-26
2.65264E-01 6.09792E-26
2.69126E-01 5.87583E-26
2.73005E-01 5.66314E-26
2.76901E-01 5.45938E-26
2.80814E-01 5.26413E-26
2.84744E-01 5.07697E-26
2.88691E-01 4.89752E-26
2.92653E-01 4.72541E-26
2.96632E-01 4.56029E-26
3.00625E-01 4.40183E-26
3.04634E-01 4.24973E-26
3.08658E-01 4.10370E-26
3.12697E-01 3.96344E-26
3.16749E-01 3.82870E-26
3.20816E-01 3.69923E-26
3.24896E-01 3.57480E-26
3.28990E-01 3.45517E-26
3.33097E-01 3.34013E-26
3.37216E-01 3.22948E-26
3.41348E-01 3.12303E-26
3.45492E-01 3.02059E-26
3.49647E-01 2.92199E-26
3.53814E-01 2.82707E-26
3.57992E-01 2.73567E-26
3.62181E-01 2.64763E-26
3.66381E-01 2.56282E-26
3.70590E-01 2.48110E-26
3.74810E-01 2.40234E-26
3.79039E-01 2.32642E-26
3.83277E-01 2.25322E-26
3.87524E-01 2.18262E-26
3.91780E-01 2.11453E-26
3.96044E-01 2.04884E-26
4.00316E-01 1.98546E-26
4.04596E-01 1.92429E-26
4.08882E-01 1.86524E-26
4.13176E-01 1.80823E-26
4.17476E-01 1.75317E-26
4.21783E-01 1.70001E-26
4.26095E-01 1.64864E-26
4.30413E-01 1.59902E-26
4.34737E-01 1.55107E-26
4.39065E-01 1.50473E-26
4.43398E-01 1.45993E-26
4.47736E-01 1.41662E-26
4.52077E-01 1.37473E-26
4.56422E-01 1.33423E-26
4.60770E-01 1.29505E-26
4.65122E-01 1.25715E-26
4.69476E-01 1.22048E-26
4.73832E-01 1.18499E-26
4.78190E-01 1.15064E-26
4.82550E-01 1.11738E-26
4.86912E-01 1.08519E-26
4.91274E-01 1.05402E-26
4.95637E-01 1.02383E-26
5.00000E-01 9.94592E-27
5.04363E-01 9.66267E-27
5.08726E-01 9.38825E-27
5.13088E-01 9.12234E-27
5.17450E-01 8.86464E-27
5.21810E-01 8.61487E-27
5.26168E-01 8.37276E-27
5.30524E-01 8.13803E-27
5.34878E-01 7.91043E-27
5.39230E-01 7.68972E-27
5.43578E-01 7.47566E-27
5.47923E-01 7.26803E-27
5.52264E-01 7.06661E-27
5.56602E-01 6.87118E-27
5.60935E-01 6.68156E-27
5.65263E-01 6.49754E-27
5.69587E-01 6.31894E-27
5.73905E-01 6.14558E-27
5.78217E-01 5.97728E-27
5.82524E-01 5.81389E-27
5.86824E-01 5.65523E-27
5.91118E-01 5.50117E-27
5.95404E-01 5.35153E-27
5.99684E-01 5.20620E-27
6.03956E-01 5.06501E-27
6.08220E-01 4.92785E-27
6.12476E-01 4.79459E-27
6.16723E-01 4.66509E-27
6.20961E-01 4.53925E-27
6.25190E-01 4.41695E-27
6.29410E-01 4.29807E-27
6.33619E-01 4.18250E-27
6.37819E-01 4.07016E-27
6.42008E-01 3.96093E-27
6.46186E-01 3.85472E-27
6.50353E-01 3.75143E-27
6.54508E-01 3.65099E-27
6.58652E-01 3.55329E-27
6.62784E-01 3.45826E-27
6.66903E-01 3.36581E-27
6.71010E-01 3.27588E-27
6.75104E-01 3.18837E-27
6.79184E-01 3.10323E-27
6.83251E-01 3.02037E-27
6.87303E-01 2.93974E-27
6.91342E-01 2.86126E-27
6.95366E-01 2.78488E-27
6.99375E-01 2.71052E-27
7.03368E-01 2.63814E-27
7.07347E-01 2.56766E-27
7.11309E-01 2.49905E-27
7.15256E-01 2.43224E-27
7.19186E-01 2.36718E-27
7.23099E-01 2.30383E-27
7.26995E-01 2.24213E-27
7.30874E-01 2.18203E-27
7.34736E-01 2.12349E-27
7.38579E-01 2.06647E-27
7.42405E-01 2.01092E-27
7.46212E-01 1.95680E-27
7.50000E-01 1.90408E-27
7.53769E-01 1.85270E-27
7.57519E-01 1.80265E-27
7.61249E-01 1.75387E-27
7.64960E-01 1.70633E-27
7.68650E-01 1.66000E-27
7.72320E-01 1.61485E-27
7.75968E-01 1.57084E-27
7.79596E-01 1.52794E-27
7.83203E-01 1.48613E-27
7.86788E-01 1.44536E-27
7.90351E-01 1.40563E-27
7.93893E-01 1.36688E-27
7.97411E-01 1.32911E-27
8.00908E-01 1.29229E-27
8.04381E-01 1.25638E-27
8.07831E-01 1.22137E-27
8.11257E-01 1.18723E-27
8.14660E-01 1.15394E-27
8.18039E-01 1.12147E-27
8.21394E-01 1.08981E-27
8.24724E-01 1.05893E-27
8.28030E-01 1.02882E-27
8.31310E-01 9.99448E-28
8.34565E-01 9.70802E-28
8.37795E-01 9.42863E-28
8.40999E-01 9.15612E-28
8.44177E-01 8.89031E-28
8.47329E-01 8.63104E-28
8.50455E-01 8.37815E-28
8.53553E-01 8.13146E-28
8.56625E-01 7.89084E-28
8.59670E-01 7.65612E-28
8.62687E-01 7.42716E-28
8.65677E-01 7.20382E-28
8.68639E-01 6.98596E-28
8.71572E-01 6.77344E-28
8.74478E-01 6.56614E-28
8.77355E-01 6.36394E-28
8.80203E-01 6.16670E-28
8.83022E-01 5.97430E-28
8.85812E-01 5.78664E-28
8.88573E-01 5.60360E-28
8.91304E-01 5.42507E-28
8.94005E-01 5.25094E-28
8.96677E-01 5.08112E-28
8.99318E-01 4.91549E-28
9.01928E-01 4.75397E-28
9.04508E-01 4.59646E-28
9.07058E-01 4.44287E-28
9.09576E-01 4.29310E-28
9.12063E-01 4.14708E-28
9.14519E-01 4.00471E-28
9.16943E-01 3.86592E-28
9.19335E-01 3.73063E-28
9.21696E-01 3.59875E-28
9.24024E-01 3.47022E-28
9.26320E-01 3.34497E-28
9.28584E-01 3.22291E-28
9.30815E-01 3.10399E-28
9.33013E-01 2.98813E-28
9.35178E-01 2.87527E-28
9.37310E-01 2.76535E-28
9.39409E-01 2.65831E-28
9.41474E-01 2.55409E-28
9.43505E-01 2.45263E-28
9.45503E-01 2.35387E-28
9.47467E-01 2.25776E-28
9.49397E-01 2.16426E-28
9.51293E-01 2.07330E-28
9.53154E-01 1.98484E-28
9.54981E-01 1.89883E-28
9.56773E-01 1.81522E-28
9.58530E-01 1.73397E-28
9.60252E-01 1.65504E-28
9.61940E-01 1.57838E-28
9.63592E-01 1.50395E-28
9.65209E-01 1.43172E-28
9.66790E-01 1.36164E-28
9.68336E-01 1.29368E-28
9.69846E-01 1.22780E-28
9.71321E-01 1.16396E-28
9.72759E-01 1.10214E-28
9.74162E-01 1.04229E-28
9.75528E-01 9.84398E-29
9.76858E-01 9.28423E-29
9.78152E-01 8.74336E-29
9.79410E-01 8.22111E-29
9.80631E-01 7.71720E-29
9.81815E-01 7.23136E-29
9.82963E-01 6.76336E-29
9.84074E-01 6.31294E-29
9.85148E-01 5.87987E-29
9.86185E-01 5.46393E-29
9.87185E-01 5.06490E-29
9.88148E-01 4.68259E-29
9.89074E-01 4.31679E-29
9.89962E-01 3.96732E-29
9.90814E-01 3.63399E-29
9.91627E-01 3.31665E-29
9.92404E-01 3.01512E-29
9.93143E-01 2.72926E-29
9.93844E-01 2.45891E-29
9.94508E-01 2.20394E-29
9.95134E-01 1.96422E-29
9.95722E-01 1.73964E-29
9.96273E-01 1.53006E-29
9.96786E-01 1.33540E-29
9.97261E-01 1.15555E-29
9.97698E-01 9.90417E-30
9.98097E-01 8.39921E-30
9.98459E-01 7.03987E-30
9.98782E-01 5.82544E-30
9.99067E-01 4.75532E-30
9.99315E-01 3.82897E-30
9.99524E-01 3.04592E-30
9.99695E-01 2.40579E-30
9.99829E-01 1.90824E-30
9.99924E-01 1.55302E-30
9.99981E-01 1.33996E-30
1.00000E+00 1.26896E-30
