 #
 # Subroutine ELSEPA. Elastic scattering of electrons and positrons
 #                    by neutral atoms and positive ions
 #
 # Projectile: positron
 # Kinetic energy = 1.50000E+07 eV = 5.51240E+05 a.u.
 #
 # WARNING: High-energy factorization with free-atom DF screening.
 #          Absorption, polarization and exchange corrections are
 #          switched off.
 #          Phase shifts are calculated for the bare nucleus.
 #          Scattering amplitudes are not evaluated.
 #
 # Element: Rh,  Z =  45,  atomic weight = 1.02906E+02 g/mol
 #
 # Nuclear model: Fermi distribution
 #                Average radius = 5.01414E-13 cm
 #                Skin thickness = 5.46000E-14 cm
 #
 # Number of electrons = 45
 #
 # Total elastic cross section = 4.21507E-18 cm**2 = 1.50523E-01 a0**2
 # 1st transport cross section = 1.32863E-23 cm**2 = 4.74463E-07 a0**2
 # 2nd transport cross section = 3.85761E-23 cm**2 = 1.37758E-06 a0**2
 #
 #
 # Differential cross section:                       MU=(1-COS(THETA))/2
 #
 #  THETA        MU          DCS          DCS        Sherman      error
 #  (deg)                 (cm**2/sr)   (a0**2/sr)    function
 #----------------------------------------------------------------------
0.00000E+00 7.63906E-12
7.61557E-13 7.63860E-12
1.18994E-12 7.63834E-12
1.71346E-12 7.63804E-12
2.33225E-12 7.63767E-12
3.04617E-12 7.63726E-12
3.85530E-12 7.63678E-12
4.75964E-12 7.63625E-12
5.75917E-12 7.63567E-12
6.85391E-12 7.63503E-12
8.04379E-12 7.63434E-12
9.32893E-12 7.63359E-12
1.07092E-11 7.63279E-12
1.21847E-11 7.63193E-12
1.37554E-11 7.63102E-12
1.54213E-11 7.63005E-12
1.71823E-11 7.62902E-12
1.90386E-11 7.62795E-12
2.09900E-11 7.62681E-12
2.30367E-11 7.62563E-12
2.51785E-11 7.62439E-12
2.74156E-11 7.62309E-12
2.97478E-11 7.62174E-12
3.21752E-11 7.62034E-12
3.46979E-11 7.61888E-12
3.73157E-11 7.61736E-12
4.00286E-11 7.61579E-12
4.28368E-11 7.61417E-12
4.57402E-11 7.61250E-12
4.87388E-11 7.61077E-12
5.18325E-11 7.60898E-12
5.50215E-11 7.60714E-12
5.83057E-11 7.60525E-12
6.16850E-11 7.60330E-12
6.51595E-11 7.60130E-12
6.87293E-11 7.59925E-12
7.23943E-11 7.59714E-12
7.61544E-11 7.59498E-12
1.18991E-10 7.57046E-12
1.71347E-10 7.54071E-12
2.33223E-10 7.50583E-12
3.04617E-10 7.46598E-12
3.85531E-10 7.42131E-12
4.75965E-10 7.37199E-12
5.75917E-10 7.31821E-12
6.85389E-10 7.26017E-12
8.04380E-10 7.19808E-12
9.32891E-10 7.13215E-12
1.07092E-09 7.06230E-12
1.21847E-09 6.98926E-12
1.37554E-09 6.91341E-12
1.54213E-09 6.83464E-12
1.71823E-09 6.75271E-12
1.90386E-09 6.66877E-12
2.09900E-09 6.58311E-12
2.30367E-09 6.49475E-12
2.51785E-09 6.40479E-12
2.74156E-09 6.31387E-12
2.97478E-09 6.22181E-12
3.21752E-09 6.12780E-12
3.46978E-09 6.03352E-12
3.73156E-09 5.93920E-12
4.00286E-09 5.84359E-12
4.28368E-09 5.74766E-12
4.57402E-09 5.65226E-12
4.87388E-09 5.55721E-12
5.18326E-09 5.46110E-12
5.50215E-09 5.36598E-12
5.83057E-09 5.27198E-12
6.16850E-09 5.17781E-12
6.51596E-09 5.08409E-12
6.87293E-09 4.99183E-12
7.23942E-09 4.90095E-12
7.61544E-09 4.80949E-12
1.18991E-08 3.96817E-12
1.71347E-08 3.26020E-12
2.33223E-08 2.68063E-12
3.04617E-08 2.21128E-12
3.85531E-08 1.83132E-12
4.75965E-08 1.52270E-12
5.75917E-08 1.27096E-12
6.85389E-08 1.06458E-12
8.04380E-08 8.94861E-13
9.32891E-08 7.54958E-13
1.07092E-07 6.32434E-13
1.21847E-07 5.35669E-13
1.37554E-07 4.59627E-13
1.54213E-07 3.96005E-13
1.71823E-07 3.38793E-13
1.90386E-07 2.92753E-13
2.09900E-07 2.55314E-13
2.30367E-07 2.22054E-13
2.51785E-07 1.93961E-13
2.74156E-07 1.70659E-13
2.97478E-07 1.50902E-13
3.21752E-07 1.33429E-13
3.46978E-07 1.18671E-13
3.73156E-07 1.06126E-13
4.00286E-07 9.50900E-14
4.28368E-07 8.54848E-14
4.57402E-07 7.71995E-14
4.87388E-07 6.99831E-14
5.18325E-07 6.35164E-14
5.50215E-07 5.78674E-14
5.83057E-07 5.29117E-14
6.16850E-07 4.84600E-14
6.51596E-07 4.44752E-14
6.87293E-07 4.09441E-14
7.23942E-07 3.77971E-14
7.61543E-07 3.48932E-14
1.18991E-06 1.72165E-14
1.71347E-06 9.37489E-15
2.33223E-06 5.45100E-15
3.04617E-06 3.34920E-15
3.85531E-06 2.16398E-15
4.75964E-06 1.46017E-15
5.75916E-06 1.02212E-15
6.85388E-06 7.38229E-16
8.04378E-06 5.47271E-16
9.32888E-06 4.14578E-16
1.07092E-05 3.19712E-16
1.21846E-05 2.50697E-16
1.37553E-05 1.99384E-16
1.54212E-05 1.60355E-16
1.71822E-05 1.30431E-16
1.90385E-05 1.07138E-16
2.09899E-05 8.88035E-17
2.30365E-05 7.41971E-17
2.51783E-05 6.24604E-17
2.74153E-05 5.29374E-17
2.97475E-05 4.51402E-17
3.21749E-05 3.87258E-17
3.46974E-05 3.34112E-17
3.73152E-05 2.89732E-17
4.00281E-05 2.52490E-17
4.28362E-05 2.21051E-17
4.57395E-05 1.94346E-17
4.87380E-05 1.71539E-17
5.18317E-05 1.51980E-17
5.50205E-05 1.35128E-17
5.83045E-05 1.20540E-17
6.16838E-05 1.07872E-17
6.51582E-05 9.68298E-18
6.87277E-05 8.71664E-18
7.23925E-05 7.86810E-18
7.61524E-05 7.12063E-18
9.21439E-05 4.88837E-18
1.09658E-04 3.46645E-18
1.28695E-04 2.52625E-18
1.49255E-04 1.88415E-18
1.71338E-04 1.43372E-18
1.94942E-04 1.11009E-18
2.20070E-04 8.72768E-19
2.46720E-04 6.95546E-19
2.74892E-04 5.61043E-19
3.04586E-04 4.57500E-19
3.35803E-04 3.76737E-19
3.68542E-04 3.13007E-19
4.02802E-04 2.62177E-19
4.38585E-04 2.21239E-19
4.75889E-04 1.87974E-19
5.14715E-04 1.60720E-19
5.55063E-04 1.38221E-19
5.96931E-04 1.19517E-19
6.40321E-04 1.03866E-19
6.85233E-04 9.06894E-20
7.31665E-04 7.95330E-20
7.79618E-04 7.00370E-20
8.29092E-04 6.19136E-20
8.80086E-04 5.49320E-20
9.32601E-04 4.89050E-20
9.86636E-04 4.36803E-20
1.04219E-03 3.91337E-20
1.09927E-03 3.51620E-20
1.15786E-03 3.16804E-20
1.21797E-03 2.86182E-20
1.27961E-03 2.59163E-20
1.34276E-03 2.35251E-20
1.40743E-03 2.14027E-20
1.47362E-03 1.95138E-20
1.54133E-03 1.78281E-20
1.61056E-03 1.63201E-20
1.68131E-03 1.49678E-20
1.75357E-03 1.37523E-20
1.82735E-03 1.26574E-20
1.90265E-03 1.16691E-20
1.97947E-03 1.07750E-20
2.05780E-03 9.96473E-21
2.13765E-03 9.22898E-21
2.21902E-03 8.55969E-21
2.30190E-03 7.94981E-21
2.38630E-03 7.39312E-21
2.47222E-03 6.88416E-21
2.55965E-03 6.41812E-21
2.64859E-03 5.99074E-21
2.73905E-03 5.59822E-21
2.83103E-03 5.23723E-21
2.92452E-03 4.90477E-21
3.01952E-03 4.59819E-21
3.11604E-03 4.31511E-21
3.21407E-03 4.05341E-21
3.31362E-03 3.81118E-21
3.41468E-03 3.58671E-21
3.51725E-03 3.37847E-21
3.62133E-03 3.18507E-21
3.72692E-03 3.00526E-21
3.83403E-03 2.83791E-21
3.94265E-03 2.68201E-21
4.05278E-03 2.53663E-21
4.16442E-03 2.40092E-21
4.27757E-03 2.27414E-21
4.39223E-03 2.15558E-21
4.50840E-03 2.04462E-21
4.62608E-03 1.94067E-21
4.74527E-03 1.84322E-21
4.86597E-03 1.75179E-21
4.98817E-03 1.66593E-21
5.11188E-03 1.58525E-21
5.23711E-03 1.50937E-21
5.36383E-03 1.43795E-21
5.49207E-03 1.37070E-21
5.62181E-03 1.30731E-21
5.75306E-03 1.24752E-21
5.88581E-03 1.19110E-21
6.02007E-03 1.13782E-21
6.15583E-03 1.08747E-21
6.29310E-03 1.03986E-21
6.43187E-03 9.94821E-22
6.57214E-03 9.52179E-22
6.71392E-03 9.11786E-22
6.85720E-03 8.73502E-22
7.00198E-03 8.37196E-22
7.14827E-03 8.02748E-22
7.29605E-03 7.70045E-22
7.44534E-03 7.38981E-22
7.59612E-03 7.09461E-22
7.97965E-03 6.41826E-22
8.37255E-03 5.82023E-22
8.77480E-03 5.28991E-22
9.18641E-03 4.81834E-22
9.60736E-03 4.39788E-22
1.00376E-02 4.02205E-22
1.04773E-02 3.68530E-22
1.09262E-02 3.38288E-22
1.13844E-02 3.11067E-22
1.18520E-02 2.86514E-22
1.23288E-02 2.64321E-22
1.28150E-02 2.44223E-22
1.33104E-02 2.25988E-22
1.38150E-02 2.09413E-22
1.43290E-02 1.94319E-22
1.48521E-02 1.80553E-22
1.53845E-02 1.67976E-22
1.59262E-02 1.56468E-22
1.64770E-02 1.45922E-22
1.70371E-02 1.36243E-22
1.76063E-02 1.27347E-22
1.81848E-02 1.19161E-22
1.87724E-02 1.11617E-22
1.93692E-02 1.04657E-22
1.99751E-02 9.82258E-23
2.05901E-02 9.22775E-23
2.12143E-02 8.67694E-23
2.18476E-02 8.16629E-23
2.24900E-02 7.69233E-23
2.31415E-02 7.25196E-23
2.38021E-02 6.84241E-23
2.44717E-02 6.46113E-23
2.51504E-02 6.10580E-23
2.58382E-02 5.77433E-23
2.65349E-02 5.46486E-23
2.72407E-02 5.17567E-23
2.79555E-02 4.90518E-23
2.86793E-02 4.65195E-23
2.94120E-02 4.41470E-23
3.01537E-02 4.19224E-23
3.09043E-02 3.98349E-23
3.16639E-02 3.78744E-23
3.24324E-02 3.60318E-23
3.32098E-02 3.42987E-23
3.39961E-02 3.26676E-23
3.47912E-02 3.11314E-23
3.55952E-02 2.96833E-23
3.64081E-02 2.83175E-23
3.72297E-02 2.70287E-23
3.80602E-02 2.58115E-23
3.88995E-02 2.46613E-23
3.97476E-02 2.35737E-23
4.06044E-02 2.25447E-23
4.14700E-02 2.15707E-23
4.23443E-02 2.06481E-23
4.32273E-02 1.97735E-23
4.41190E-02 1.89445E-23
4.50194E-02 1.81579E-23
4.59284E-02 1.74110E-23
4.68461E-02 1.67018E-23
4.87074E-02 1.53872E-23
5.06030E-02 1.41978E-23
5.25328E-02 1.31198E-23
5.44967E-02 1.21408E-23
5.64946E-02 1.12504E-23
5.85262E-02 1.04390E-23
6.05914E-02 9.69849E-24
6.26901E-02 9.02157E-24
6.48222E-02 8.40188E-24
6.69873E-02 7.83373E-24
6.91854E-02 7.31210E-24
7.14163E-02 6.83253E-24
7.36799E-02 6.39103E-24
7.59760E-02 5.98407E-24
7.83043E-02 5.60847E-24
8.06647E-02 5.26140E-24
8.30571E-02 4.94033E-24
8.54812E-02 4.64296E-24
8.79369E-02 4.36725E-24
9.04240E-02 4.11135E-24
9.29422E-02 3.87358E-24
9.54915E-02 3.65244E-24
9.80716E-02 3.44657E-24
1.00682E-01 3.25473E-24
1.03323E-01 3.07579E-24
1.05995E-01 2.90874E-24
1.08696E-01 2.75265E-24
1.11427E-01 2.60668E-24
1.14188E-01 2.47006E-24
1.16978E-01 2.34208E-24
1.19797E-01 2.22211E-24
1.22645E-01 2.10955E-24
1.25522E-01 2.00387E-24
1.28428E-01 1.90458E-24
1.31361E-01 1.81122E-24
1.34323E-01 1.72337E-24
1.37313E-01 1.64066E-24
1.40330E-01 1.56273E-24
1.43375E-01 1.48926E-24
1.46447E-01 1.41995E-24
1.49545E-01 1.35452E-24
1.52671E-01 1.29272E-24
1.55823E-01 1.23430E-24
1.59001E-01 1.17907E-24
1.62205E-01 1.12680E-24
1.65435E-01 1.07731E-24
1.68690E-01 1.03044E-24
1.71970E-01 9.86010E-25
1.75276E-01 9.43882E-25
1.78606E-01 9.03911E-25
1.81961E-01 8.65970E-25
1.85340E-01 8.29938E-25
1.88743E-01 7.95701E-25
1.92169E-01 7.63154E-25
1.95619E-01 7.32201E-25
1.99092E-01 7.02749E-25
2.02589E-01 6.74714E-25
2.06107E-01 6.48015E-25
2.09649E-01 6.22577E-25
2.13212E-01 5.98331E-25
2.16797E-01 5.75212E-25
2.20404E-01 5.53158E-25
2.24032E-01 5.32112E-25
2.27680E-01 5.12019E-25
2.31350E-01 4.92829E-25
2.35040E-01 4.74495E-25
2.38751E-01 4.56972E-25
2.42481E-01 4.40217E-25
2.46231E-01 4.24192E-25
2.50000E-01 4.08860E-25
2.53788E-01 3.94184E-25
2.57595E-01 3.80133E-25
2.61421E-01 3.66675E-25
2.65264E-01 3.53781E-25
2.69126E-01 3.41423E-25
2.73005E-01 3.29575E-25
2.76901E-01 3.18213E-25
2.80814E-01 3.07313E-25
2.84744E-01 2.96853E-25
2.88691E-01 2.86813E-25
2.92653E-01 2.77173E-25
2.96632E-01 2.67914E-25
3.00625E-01 2.59019E-25
3.04634E-01 2.50470E-25
3.08658E-01 2.42253E-25
3.12697E-01 2.34351E-25
3.16749E-01 2.26752E-25
3.20816E-01 2.19441E-25
3.24896E-01 2.12406E-25
3.28990E-01 2.05635E-25
3.33097E-01 1.99115E-25
3.37216E-01 1.92837E-25
3.41348E-01 1.86789E-25
3.45492E-01 1.80962E-25
3.49647E-01 1.75346E-25
3.53814E-01 1.69933E-25
3.57992E-01 1.64714E-25
3.62181E-01 1.59681E-25
3.66381E-01 1.54826E-25
3.70590E-01 1.50141E-25
3.74810E-01 1.45621E-25
3.79039E-01 1.41258E-25
3.83277E-01 1.37045E-25
3.87524E-01 1.32977E-25
3.91780E-01 1.29048E-25
3.96044E-01 1.25253E-25
4.00316E-01 1.21585E-25
4.04596E-01 1.18041E-25
4.08882E-01 1.14615E-25
4.13176E-01 1.11303E-25
4.17476E-01 1.08100E-25
4.21783E-01 1.05002E-25
4.26095E-01 1.02005E-25
4.30413E-01 9.91059E-26
4.34737E-01 9.63002E-26
4.39065E-01 9.35846E-26
4.43398E-01 9.09558E-26
4.47736E-01 8.84105E-26
4.52077E-01 8.59456E-26
4.56422E-01 8.35583E-26
4.60770E-01 8.12457E-26
4.65122E-01 7.90051E-26
4.69476E-01 7.68339E-26
4.73832E-01 7.47296E-26
4.78190E-01 7.26898E-26
4.82550E-01 7.07122E-26
4.86912E-01 6.87947E-26
4.91274E-01 6.69350E-26
4.95637E-01 6.51313E-26
5.00000E-01 6.33816E-26
5.04363E-01 6.16839E-26
5.08726E-01 6.00366E-26
5.13088E-01 5.84378E-26
5.17450E-01 5.68860E-26
5.21810E-01 5.53795E-26
5.26168E-01 5.39168E-26
5.30524E-01 5.24965E-26
5.34878E-01 5.11171E-26
5.39230E-01 4.97773E-26
5.43578E-01 4.84758E-26
5.47923E-01 4.72112E-26
5.52264E-01 4.59825E-26
5.56602E-01 4.47884E-26
5.60935E-01 4.36278E-26
5.65263E-01 4.24996E-26
5.69587E-01 4.14028E-26
5.73905E-01 4.03365E-26
5.78217E-01 3.92995E-26
5.82524E-01 3.82910E-26
5.86824E-01 3.73102E-26
5.91118E-01 3.63560E-26
5.95404E-01 3.54278E-26
5.99684E-01 3.45247E-26
6.03956E-01 3.36458E-26
6.08220E-01 3.27906E-26
6.12476E-01 3.19581E-26
6.16723E-01 3.11479E-26
6.20961E-01 3.03591E-26
6.25190E-01 2.95911E-26
6.29410E-01 2.88434E-26
6.33619E-01 2.81152E-26
6.37819E-01 2.74061E-26
6.42008E-01 2.67154E-26
6.46186E-01 2.60426E-26
6.50353E-01 2.53872E-26
6.54508E-01 2.47486E-26
6.58652E-01 2.41265E-26
6.62784E-01 2.35202E-26
6.66903E-01 2.29294E-26
6.71010E-01 2.23535E-26
6.75104E-01 2.17922E-26
6.79184E-01 2.12451E-26
6.83251E-01 2.07118E-26
6.87303E-01 2.01917E-26
6.91342E-01 1.96847E-26
6.95366E-01 1.91903E-26
6.99375E-01 1.87081E-26
7.03368E-01 1.82379E-26
7.07347E-01 1.77793E-26
7.11309E-01 1.73319E-26
7.15256E-01 1.68955E-26
7.19186E-01 1.64698E-26
7.23099E-01 1.60545E-26
7.26995E-01 1.56492E-26
7.30874E-01 1.52537E-26
7.34736E-01 1.48678E-26
7.38579E-01 1.44913E-26
7.42405E-01 1.41237E-26
7.46212E-01 1.37650E-26
7.50000E-01 1.34148E-26
7.53769E-01 1.30730E-26
7.57519E-01 1.27394E-26
7.61249E-01 1.24136E-26
7.64960E-01 1.20956E-26
7.68650E-01 1.17850E-26
7.72320E-01 1.14818E-26
7.75968E-01 1.11858E-26
7.79596E-01 1.08967E-26
7.83203E-01 1.06143E-26
7.86788E-01 1.03386E-26
7.90351E-01 1.00692E-26
7.93893E-01 9.80620E-27
7.97411E-01 9.54927E-27
8.00908E-01 9.29831E-27
8.04381E-01 9.05316E-27
8.07831E-01 8.81368E-27
8.11257E-01 8.57973E-27
8.14660E-01 8.35118E-27
8.18039E-01 8.12790E-27
8.21394E-01 7.90975E-27
8.24724E-01 7.69661E-27
8.28030E-01 7.48837E-27
8.31310E-01 7.28490E-27
8.34565E-01 7.08609E-27
8.37795E-01 6.89184E-27
8.40999E-01 6.70202E-27
8.44177E-01 6.51655E-27
8.47329E-01 6.33531E-27
8.50455E-01 6.15822E-27
8.53553E-01 5.98516E-27
8.56625E-01 5.81606E-27
8.59670E-01 5.65081E-27
8.62687E-01 5.48934E-27
8.65677E-01 5.33156E-27
8.68639E-01 5.17737E-27
8.71572E-01 5.02671E-27
8.74478E-01 4.87950E-27
8.77355E-01 4.73565E-27
8.80203E-01 4.59509E-27
8.83022E-01 4.45776E-27
8.85812E-01 4.32358E-27
8.88573E-01 4.19248E-27
8.91304E-01 4.06439E-27
8.94005E-01 3.93926E-27
8.96677E-01 3.81702E-27
8.99318E-01 3.69760E-27
9.01928E-01 3.58095E-27
9.04508E-01 3.46702E-27
9.07058E-01 3.35573E-27
9.09576E-01 3.24705E-27
9.12063E-01 3.14092E-27
9.14519E-01 3.03728E-27
9.16943E-01 2.93609E-27
9.19335E-01 2.83729E-27
9.21696E-01 2.74084E-27
9.24024E-01 2.64670E-27
9.26320E-01 2.55481E-27
9.28584E-01 2.46514E-27
9.30815E-01 2.37764E-27
9.33013E-01 2.29227E-27
9.35178E-01 2.20900E-27
9.37310E-01 2.12777E-27
9.39409E-01 2.04856E-27
9.41474E-01 1.97133E-27
9.43505E-01 1.89604E-27
9.45503E-01 1.82266E-27
9.47467E-01 1.75115E-27
9.49397E-01 1.68148E-27
9.51293E-01 1.61363E-27
9.53154E-01 1.54755E-27
9.54981E-01 1.48322E-27
9.56773E-01 1.42061E-27
9.58530E-01 1.35969E-27
9.60252E-01 1.30043E-27
9.61940E-01 1.24281E-27
9.63592E-01 1.18681E-27
9.65209E-01 1.13239E-27
9.66790E-01 1.07954E-27
9.68336E-01 1.02822E-27
9.69846E-01 9.78424E-28
9.71321E-01 9.30122E-28
9.72759E-01 8.83294E-28
9.74162E-01 8.37919E-28
9.75528E-01 7.93978E-28
9.76858E-01 7.51452E-28
9.78152E-01 7.10323E-28
9.79410E-01 6.70572E-28
9.80631E-01 6.32182E-28
9.81815E-01 5.95137E-28
9.82963E-01 5.59421E-28
9.84074E-01 5.25018E-28
9.85148E-01 4.91914E-28
9.86185E-01 4.60095E-28
9.87185E-01 4.29547E-28
9.88148E-01 4.00257E-28
9.89074E-01 3.72213E-28
9.89962E-01 3.45402E-28
9.90814E-01 3.19813E-28
9.91627E-01 2.95437E-28
9.92404E-01 2.72261E-28
9.93143E-01 2.50276E-28
9.93844E-01 2.29474E-28
9.94508E-01 2.09845E-28
9.95134E-01 1.91382E-28
9.95722E-01 1.74075E-28
9.96273E-01 1.57919E-28
9.96786E-01 1.42906E-28
9.97261E-01 1.29031E-28
9.97698E-01 1.16286E-28
9.98097E-01 1.04667E-28
9.98459E-01 9.41700E-29
9.98782E-01 8.47893E-29
9.99067E-01 7.65213E-29
9.99315E-01 6.93627E-29
9.99524E-01 6.33104E-29
9.99695E-01 5.83620E-29
9.99829E-01 5.45153E-29
9.99924E-01 5.17689E-29
9.99981E-01 5.01215E-29
1.00000E+00 4.95724E-29
