 #
 # Subroutine ELSEPA. Elastic scattering of electrons and positrons
 #                    by neutral atoms and positive ions
 #
 # Projectile: positron
 # Kinetic energy = 1.50000E+08 eV = 5.51240E+06 a.u.
 #
 # WARNING: High-energy factorization with free-atom DF screening.
 #          Absorption, polarization and exchange corrections are
 #          switched off.
 #          Phase shifts are calculated for the bare nucleus.
 #          Scattering amplitudes are not evaluated.
 #
 # Element: Rh,  Z =  45,  atomic weight = 1.02906E+02 g/mol
 #
 # Nuclear model: Fermi distribution
 #                Average radius = 5.01414E-13 cm
 #                Skin thickness = 5.46000E-14 cm
 #
 # Number of electrons = 45
 #
 # Total elastic cross section = 4.21179E-18 cm**2 = 1.50406E-01 a0**2
 # 1st transport cross section = 1.74739E-25 cm**2 = 6.24004E-09 a0**2
 # 2nd transport cross section = 5.21805E-25 cm**2 = 1.86340E-08 a0**2
 #
 #
 # Differential cross section:                       MU=(1-COS(THETA))/2
 #
 #  THETA        MU          DCS          DCS        Sherman      error
 #  (deg)                 (cm**2/sr)   (a0**2/sr)    function
 #----------------------------------------------------------------------
0.00000E+00 7.19278E-10
7.61557E-13 7.15369E-10
1.18994E-12 7.13191E-10
1.71346E-12 7.10548E-10
2.33225E-12 7.07449E-10
3.04617E-12 7.03905E-10
3.85530E-12 6.99930E-10
4.75964E-12 6.95538E-10
5.75917E-12 6.90746E-10
6.85391E-12 6.85569E-10
8.04379E-12 6.80026E-10
9.32893E-12 6.74135E-10
1.07092E-11 6.67900E-10
1.21847E-11 6.61349E-10
1.37554E-11 6.54536E-10
1.54213E-11 6.47486E-10
1.71823E-11 6.40133E-10
1.90386E-11 6.32561E-10
2.09900E-11 6.24822E-10
2.30367E-11 6.16920E-10
2.51785E-11 6.08767E-10
2.74156E-11 6.00514E-10
2.97478E-11 5.92182E-10
3.21752E-11 5.83709E-10
3.46979E-11 5.75108E-10
3.73157E-11 5.66488E-10
4.00286E-11 5.57867E-10
4.28368E-11 5.49101E-10
4.57402E-11 5.40338E-10
4.87388E-11 5.31621E-10
5.18325E-11 5.22927E-10
5.50215E-11 5.14143E-10
5.83057E-11 5.05448E-10
6.16850E-11 4.96852E-10
6.51595E-11 4.88249E-10
6.87293E-11 4.79670E-10
7.23943E-11 4.71219E-10
7.61544E-11 4.62904E-10
1.18991E-10 3.84411E-10
1.71347E-10 3.17668E-10
2.33223E-10 2.62645E-10
3.04617E-10 2.17756E-10
3.85531E-10 1.81129E-10
4.75965E-10 1.51247E-10
5.75917E-10 1.26769E-10
6.85389E-10 1.06618E-10
8.04380E-10 8.99585E-11
9.32891E-10 7.61692E-11
1.07092E-09 6.43239E-11
1.21847E-09 5.44165E-11
1.37554E-09 4.66250E-11
1.54213E-09 4.04183E-11
1.71823E-09 3.47419E-11
1.90386E-09 2.99865E-11
2.09900E-09 2.61187E-11
2.30367E-09 2.29013E-11
2.51785E-09 1.99850E-11
2.74156E-09 1.75658E-11
2.97478E-09 1.55434E-11
3.21752E-09 1.37879E-11
3.46978E-09 1.22516E-11
3.73156E-09 1.09458E-11
4.00286E-09 9.82938E-12
4.28368E-09 8.83543E-12
4.57402E-09 7.97176E-12
4.87388E-09 7.22318E-12
5.18326E-09 6.56729E-12
5.50215E-09 5.97794E-12
5.83057E-09 5.46105E-12
6.16850E-09 5.00590E-12
6.51596E-09 4.59643E-12
6.87293E-09 4.22788E-12
7.23942E-09 3.90027E-12
7.61544E-09 3.60809E-12
1.18991E-08 1.78384E-12
1.71347E-08 9.76671E-13
2.33223E-08 5.71054E-13
3.04617E-08 3.52063E-13
3.85531E-08 2.27738E-13
4.75965E-08 1.53768E-13
5.75917E-08 1.07663E-13
6.85389E-08 7.77619E-14
8.04380E-08 5.76590E-14
9.32891E-08 4.36973E-14
1.07092E-07 3.37166E-14
1.21847E-07 2.64622E-14
1.37554E-07 2.10378E-14
1.54213E-07 1.69393E-14
1.71823E-07 1.37923E-14
1.90386E-07 1.13322E-14
2.09900E-07 9.39632E-15
2.30367E-07 7.85590E-15
2.51785E-07 6.61475E-15
2.74156E-07 5.60835E-15
2.97478E-07 4.78600E-15
3.21752E-07 4.10781E-15
3.46978E-07 3.54509E-15
3.73156E-07 3.07549E-15
4.00286E-07 2.68084E-15
4.28368E-07 2.34726E-15
4.57402E-07 2.06405E-15
4.87388E-07 1.82227E-15
5.18325E-07 1.61475E-15
5.50215E-07 1.43600E-15
5.83057E-07 1.28137E-15
6.16850E-07 1.14692E-15
6.51596E-07 1.02971E-15
6.87293E-07 9.27126E-16
7.23942E-07 8.36986E-16
7.61543E-07 7.57561E-16
1.18991E-06 3.14359E-16
1.71347E-06 1.53028E-16
2.33223E-06 8.31638E-17
3.04617E-06 4.89891E-17
3.85531E-06 3.06931E-17
4.75964E-06 2.01906E-17
5.75916E-06 1.38172E-17
6.85388E-06 9.77003E-18
8.04378E-06 7.10103E-18
9.32888E-06 5.28375E-18
1.07092E-05 4.01200E-18
1.21846E-05 3.10066E-18
1.37553E-05 2.43386E-18
1.54212E-05 1.93695E-18
1.71822E-05 1.56056E-18
1.90385E-05 1.27099E-18
2.09899E-05 1.04604E-18
2.30365E-05 8.68642E-19
2.51783E-05 7.27199E-19
2.74153E-05 6.13323E-19
2.97475E-05 5.20841E-19
3.21749E-05 4.45139E-19
3.46974E-05 3.82715E-19
3.73152E-05 3.30877E-19
4.00281E-05 2.87540E-19
4.28362E-05 2.51076E-19
4.57395E-05 2.20210E-19
4.87380E-05 1.93937E-19
5.18317E-05 1.71458E-19
5.50205E-05 1.52137E-19
5.83045E-05 1.35459E-19
6.16838E-05 1.21004E-19
6.51582E-05 1.08428E-19
6.87277E-05 9.74458E-20
7.23925E-05 8.78205E-20
7.61524E-05 7.93956E-20
9.21439E-05 5.42030E-20
1.09658E-04 3.82503E-20
1.28695E-04 2.77572E-20
1.49255E-04 2.06246E-20
1.71338E-04 1.56422E-20
1.94942E-04 1.20762E-20
2.20070E-04 9.47017E-21
2.46720E-04 7.53018E-21
2.74892E-04 6.06192E-21
3.04586E-04 4.93443E-21
3.35803E-04 4.05694E-21
3.68542E-04 3.36591E-21
4.02802E-04 2.81574E-21
4.38585E-04 2.37336E-21
4.75889E-04 2.01442E-21
5.14715E-04 1.72070E-21
5.55063E-04 1.47854E-21
5.96931E-04 1.27742E-21
6.40321E-04 1.10930E-21
6.85233E-04 9.67885E-22
7.31665E-04 8.48247E-22
7.79618E-04 7.46491E-22
8.29092E-04 6.59500E-22
8.80086E-04 5.84782E-22
9.32601E-04 5.20320E-22
9.86636E-04 4.64470E-22
1.04219E-03 4.15891E-22
1.09927E-03 3.73476E-22
1.15786E-03 3.36313E-22
1.21797E-03 3.03640E-22
1.27961E-03 2.74823E-22
1.34276E-03 2.49329E-22
1.40743E-03 2.26710E-22
1.47362E-03 2.06587E-22
1.54133E-03 1.88635E-22
1.61056E-03 1.72581E-22
1.68131E-03 1.58190E-22
1.75357E-03 1.45259E-22
1.82735E-03 1.33614E-22
1.90265E-03 1.23106E-22
1.97947E-03 1.13603E-22
2.05780E-03 1.04994E-22
2.13765E-03 9.71791E-23
2.21902E-03 9.00724E-23
2.30190E-03 8.35985E-23
2.38630E-03 7.76911E-23
2.47222E-03 7.22921E-23
2.55965E-03 6.73499E-23
2.64859E-03 6.28190E-23
2.73905E-03 5.86592E-23
2.83103E-03 5.48348E-23
2.92452E-03 5.13139E-23
3.01952E-03 4.80682E-23
3.11604E-03 4.50724E-23
3.21407E-03 4.23037E-23
3.31362E-03 3.97420E-23
3.41468E-03 3.73691E-23
3.51725E-03 3.51684E-23
3.62133E-03 3.31254E-23
3.72692E-03 3.12267E-23
3.83403E-03 2.94604E-23
3.94265E-03 2.78154E-23
4.05278E-03 2.62821E-23
4.16442E-03 2.48515E-23
4.27757E-03 2.35155E-23
4.39223E-03 2.22667E-23
4.50840E-03 2.10985E-23
4.62608E-03 2.00046E-23
4.74527E-03 1.89796E-23
4.86597E-03 1.80183E-23
4.98817E-03 1.71160E-23
5.11188E-03 1.62685E-23
5.23711E-03 1.54719E-23
5.36383E-03 1.47226E-23
5.49207E-03 1.40172E-23
5.62181E-03 1.33528E-23
5.75306E-03 1.27265E-23
5.88581E-03 1.21357E-23
6.02007E-03 1.15782E-23
6.15583E-03 1.10516E-23
6.29310E-03 1.05539E-23
6.43187E-03 1.00834E-23
6.57214E-03 9.63818E-24
6.71392E-03 9.21672E-24
6.85720E-03 8.81751E-24
7.00198E-03 8.43917E-24
7.14827E-03 8.08041E-24
7.29605E-03 7.74004E-24
7.44534E-03 7.41696E-24
7.59612E-03 7.11012E-24
7.97965E-03 6.40798E-24
8.37255E-03 5.78824E-24
8.77480E-03 5.23968E-24
9.18641E-03 4.75281E-24
9.60736E-03 4.31957E-24
1.00376E-02 3.93312E-24
1.04773E-02 3.58758E-24
1.09262E-02 3.27794E-24
1.13844E-02 2.99986E-24
1.18520E-02 2.74962E-24
1.23288E-02 2.52399E-24
1.28150E-02 2.32016E-24
1.33104E-02 2.13569E-24
1.38150E-02 1.96846E-24
1.43290E-02 1.81659E-24
1.48521E-02 1.67846E-24
1.53845E-02 1.55262E-24
1.59262E-02 1.43781E-24
1.64770E-02 1.33292E-24
1.70371E-02 1.23695E-24
1.76063E-02 1.14904E-24
1.81848E-02 1.06839E-24
1.87724E-02 9.94313E-25
1.93692E-02 9.26198E-25
1.99751E-02 8.63490E-25
2.05901E-02 8.05694E-25
2.12143E-02 7.52367E-25
2.18476E-02 7.03113E-25
2.24900E-02 6.57573E-25
2.31415E-02 6.15427E-25
2.38021E-02 5.76385E-25
2.44717E-02 5.40183E-25
2.51504E-02 5.06586E-25
2.58382E-02 4.75380E-25
2.65349E-02 4.46368E-25
2.72407E-02 4.19376E-25
2.79555E-02 3.94242E-25
2.86793E-02 3.70821E-25
2.94120E-02 3.48980E-25
3.01537E-02 3.28596E-25
3.09043E-02 3.09561E-25
3.16639E-02 2.91771E-25
3.24324E-02 2.75135E-25
3.32098E-02 2.59568E-25
3.39961E-02 2.44991E-25
3.47912E-02 2.31334E-25
3.55952E-02 2.18531E-25
3.64081E-02 2.06521E-25
3.72297E-02 1.95249E-25
3.80602E-02 1.84663E-25
3.88995E-02 1.74718E-25
3.97476E-02 1.65368E-25
4.06044E-02 1.56575E-25
4.14700E-02 1.48300E-25
4.23443E-02 1.40509E-25
4.32273E-02 1.33172E-25
4.41190E-02 1.26257E-25
4.50194E-02 1.19738E-25
4.59284E-02 1.13590E-25
4.68461E-02 1.07789E-25
4.87074E-02 9.71421E-26
5.06030E-02 8.76405E-26
5.25328E-02 7.91481E-26
5.44967E-02 7.15470E-26
5.64946E-02 6.47343E-26
5.85262E-02 5.86203E-26
6.05914E-02 5.31266E-26
6.26901E-02 4.81845E-26
6.48222E-02 4.37335E-26
6.69873E-02 3.97207E-26
6.91854E-02 3.60992E-26
7.14163E-02 3.28278E-26
7.36799E-02 2.98698E-26
7.59760E-02 2.71930E-26
7.83043E-02 2.47686E-26
8.06647E-02 2.25710E-26
8.30571E-02 2.05776E-26
8.54812E-02 1.87681E-26
8.79369E-02 1.71244E-26
9.04240E-02 1.56304E-26
9.29422E-02 1.42716E-26
9.54915E-02 1.30351E-26
9.80716E-02 1.19092E-26
1.00682E-01 1.08835E-26
1.03323E-01 9.94874E-27
1.05995E-01 9.09634E-27
1.08696E-01 8.31876E-27
1.11427E-01 7.60912E-27
1.14188E-01 6.96125E-27
1.16978E-01 6.36955E-27
1.19797E-01 5.82897E-27
1.22645E-01 5.33494E-27
1.25522E-01 4.88332E-27
1.28428E-01 4.47036E-27
1.31361E-01 4.09264E-27
1.34323E-01 3.74709E-27
1.37313E-01 3.43088E-27
1.40330E-01 3.14149E-27
1.43375E-01 2.87657E-27
1.46447E-01 2.63403E-27
1.49545E-01 2.41194E-27
1.52671E-01 2.20855E-27
1.55823E-01 2.02226E-27
1.59001E-01 1.85162E-27
1.62205E-01 1.69531E-27
1.65435E-01 1.55210E-27
1.68690E-01 1.42090E-27
1.71970E-01 1.30069E-27
1.75276E-01 1.19055E-27
1.78606E-01 1.08963E-27
1.81961E-01 9.97168E-28
1.85340E-01 9.12447E-28
1.88743E-01 8.34825E-28
1.92169E-01 7.63708E-28
1.95619E-01 6.98556E-28
1.99092E-01 6.38871E-28
2.02589E-01 5.84199E-28
2.06107E-01 5.34123E-28
2.09649E-01 4.88261E-28
2.13212E-01 4.46263E-28
2.16797E-01 4.07807E-28
2.20404E-01 3.72601E-28
2.24032E-01 3.40372E-28
2.27680E-01 3.10875E-28
2.31350E-01 2.83882E-28
2.35040E-01 2.59184E-28
2.38751E-01 2.36591E-28
2.42481E-01 2.15926E-28
2.46231E-01 1.97030E-28
2.50000E-01 1.79754E-28
2.53788E-01 1.63962E-28
2.57595E-01 1.49531E-28
2.61421E-01 1.36346E-28
2.65264E-01 1.24303E-28
2.69126E-01 1.13305E-28
2.73005E-01 1.03265E-28
2.76901E-01 9.41010E-29
2.80814E-01 8.57392E-29
2.84744E-01 7.81114E-29
2.88691E-01 7.11553E-29
2.92653E-01 6.48135E-29
2.96632E-01 5.90336E-29
3.00625E-01 5.37672E-29
3.04634E-01 4.89703E-29
3.08658E-01 4.46024E-29
3.12697E-01 4.06264E-29
3.16749E-01 3.70082E-29
3.20816E-01 3.37167E-29
3.24896E-01 3.07234E-29
3.28990E-01 2.80021E-29
3.33097E-01 2.55288E-29
3.37216E-01 2.32817E-29
3.41348E-01 2.12408E-29
3.45492E-01 1.93876E-29
3.49647E-01 1.77054E-29
3.53814E-01 1.61789E-29
3.57992E-01 1.47940E-29
3.62181E-01 1.35380E-29
3.66381E-01 1.23990E-29
3.70590E-01 1.13664E-29
3.74810E-01 1.04306E-29
3.79039E-01 9.58242E-30
3.83277E-01 8.81391E-30
3.87524E-01 8.11762E-30
3.91780E-01 7.48680E-30
3.96044E-01 6.91530E-30
4.00316E-01 6.39752E-30
4.04596E-01 5.92835E-30
4.08882E-01 5.50318E-30
4.13176E-01 5.11777E-30
4.17476E-01 4.76829E-30
4.21783E-01 4.45128E-30
4.26095E-01 4.16355E-30
4.30413E-01 3.90226E-30
4.34737E-01 3.66480E-30
4.39065E-01 3.44881E-30
4.43398E-01 3.25216E-30
4.47736E-01 3.07292E-30
4.52077E-01 2.90936E-30
4.56422E-01 2.75987E-30
4.60770E-01 2.62306E-30
4.65122E-01 2.49762E-30
4.69476E-01 2.38240E-30
4.73832E-01 2.27635E-30
4.78190E-01 2.17854E-30
4.82550E-01 2.08812E-30
4.86912E-01 2.00434E-30
4.91274E-01 1.92650E-30
4.95637E-01 1.85399E-30
5.00000E-01 1.78628E-30
5.04363E-01 1.72287E-30
5.08726E-01 1.66331E-30
5.13088E-01 1.60723E-30
5.17450E-01 1.55427E-30
5.21810E-01 1.50411E-30
5.26168E-01 1.45649E-30
5.30524E-01 1.41115E-30
5.34878E-01 1.36788E-30
5.39230E-01 1.32649E-30
5.43578E-01 1.28679E-30
5.47923E-01 1.24865E-30
5.52264E-01 1.21192E-30
5.56602E-01 1.17649E-30
5.60935E-01 1.14226E-30
5.65263E-01 1.10912E-30
5.69587E-01 1.07701E-30
5.73905E-01 1.04586E-30
5.78217E-01 1.01559E-30
5.82524E-01 9.86157E-31
5.86824E-01 9.57514E-31
5.91118E-01 9.29619E-31
5.95404E-01 9.02434E-31
5.99684E-01 8.75930E-31
6.03956E-01 8.50077E-31
6.08220E-01 8.24852E-31
6.12476E-01 8.00233E-31
6.16723E-01 7.76202E-31
6.20961E-01 7.52743E-31
6.25190E-01 7.29840E-31
6.29410E-01 7.07481E-31
6.33619E-01 6.85654E-31
6.37819E-01 6.64348E-31
6.42008E-01 6.43554E-31
6.46186E-01 6.23264E-31
6.50353E-01 6.03468E-31
6.54508E-01 5.84158E-31
6.58652E-01 5.65329E-31
6.62784E-01 5.46972E-31
6.66903E-01 5.29081E-31
6.71010E-01 5.11649E-31
6.75104E-01 4.94669E-31
6.79184E-01 4.78135E-31
6.83251E-01 4.62040E-31
6.87303E-01 4.46378E-31
6.91342E-01 4.31142E-31
6.95366E-01 4.16325E-31
6.99375E-01 4.01921E-31
7.03368E-01 3.87923E-31
7.07347E-01 3.74324E-31
7.11309E-01 3.61117E-31
7.15256E-01 3.48296E-31
7.19186E-01 3.35853E-31
7.23099E-01 3.23780E-31
7.26995E-01 3.12071E-31
7.30874E-01 3.00719E-31
7.34736E-01 2.89716E-31
7.38579E-01 2.79055E-31
7.42405E-01 2.68728E-31
7.46212E-01 2.58728E-31
7.50000E-01 2.49048E-31
7.53769E-01 2.39680E-31
7.57519E-01 2.30617E-31
7.61249E-01 2.21851E-31
7.64960E-01 2.13376E-31
7.68650E-01 2.05183E-31
7.72320E-01 1.97267E-31
7.75968E-01 1.89618E-31
7.79596E-01 1.82231E-31
7.83203E-01 1.75098E-31
7.86788E-01 1.68213E-31
7.90351E-01 1.61568E-31
7.93893E-01 1.55157E-31
7.97411E-01 1.48972E-31
8.00908E-01 1.43008E-31
8.04381E-01 1.37258E-31
8.07831E-01 1.31715E-31
8.11257E-01 1.26374E-31
8.14660E-01 1.21227E-31
8.18039E-01 1.16269E-31
8.21394E-01 1.11495E-31
8.24724E-01 1.06897E-31
8.28030E-01 1.02472E-31
8.31310E-01 9.82120E-32
8.34565E-01 9.41129E-32
8.37795E-01 9.01691E-32
8.40999E-01 8.63755E-32
8.44177E-01 8.27270E-32
8.47329E-01 7.92187E-32
8.50455E-01 7.58459E-32
8.53553E-01 7.26038E-32
8.56625E-01 6.94880E-32
8.59670E-01 6.64939E-32
8.62687E-01 6.36175E-32
8.65677E-01 6.08543E-32
8.68639E-01 5.82006E-32
8.71572E-01 5.56522E-32
8.74478E-01 5.32054E-32
8.77355E-01 5.08565E-32
8.80203E-01 4.86019E-32
8.83022E-01 4.64382E-32
8.85812E-01 4.43620E-32
8.88573E-01 4.23700E-32
8.91304E-01 4.04590E-32
8.94005E-01 3.86261E-32
8.96677E-01 3.68683E-32
8.99318E-01 3.51827E-32
9.01928E-01 3.35665E-32
9.04508E-01 3.20172E-32
9.07058E-01 3.05321E-32
9.09576E-01 2.91087E-32
9.12063E-01 2.77447E-32
9.14519E-01 2.64378E-32
9.16943E-01 2.51857E-32
9.19335E-01 2.39862E-32
9.21696E-01 2.28373E-32
9.24024E-01 2.17370E-32
9.26320E-01 2.06833E-32
9.28584E-01 1.96745E-32
9.30815E-01 1.87086E-32
9.33013E-01 1.77841E-32
9.35178E-01 1.68992E-32
9.37310E-01 1.60523E-32
9.39409E-01 1.52419E-32
9.41474E-01 1.44666E-32
9.43505E-01 1.37249E-32
9.45503E-01 1.30154E-32
9.47467E-01 1.23369E-32
9.49397E-01 1.16881E-32
9.51293E-01 1.10677E-32
9.53154E-01 1.04747E-32
9.54981E-01 9.90783E-33
9.56773E-01 9.36610E-33
9.58530E-01 8.84847E-33
9.60252E-01 8.35397E-33
9.61940E-01 7.88163E-33
9.63592E-01 7.43055E-33
9.65209E-01 6.99987E-33
9.66790E-01 6.58876E-33
9.68336E-01 6.19642E-33
9.69846E-01 5.82207E-33
9.71321E-01 5.46501E-33
9.72759E-01 5.12452E-33
9.74162E-01 4.79994E-33
9.75528E-01 4.49063E-33
9.76858E-01 4.19598E-33
9.78152E-01 3.91540E-33
9.79410E-01 3.64835E-33
9.80631E-01 3.39427E-33
9.81815E-01 3.15268E-33
9.82963E-01 2.92309E-33
9.84074E-01 2.70502E-33
9.85148E-01 2.49806E-33
9.86185E-01 2.30177E-33
9.87185E-01 2.11577E-33
9.88148E-01 1.93968E-33
9.89074E-01 1.77314E-33
9.89962E-01 1.61581E-33
9.90814E-01 1.46737E-33
9.91627E-01 1.32753E-33
9.92404E-01 1.19598E-33
9.93143E-01 1.07248E-33
9.93844E-01 9.56751E-34
9.94508E-01 8.48572E-34
9.95134E-01 7.47716E-34
9.95722E-01 6.53973E-34
9.96273E-01 5.67156E-34
9.96786E-01 4.87081E-34
9.97261E-01 4.13585E-34
9.97698E-01 3.46515E-34
9.98097E-01 2.85733E-34
9.98459E-01 2.31113E-34
9.98782E-01 1.82544E-34
9.99067E-01 1.39921E-34
9.99315E-01 1.03159E-34
9.99524E-01 7.21816E-35
9.99695E-01 4.69226E-35
9.99829E-01 2.73314E-35
9.99924E-01 1.33672E-35
9.99981E-01 4.99968E-36
1.00000E+00 2.21166E-36
