 #
 # Subroutine ELSEPA. Elastic scattering of electrons and positrons
 #                    by neutral atoms and positive ions
 #
 # Projectile: positron
 # Kinetic energy = 1.00000E+09 eV = 3.67493E+07 a.u.
 #
 # WARNING: High-energy factorization with free-atom DF screening.
 #          Absorption, polarization and exchange corrections are
 #          switched off.
 #          Phase shifts are calculated for the bare nucleus.
 #          Scattering amplitudes are not evaluated.
 #
 # Element: Rh,  Z =  45,  atomic weight = 1.02906E+02 g/mol
 #
 # Nuclear model: Fermi distribution
 #                Average radius = 5.01414E-13 cm
 #                Skin thickness = 5.46000E-14 cm
 #
 # Number of electrons = 45
 #
 # Total elastic cross section = 4.18725E-18 cm**2 = 1.49530E-01 a0**2
 # 1st transport cross section = 4.00588E-27 cm**2 = 1.43053E-10 a0**2
 # 2nd transport cross section = 1.20164E-26 cm**2 = 4.29113E-10 a0**2
 #
 #
 # Differential cross section:                       MU=(1-COS(THETA))/2
 #
 #  THETA        MU          DCS          DCS        Sherman      error
 #  (deg)                 (cm**2/sr)   (a0**2/sr)    function
 #----------------------------------------------------------------------
0.00000E+00 3.17837E-08
7.61557E-13 2.55691E-08
1.18994E-12 2.30148E-08
1.71346E-12 2.04971E-08
2.33225E-12 1.81339E-08
3.04617E-12 1.59901E-08
3.85530E-12 1.40839E-08
4.75964E-12 1.24081E-08
5.75917E-12 1.09433E-08
6.85391E-12 9.66307E-09
8.04379E-12 8.54568E-09
9.32893E-12 7.57047E-09
1.07092E-11 6.71801E-09
1.21847E-11 5.97146E-09
1.37554E-11 5.31639E-09
1.54213E-11 4.73904E-09
1.71823E-11 4.23107E-09
1.90386E-11 3.78342E-09
2.09900E-11 3.38838E-09
2.30367E-11 3.03737E-09
2.51785E-11 2.70450E-09
2.74156E-11 2.42253E-09
2.97478E-11 2.18225E-09
3.21752E-11 1.97632E-09
3.46979E-11 1.79885E-09
3.73157E-11 1.62947E-09
4.00286E-11 1.47234E-09
4.28368E-11 1.33603E-09
4.57402E-11 1.21725E-09
4.87388E-11 1.11329E-09
5.18325E-11 1.02103E-09
5.50215E-11 9.31577E-10
5.83057E-11 8.52740E-10
6.16850E-11 7.83010E-10
6.51595E-11 7.21127E-10
6.87293E-11 6.66025E-10
7.23943E-11 6.14841E-10
7.61544E-11 5.67889E-10
1.18991E-10 2.83711E-10
1.71347E-10 1.60859E-10
2.33223E-10 9.91588E-11
3.04617E-10 6.45324E-11
3.85531E-10 4.35872E-11
4.75965E-10 3.02967E-11
5.75917E-10 2.15899E-11
6.85389E-10 1.57234E-11
8.04380E-10 1.17022E-11
9.32891E-10 8.88565E-12
1.07092E-09 6.86934E-12
1.21847E-09 5.39665E-12
1.37554E-09 4.30168E-12
1.54213E-09 3.47392E-12
1.71823E-09 2.83847E-12
1.90386E-09 2.34330E-12
2.09900E-09 1.95227E-12
2.30367E-09 1.63979E-12
2.51785E-09 1.38685E-12
2.74156E-09 1.18226E-12
2.97478E-09 1.01307E-12
3.21752E-09 8.73637E-13
3.46978E-09 7.56976E-13
3.73156E-09 6.59190E-13
4.00286E-09 5.76622E-13
4.28368E-09 5.06442E-13
4.57402E-09 4.46677E-13
4.87388E-09 3.95263E-13
5.18326E-09 3.51145E-13
5.50215E-09 3.12826E-13
5.83057E-09 2.79683E-13
6.16850E-09 2.50697E-13
6.51596E-09 2.25408E-13
6.87293E-09 2.03182E-13
7.23942E-09 1.83632E-13
7.61544E-09 1.66365E-13
1.18991E-08 6.94042E-14
1.71347E-08 3.38762E-14
2.33223E-08 1.84556E-14
3.04617E-08 1.08988E-14
3.85531E-08 6.84520E-15
4.75965E-08 4.51302E-15
5.75917E-08 3.09465E-15
6.85389E-08 2.19203E-15
8.04380E-08 1.59562E-15
9.32891E-08 1.18883E-15
1.07092E-07 9.03708E-16
1.21847E-07 6.99110E-16
1.37554E-07 5.49232E-16
1.54213E-07 4.37424E-16
1.71823E-07 3.52655E-16
1.90386E-07 2.87449E-16
2.09900E-07 2.36632E-16
2.30367E-07 1.96557E-16
2.51785E-07 1.64615E-16
2.74156E-07 1.38901E-16
2.97478E-07 1.18016E-16
3.21752E-07 1.00911E-16
3.46978E-07 8.67943E-17
3.73156E-07 7.50611E-17
4.00286E-07 6.52446E-17
4.28368E-07 5.69810E-17
4.57402E-07 4.99848E-17
4.87388E-07 4.40298E-17
5.18325E-07 3.89355E-17
5.50215E-07 3.45569E-17
5.83057E-07 3.07767E-17
6.16850E-07 2.74995E-17
6.51596E-07 2.46469E-17
6.87293E-07 2.21547E-17
7.23942E-07 1.99697E-17
7.61543E-07 1.80474E-17
1.18991E-06 7.39475E-18
1.71347E-06 3.56649E-18
2.33223E-06 1.92508E-18
3.04617E-06 1.12837E-18
3.85531E-06 7.04366E-19
4.75964E-06 4.62080E-19
5.75916E-06 3.15566E-19
6.85388E-06 2.22781E-19
8.04378E-06 1.61721E-19
9.32888E-06 1.20217E-19
1.07092E-05 9.12116E-20
1.21846E-05 7.04479E-20
1.37553E-05 5.52698E-20
1.54212E-05 4.39671E-20
1.71822E-05 3.54109E-20
1.90385E-05 2.88316E-20
2.09899E-05 2.37227E-20
2.30365E-05 1.96953E-20
2.51783E-05 1.64852E-20
2.74153E-05 1.39014E-20
2.97475E-05 1.18035E-20
3.21749E-05 1.00867E-20
3.46974E-05 8.67123E-21
3.73152E-05 7.49601E-21
4.00281E-05 6.51364E-21
4.28362E-05 5.68719E-21
4.57395E-05 4.98769E-21
4.87380E-05 4.39234E-21
5.18317E-05 3.88302E-21
5.50205E-05 3.44529E-21
5.83045E-05 3.06745E-21
6.16838E-05 2.74001E-21
6.51582E-05 2.45514E-21
6.87277E-05 2.20640E-21
7.23925E-05 1.98839E-21
7.61524E-05 1.76452E-21
9.21439E-05 1.19636E-21
1.09658E-04 8.37597E-22
1.28695E-04 6.02396E-22
1.49255E-04 4.43136E-22
1.71338E-04 3.32378E-22
1.94942E-04 2.53503E-22
2.20070E-04 1.96184E-22
2.46720E-04 1.53779E-22
2.74892E-04 1.21905E-22
3.04586E-04 9.76112E-23
3.35803E-04 7.88582E-23
3.68542E-04 6.42199E-23
4.02802E-04 5.26758E-23
4.38585E-04 4.34876E-23
4.75889E-04 3.61133E-23
5.14715E-04 3.01490E-23
5.55063E-04 2.52917E-23
5.96931E-04 2.13103E-23
6.40321E-04 1.80278E-23
6.85233E-04 1.53068E-23
7.31665E-04 1.30399E-23
7.79618E-04 1.11428E-23
8.29092E-04 9.54834E-24
8.80086E-04 8.20297E-24
9.32601E-04 7.06365E-24
9.86636E-04 6.09557E-24
1.04219E-03 5.27046E-24
1.09927E-03 4.56513E-24
1.15786E-03 3.96062E-24
1.21797E-03 3.44121E-24
1.27961E-03 2.99390E-24
1.34276E-03 2.60787E-24
1.40743E-03 2.27407E-24
1.47362E-03 1.98492E-24
1.54133E-03 1.73401E-24
1.61056E-03 1.51597E-24
1.68131E-03 1.32622E-24
1.75357E-03 1.16087E-24
1.82735E-03 1.01663E-24
1.90265E-03 8.90653E-25
1.97947E-03 7.80534E-25
2.05780E-03 6.84191E-25
2.13765E-03 5.99836E-25
2.21902E-03 5.25928E-25
2.30190E-03 4.61136E-25
2.38630E-03 4.04307E-25
2.47222E-03 3.54441E-25
2.55965E-03 3.10672E-25
2.64859E-03 2.72244E-25
2.73905E-03 2.38498E-25
2.83103E-03 2.08862E-25
2.92452E-03 1.82834E-25
3.01952E-03 1.59976E-25
3.11604E-03 1.39904E-25
3.21407E-03 1.22281E-25
3.31362E-03 1.06813E-25
3.41468E-03 9.32404E-26
3.51725E-03 8.13355E-26
3.62133E-03 7.08981E-26
3.72692E-03 6.17522E-26
3.83403E-03 5.37427E-26
3.94265E-03 4.67330E-26
4.05278E-03 4.06027E-26
4.16442E-03 3.52459E-26
4.27757E-03 3.05689E-26
4.39223E-03 2.64893E-26
4.50840E-03 2.29344E-26
4.62608E-03 1.98400E-26
4.74527E-03 1.71495E-26
4.86597E-03 1.48131E-26
4.98817E-03 1.27867E-26
5.11188E-03 1.10317E-26
5.23711E-03 9.51382E-27
5.36383E-03 8.20300E-27
5.49207E-03 7.07276E-27
5.62181E-03 6.09980E-27
5.75306E-03 5.26362E-27
5.88581E-03 4.54624E-27
6.02007E-03 3.93185E-27
6.15583E-03 3.40661E-27
6.29310E-03 2.95836E-27
6.43187E-03 2.57651E-27
6.57214E-03 2.25175E-27
6.71392E-03 1.97601E-27
6.85720E-03 1.74223E-27
7.00198E-03 1.54426E-27
7.14827E-03 1.37678E-27
7.29605E-03 1.23518E-27
7.44534E-03 1.11547E-27
7.59612E-03 1.01419E-27
7.97965E-03 8.23272E-28
8.37255E-03 6.94453E-28
8.77480E-03 6.03817E-28
9.18641E-03 5.35815E-28
9.60736E-03 4.80690E-28
1.00376E-02 4.32628E-28
1.04773E-02 3.88415E-28
1.09262E-02 3.46502E-28
1.13844E-02 3.06346E-28
1.18520E-02 2.67965E-28
1.23288E-02 2.31642E-28
1.28150E-02 1.97742E-28
1.33104E-02 1.66600E-28
1.38150E-02 1.38461E-28
1.43290E-02 1.13461E-28
1.48521E-02 9.16217E-29
1.53845E-02 7.28655E-29
1.59262E-02 5.70313E-29
1.64770E-02 4.38964E-29
1.70371E-02 3.31972E-29
1.76063E-02 2.46479E-29
1.81848E-02 1.79560E-29
1.87724E-02 1.28356E-29
1.93692E-02 9.01688E-30
1.99751E-02 6.25242E-30
2.05901E-02 4.32180E-30
2.12143E-02 3.03332E-30
2.18476E-02 2.22431E-30
2.24900E-02 1.76012E-30
2.31415E-02 1.53210E-30
2.38021E-02 1.45504E-30
2.44717E-02 1.46425E-30
2.51504E-02 1.51255E-30
2.58382E-02 1.56722E-30
2.65349E-02 1.60726E-30
2.72407E-02 1.62078E-30
2.79555E-02 1.60271E-30
2.86793E-02 1.55294E-30
2.94120E-02 1.47462E-30
3.01537E-02 1.37291E-30
3.09043E-02 1.25393E-30
3.16639E-02 1.12401E-30
3.24324E-02 9.89163E-31
3.32098E-02 8.54699E-31
3.39961E-02 7.25044E-31
3.47912E-02 6.03646E-31
3.55952E-02 4.92971E-31
3.64081E-02 3.94575E-31
3.72297E-02 3.09203E-31
3.80602E-02 2.36922E-31
3.88995E-02 1.77254E-31
3.97476E-02 1.29316E-31
4.06044E-02 9.19465E-32
4.14700E-02 6.38171E-32
4.23443E-02 4.35305E-32
4.32273E-02 2.96980E-32
4.41190E-02 2.09997E-32
4.50194E-02 1.62276E-32
4.59284E-02 1.43136E-32
4.68461E-02 1.43449E-32
4.87074E-02 1.73817E-32
5.06030E-02 2.10956E-32
5.25328E-02 2.32909E-32
5.44967E-02 2.32622E-32
5.64946E-02 2.12270E-32
5.85262E-02 1.78482E-32
6.05914E-02 1.38888E-32
6.26901E-02 1.00020E-32
6.48222E-02 6.63539E-33
6.69873E-02 4.01594E-33
6.91854E-02 2.18581E-33
7.14163E-02 1.05905E-33
7.36799E-02 4.80924E-34
7.59760E-02 2.77296E-34
7.83043E-02 2.89182E-34
8.06647E-02 3.91869E-34
8.30571E-02 5.01212E-34
8.54812E-02 5.70882E-34
8.79369E-02 5.84478E-34
9.04240E-02 5.45790E-34
9.29422E-02 4.69538E-34
9.54915E-02 3.73960E-34
9.80716E-02 2.75772E-34
1.00682E-01 1.87417E-34
1.03323E-01 1.16191E-34
1.05995E-01 6.46492E-35
1.08696E-01 3.17347E-35
1.11427E-01 1.41418E-35
1.14188E-01 7.59236E-36
1.16978E-01 7.82934E-36
1.19797E-01 1.12600E-35
1.22645E-01 1.52660E-35
1.25522E-01 1.82474E-35
1.28428E-01 1.94896E-35
1.31361E-01 1.89366E-35
1.34323E-01 1.69431E-35
1.37313E-01 1.40507E-35
1.40330E-01 1.08178E-35
1.43375E-01 7.70919E-36
1.46447E-01 5.04391E-36
1.49545E-01 2.98584E-36
1.52671E-01 1.56601E-36
1.55823E-01 7.19051E-37
1.59001E-01 3.23823E-37
1.62205E-01 2.39517E-37
1.65435E-01 3.32814E-37
1.68690E-01 4.94954E-37
1.71970E-01 6.49234E-37
1.75276E-01 7.51109E-37
1.78606E-01 7.83455E-37
1.81961E-01 7.49243E-37
1.85340E-01 6.63700E-37
1.88743E-01 5.47281E-37
1.92169E-01 4.20287E-37
1.95619E-01 2.99451E-37
1.99092E-01 1.96136E-37
2.02589E-01 1.16260E-37
2.06107E-01 6.09302E-38
2.09649E-01 1.00000E-45
2.13212E-01 1.00000E-45
2.16797E-01 1.00000E-45
2.20404E-01 1.00000E-45
2.24032E-01 1.00000E-45
2.27680E-01 1.00000E-45
2.31350E-01 1.00000E-45
2.35040E-01 1.00000E-45
2.38751E-01 1.00000E-45
2.42481E-01 1.00000E-45
2.46231E-01 1.00000E-45
2.50000E-01 1.00000E-45
2.53788E-01 1.00000E-45
2.57595E-01 1.00000E-45
2.61421E-01 1.00000E-45
2.65264E-01 1.00000E-45
2.69126E-01 1.00000E-45
2.73005E-01 1.00000E-45
2.76901E-01 1.00000E-45
2.80814E-01 1.00000E-45
2.84744E-01 1.00000E-45
2.88691E-01 1.00000E-45
2.92653E-01 1.00000E-45
2.96632E-01 1.00000E-45
3.00625E-01 1.00000E-45
3.04634E-01 1.00000E-45
3.08658E-01 1.00000E-45
3.12697E-01 1.00000E-45
3.16749E-01 1.00000E-45
3.20816E-01 1.00000E-45
3.24896E-01 1.00000E-45
3.28990E-01 1.00000E-45
3.33097E-01 1.00000E-45
3.37216E-01 1.00000E-45
3.41348E-01 1.00000E-45
3.45492E-01 1.00000E-45
3.49647E-01 1.00000E-45
3.53814E-01 1.00000E-45
3.57992E-01 1.00000E-45
3.62181E-01 1.00000E-45
3.66381E-01 1.00000E-45
3.70590E-01 1.00000E-45
3.74810E-01 1.00000E-45
3.79039E-01 1.00000E-45
3.83277E-01 1.00000E-45
3.87524E-01 1.00000E-45
3.91780E-01 1.00000E-45
3.96044E-01 1.00000E-45
4.00316E-01 1.00000E-45
4.04596E-01 1.00000E-45
4.08882E-01 1.00000E-45
4.13176E-01 1.00000E-45
4.17476E-01 1.00000E-45
4.21783E-01 1.00000E-45
4.26095E-01 1.00000E-45
4.30413E-01 1.00000E-45
4.34737E-01 1.00000E-45
4.39065E-01 1.00000E-45
4.43398E-01 1.00000E-45
4.47736E-01 1.00000E-45
4.52077E-01 1.00000E-45
4.56422E-01 1.00000E-45
4.60770E-01 1.00000E-45
4.65122E-01 1.00000E-45
4.69476E-01 1.00000E-45
4.73832E-01 1.00000E-45
4.78190E-01 1.00000E-45
4.82550E-01 1.00000E-45
4.86912E-01 1.00000E-45
4.91274E-01 1.00000E-45
4.95637E-01 1.00000E-45
5.00000E-01 1.00000E-45
5.04363E-01 1.00000E-45
5.08726E-01 1.00000E-45
5.13088E-01 1.00000E-45
5.17450E-01 1.00000E-45
5.21810E-01 1.00000E-45
5.26168E-01 1.00000E-45
5.30524E-01 1.00000E-45
5.34878E-01 1.00000E-45
5.39230E-01 1.00000E-45
5.43578E-01 1.00000E-45
5.47923E-01 1.00000E-45
5.52264E-01 1.00000E-45
5.56602E-01 1.00000E-45
5.60935E-01 1.00000E-45
5.65263E-01 1.00000E-45
5.69587E-01 1.00000E-45
5.73905E-01 1.00000E-45
5.78217E-01 1.00000E-45
5.82524E-01 1.00000E-45
5.86824E-01 1.00000E-45
5.91118E-01 1.00000E-45
5.95404E-01 1.00000E-45
5.99684E-01 1.00000E-45
6.03956E-01 1.00000E-45
6.08220E-01 1.00000E-45
6.12476E-01 1.00000E-45
6.16723E-01 1.00000E-45
6.20961E-01 1.00000E-45
6.25190E-01 1.00000E-45
6.29410E-01 1.00000E-45
6.33619E-01 1.00000E-45
6.37819E-01 1.00000E-45
6.42008E-01 1.00000E-45
6.46186E-01 1.00000E-45
6.50353E-01 1.00000E-45
6.54508E-01 1.00000E-45
6.58652E-01 1.00000E-45
6.62784E-01 1.00000E-45
6.66903E-01 1.00000E-45
6.71010E-01 1.00000E-45
6.75104E-01 1.00000E-45
6.79184E-01 1.00000E-45
6.83251E-01 1.00000E-45
6.87303E-01 1.00000E-45
6.91342E-01 1.00000E-45
6.95366E-01 1.00000E-45
6.99375E-01 1.00000E-45
7.03368E-01 1.00000E-45
7.07347E-01 1.00000E-45
7.11309E-01 1.00000E-45
7.15256E-01 1.00000E-45
7.19186E-01 1.00000E-45
7.23099E-01 1.00000E-45
7.26995E-01 1.00000E-45
7.30874E-01 1.00000E-45
7.34736E-01 1.00000E-45
7.38579E-01 1.00000E-45
7.42405E-01 1.00000E-45
7.46212E-01 1.00000E-45
7.50000E-01 1.00000E-45
7.53769E-01 1.00000E-45
7.57519E-01 1.00000E-45
7.61249E-01 1.00000E-45
7.64960E-01 1.00000E-45
7.68650E-01 1.00000E-45
7.72320E-01 1.00000E-45
7.75968E-01 1.00000E-45
7.79596E-01 1.00000E-45
7.83203E-01 1.00000E-45
7.86788E-01 1.00000E-45
7.90351E-01 1.00000E-45
7.93893E-01 1.00000E-45
7.97411E-01 1.00000E-45
8.00908E-01 1.00000E-45
8.04381E-01 1.00000E-45
8.07831E-01 1.00000E-45
8.11257E-01 1.00000E-45
8.14660E-01 1.00000E-45
8.18039E-01 1.00000E-45
8.21394E-01 1.00000E-45
8.24724E-01 1.00000E-45
8.28030E-01 1.00000E-45
8.31310E-01 1.00000E-45
8.34565E-01 1.00000E-45
8.37795E-01 1.00000E-45
8.40999E-01 1.00000E-45
8.44177E-01 1.00000E-45
8.47329E-01 1.00000E-45
8.50455E-01 1.00000E-45
8.53553E-01 1.00000E-45
8.56625E-01 1.00000E-45
8.59670E-01 1.00000E-45
8.62687E-01 1.00000E-45
8.65677E-01 1.00000E-45
8.68639E-01 1.00000E-45
8.71572E-01 1.00000E-45
8.74478E-01 1.00000E-45
8.77355E-01 1.00000E-45
8.80203E-01 1.00000E-45
8.83022E-01 1.00000E-45
8.85812E-01 1.00000E-45
8.88573E-01 1.00000E-45
8.91304E-01 1.00000E-45
8.94005E-01 1.00000E-45
8.96677E-01 1.00000E-45
8.99318E-01 1.00000E-45
9.01928E-01 1.00000E-45
9.04508E-01 1.00000E-45
9.07058E-01 1.00000E-45
9.09576E-01 1.00000E-45
9.12063E-01 1.00000E-45
9.14519E-01 1.00000E-45
9.16943E-01 1.00000E-45
9.19335E-01 1.00000E-45
9.21696E-01 1.00000E-45
9.24024E-01 1.00000E-45
9.26320E-01 1.00000E-45
9.28584E-01 1.00000E-45
9.30815E-01 1.00000E-45
9.33013E-01 1.00000E-45
9.35178E-01 1.00000E-45
9.37310E-01 1.00000E-45
9.39409E-01 1.00000E-45
9.41474E-01 1.00000E-45
9.43505E-01 1.00000E-45
9.45503E-01 1.00000E-45
9.47467E-01 1.00000E-45
9.49397E-01 1.00000E-45
9.51293E-01 1.00000E-45
9.53154E-01 1.00000E-45
9.54981E-01 1.00000E-45
9.56773E-01 1.00000E-45
9.58530E-01 1.00000E-45
9.60252E-01 1.00000E-45
9.61940E-01 1.00000E-45
9.63592E-01 1.00000E-45
9.65209E-01 1.00000E-45
9.66790E-01 1.00000E-45
9.68336E-01 1.00000E-45
9.69846E-01 1.00000E-45
9.71321E-01 1.00000E-45
9.72759E-01 1.00000E-45
9.74162E-01 1.00000E-45
9.75528E-01 1.00000E-45
9.76858E-01 1.00000E-45
9.78152E-01 1.00000E-45
9.79410E-01 1.00000E-45
9.80631E-01 1.00000E-45
9.81815E-01 1.00000E-45
9.82963E-01 1.00000E-45
9.84074E-01 1.00000E-45
9.85148E-01 1.00000E-45
9.86185E-01 1.00000E-45
9.87185E-01 1.00000E-45
9.88148E-01 1.00000E-45
9.89074E-01 1.00000E-45
9.89962E-01 1.00000E-45
9.90814E-01 1.00000E-45
9.91627E-01 1.00000E-45
9.92404E-01 1.00000E-45
9.93143E-01 1.00000E-45
9.93844E-01 1.00000E-45
9.94508E-01 1.00000E-45
9.95134E-01 1.00000E-45
9.95722E-01 1.00000E-45
9.96273E-01 1.00000E-45
9.96786E-01 1.00000E-45
9.97261E-01 1.00000E-45
9.97698E-01 1.00000E-45
9.98097E-01 1.00000E-45
9.98459E-01 1.00000E-45
9.98782E-01 1.00000E-45
9.99067E-01 1.00000E-45
9.99315E-01 1.00000E-45
9.99524E-01 1.00000E-45
9.99695E-01 1.00000E-45
9.99829E-01 1.00000E-45
9.99924E-01 1.00000E-45
9.99981E-01 1.00000E-45
1.00000E+00 1.00000E-45
