 #
 # Subroutine ELSEPA. Elastic scattering of electrons and positrons
 #                    by neutral atoms and positive ions
 #
 # Projectile: positron
 # Kinetic energy = 4.00000E+07 eV = 1.46997E+06 a.u.
 #
 # WARNING: High-energy factorization with free-atom DF screening.
 #          Absorption, polarization and exchange corrections are
 #          switched off.
 #          Phase shifts are calculated for the bare nucleus.
 #          Scattering amplitudes are not evaluated.
 #
 # Element: Rh,  Z =  45,  atomic weight = 1.02906E+02 g/mol
 #
 # Nuclear model: Fermi distribution
 #                Average radius = 5.01414E-13 cm
 #                Skin thickness = 5.46000E-14 cm
 #
 # Number of electrons = 45
 #
 # Total elastic cross section = 4.21035E-18 cm**2 = 1.50354E-01 a0**2
 # 1st transport cross section = 2.22435E-24 cm**2 = 7.94330E-08 a0**2
 # 2nd transport cross section = 6.51299E-24 cm**2 = 2.32583E-07 a0**2
 #
 #
 # Differential cross section:                       MU=(1-COS(THETA))/2
 #
 #  THETA        MU          DCS          DCS        Sherman      error
 #  (deg)                 (cm**2/sr)   (a0**2/sr)    function
 #----------------------------------------------------------------------
0.00000E+00 5.21082E-11
7.61557E-13 5.20874E-11
1.18994E-12 5.20758E-11
1.71346E-12 5.20616E-11
2.33225E-12 5.20449E-11
3.04617E-12 5.20256E-11
3.85530E-12 5.20037E-11
4.75964E-12 5.19794E-11
5.75917E-12 5.19525E-11
6.85391E-12 5.19230E-11
8.04379E-12 5.18911E-11
9.32893E-12 5.18566E-11
1.07092E-11 5.18197E-11
1.21847E-11 5.17802E-11
1.37554E-11 5.17383E-11
1.54213E-11 5.16939E-11
1.71823E-11 5.16471E-11
1.90386E-11 5.15978E-11
2.09900E-11 5.15461E-11
2.30367E-11 5.14920E-11
2.51785E-11 5.14355E-11
2.74156E-11 5.13766E-11
2.97478E-11 5.13153E-11
3.21752E-11 5.12517E-11
3.46979E-11 5.11857E-11
3.73157E-11 5.11175E-11
4.00286E-11 5.10469E-11
4.28368E-11 5.09741E-11
4.57402E-11 5.08990E-11
4.87388E-11 5.08216E-11
5.18325E-11 5.07421E-11
5.50215E-11 5.06603E-11
5.83057E-11 5.05764E-11
6.16850E-11 5.04903E-11
6.51595E-11 5.04021E-11
6.87293E-11 5.03118E-11
7.23943E-11 5.02194E-11
7.61544E-11 5.01249E-11
1.18991E-10 4.90724E-11
1.71347E-10 4.78392E-11
2.33223E-10 4.64609E-11
3.04617E-10 4.49629E-11
3.85531E-10 4.33702E-11
4.75965E-10 4.17172E-11
5.75917E-10 4.00307E-11
6.85389E-10 3.83265E-11
8.04380E-10 3.66244E-11
9.32891E-10 3.49476E-11
1.07092E-09 3.33098E-11
1.21847E-09 3.17104E-11
1.37554E-09 3.01635E-11
1.54213E-09 2.86788E-11
1.71823E-09 2.72596E-11
1.90386E-09 2.58946E-11
2.09900E-09 2.45961E-11
2.30367E-09 2.33646E-11
2.51785E-09 2.21978E-11
2.74156E-09 2.10829E-11
2.97478E-09 2.00298E-11
3.21752E-09 1.90357E-11
3.46978E-09 1.80947E-11
3.73156E-09 1.71991E-11
4.00286E-09 1.63546E-11
4.28368E-09 1.55580E-11
4.57402E-09 1.48024E-11
4.87388E-09 1.40848E-11
5.18326E-09 1.34078E-11
5.50215E-09 1.27687E-11
5.83057E-09 1.21608E-11
6.16850E-09 1.15841E-11
6.51596E-09 1.10394E-11
6.87293E-09 1.05246E-11
7.23942E-09 1.00333E-11
7.61544E-09 9.56776E-12
1.18991E-08 6.03789E-12
1.71347E-08 3.84970E-12
2.33223E-08 2.57913E-12
3.04617E-08 1.76435E-12
3.85531E-08 1.23760E-12
4.75965E-08 8.96365E-13
5.75917E-08 6.67358E-13
6.85389E-08 5.08539E-13
8.04380E-08 3.95997E-13
9.32891E-08 3.14461E-13
1.07092E-07 2.53890E-13
1.21847E-07 2.07458E-13
1.37554E-07 1.71376E-13
1.54213E-07 1.42974E-13
1.71823E-07 1.20278E-13
1.90386E-07 1.01682E-13
2.09900E-07 8.65001E-14
2.30367E-07 7.40085E-14
2.51785E-07 6.36339E-14
2.74156E-07 5.48908E-14
2.97478E-07 4.75722E-14
3.21752E-07 4.14094E-14
3.46978E-07 3.61849E-14
3.73156E-07 3.17139E-14
4.00286E-07 2.79048E-14
4.28368E-07 2.46453E-14
4.57402E-07 2.18402E-14
4.87388E-07 1.94185E-14
5.18325E-07 1.73244E-14
5.50215E-07 1.55059E-14
5.83057E-07 1.39187E-14
6.16850E-07 1.25298E-14
6.51596E-07 1.13113E-14
6.87293E-07 1.02387E-14
7.23942E-07 9.29030E-15
7.61543E-07 8.45046E-15
1.18991E-06 3.66904E-15
1.71347E-06 1.85010E-15
2.33223E-06 1.03109E-15
3.04617E-06 6.17787E-16
3.85531E-06 3.91598E-16
4.75964E-06 2.59753E-16
5.75916E-06 1.78886E-16
6.85388E-06 1.27140E-16
8.04378E-06 9.28151E-17
9.32888E-06 6.93312E-17
1.07092E-05 5.28319E-17
1.21846E-05 4.09659E-17
1.37553E-05 3.22550E-17
1.54212E-05 2.57431E-17
1.71822E-05 2.07959E-17
1.90385E-05 1.69789E-17
2.09899E-05 1.40057E-17
2.30365E-05 1.16551E-17
2.51783E-05 9.77641E-18
2.74153E-05 8.26037E-18
2.97475E-05 7.02652E-18
3.21749E-05 6.01451E-18
3.46974E-05 5.17837E-18
3.73152E-05 4.48281E-18
4.00281E-05 3.90036E-18
4.28362E-05 3.40953E-18
4.57395E-05 2.99345E-18
4.87380E-05 2.63880E-18
5.18317E-05 2.33498E-18
5.50205E-05 2.07353E-18
5.83045E-05 1.84760E-18
6.16838E-05 1.65158E-18
6.51582E-05 1.48089E-18
6.87277E-05 1.33169E-18
7.23925E-05 1.20081E-18
7.61524E-05 1.08565E-18
9.21439E-05 7.42411E-19
1.09658E-04 5.24573E-19
1.28695E-04 3.81040E-19
1.49255E-04 2.83342E-19
1.71338E-04 2.15025E-19
1.94942E-04 1.66087E-19
2.20070E-04 1.30299E-19
2.46720E-04 1.03643E-19
2.74892E-04 8.34588E-20
3.04586E-04 6.79536E-20
3.35803E-04 5.58828E-20
3.68542E-04 4.63743E-20
4.02802E-04 3.88023E-20
4.38585E-04 3.27126E-20
4.75889E-04 2.77706E-20
5.14715E-04 2.37262E-20
5.55063E-04 2.03911E-20
5.96931E-04 1.76210E-20
6.40321E-04 1.53051E-20
6.85233E-04 1.33569E-20
7.31665E-04 1.17085E-20
7.79618E-04 1.03063E-20
8.29092E-04 9.10756E-21
8.80086E-04 8.07783E-21
9.32601E-04 7.18933E-21
9.86636E-04 6.41947E-21
1.04219E-03 5.74977E-21
1.09927E-03 5.16499E-21
1.15786E-03 4.65255E-21
1.21797E-03 4.20198E-21
1.27961E-03 3.80454E-21
1.34276E-03 3.45290E-21
1.40743E-03 3.14087E-21
1.47362E-03 2.86322E-21
1.54133E-03 2.61551E-21
1.61056E-03 2.39396E-21
1.68131E-03 2.19531E-21
1.75357E-03 2.01680E-21
1.82735E-03 1.85602E-21
1.90265E-03 1.71090E-21
1.97947E-03 1.57966E-21
2.05780E-03 1.46073E-21
2.13765E-03 1.35275E-21
2.21902E-03 1.25454E-21
2.30190E-03 1.16505E-21
2.38630E-03 1.08338E-21
2.47222E-03 1.00872E-21
2.55965E-03 9.40360E-22
2.64859E-03 8.77677E-22
2.73905E-03 8.20114E-22
2.83103E-03 7.67178E-22
2.92452E-03 7.18428E-22
3.01952E-03 6.73478E-22
3.11604E-03 6.31977E-22
3.21407E-03 5.93612E-22
3.31362E-03 5.58103E-22
3.41468E-03 5.25200E-22
3.51725E-03 4.94679E-22
3.62133E-03 4.66334E-22
3.72692E-03 4.39982E-22
3.83403E-03 4.15457E-22
3.94265E-03 3.92612E-22
4.05278E-03 3.71309E-22
4.16442E-03 3.51425E-22
4.27757E-03 3.32849E-22
4.39223E-03 3.15479E-22
4.50840E-03 2.99223E-22
4.62608E-03 2.83995E-22
4.74527E-03 2.69720E-22
4.86597E-03 2.56326E-22
4.98817E-03 2.43750E-22
5.11188E-03 2.31932E-22
5.23711E-03 2.20818E-22
5.36383E-03 2.10358E-22
5.49207E-03 2.00508E-22
5.62181E-03 1.91225E-22
5.75306E-03 1.82470E-22
5.88581E-03 1.74207E-22
6.02007E-03 1.66405E-22
6.15583E-03 1.59033E-22
6.29310E-03 1.52061E-22
6.43187E-03 1.45466E-22
6.57214E-03 1.39224E-22
6.71392E-03 1.33309E-22
6.85720E-03 1.27704E-22
7.00198E-03 1.22389E-22
7.14827E-03 1.17346E-22
7.29605E-03 1.12559E-22
7.44534E-03 1.08011E-22
7.59612E-03 1.03690E-22
7.97965E-03 9.37903E-23
8.37255E-03 8.50378E-23
8.77480E-03 7.72767E-23
9.18641E-03 7.03758E-23
9.60736E-03 6.42236E-23
1.00376E-02 5.87249E-23
1.04773E-02 5.37984E-23
1.09262E-02 4.93743E-23
1.13844E-02 4.53925E-23
1.18520E-02 4.18012E-23
1.23288E-02 3.85556E-23
1.28150E-02 3.56165E-23
1.33104E-02 3.29501E-23
1.38150E-02 3.05266E-23
1.43290E-02 2.83201E-23
1.48521E-02 2.63077E-23
1.53845E-02 2.44694E-23
1.59262E-02 2.27875E-23
1.64770E-02 2.12464E-23
1.70371E-02 1.98322E-23
1.76063E-02 1.85326E-23
1.81848E-02 1.73367E-23
1.87724E-02 1.62349E-23
1.93692E-02 1.52183E-23
1.99751E-02 1.42792E-23
2.05901E-02 1.34107E-23
2.12143E-02 1.26066E-23
2.18476E-02 1.18611E-23
2.24900E-02 1.11694E-23
2.31415E-02 1.05268E-23
2.38021E-02 9.92921E-24
2.44717E-02 9.37294E-24
2.51504E-02 8.85463E-24
2.58382E-02 8.37121E-24
2.65349E-02 7.91994E-24
2.72407E-02 7.49828E-24
2.79555E-02 7.10395E-24
2.86793E-02 6.73487E-24
2.94120E-02 6.38914E-24
3.01537E-02 6.06500E-24
3.09043E-02 5.76088E-24
3.16639E-02 5.47532E-24
3.24324E-02 5.20699E-24
3.32098E-02 4.95465E-24
3.39961E-02 4.71720E-24
3.47912E-02 4.49358E-24
3.55952E-02 4.28286E-24
3.64081E-02 4.08416E-24
3.72297E-02 3.89667E-24
3.80602E-02 3.71964E-24
3.88995E-02 3.55239E-24
3.97476E-02 3.39429E-24
4.06044E-02 3.24473E-24
4.14700E-02 3.10318E-24
4.23443E-02 2.96914E-24
4.32273E-02 2.84213E-24
4.41190E-02 2.72172E-24
4.50194E-02 2.60750E-24
4.59284E-02 2.49911E-24
4.68461E-02 2.39618E-24
4.87074E-02 2.20546E-24
5.06030E-02 2.03301E-24
5.25328E-02 1.87677E-24
5.44967E-02 1.73496E-24
5.64946E-02 1.60604E-24
5.85262E-02 1.48863E-24
6.05914E-02 1.38154E-24
6.26901E-02 1.28370E-24
6.48222E-02 1.19418E-24
6.69873E-02 1.11215E-24
6.91854E-02 1.03689E-24
7.14163E-02 9.67737E-25
7.36799E-02 9.04116E-25
7.59760E-02 8.45509E-25
7.83043E-02 7.91455E-25
8.06647E-02 7.41541E-25
8.30571E-02 6.95397E-25
8.54812E-02 6.52690E-25
8.79369E-02 6.13122E-25
9.04240E-02 5.76423E-25
9.29422E-02 5.42350E-25
9.54915E-02 5.10684E-25
9.80716E-02 4.81226E-25
1.00682E-01 4.53797E-25
1.03323E-01 4.28234E-25
1.05995E-01 4.04389E-25
1.08696E-01 3.82126E-25
1.11427E-01 3.61324E-25
1.14188E-01 3.41871E-25
1.16978E-01 3.23665E-25
1.19797E-01 3.06612E-25
1.22645E-01 2.90627E-25
1.25522E-01 2.75633E-25
1.28428E-01 2.61558E-25
1.31361E-01 2.48337E-25
1.34323E-01 2.35908E-25
1.37313E-01 2.24217E-25
1.40330E-01 2.13213E-25
1.43375E-01 2.02848E-25
1.46447E-01 1.93080E-25
1.49545E-01 1.83869E-25
1.52671E-01 1.75177E-25
1.55823E-01 1.66970E-25
1.59001E-01 1.59218E-25
1.62205E-01 1.51890E-25
1.65435E-01 1.44961E-25
1.68690E-01 1.38404E-25
1.71970E-01 1.32196E-25
1.75276E-01 1.26316E-25
1.78606E-01 1.20744E-25
1.81961E-01 1.15461E-25
1.85340E-01 1.10449E-25
1.88743E-01 1.05693E-25
1.92169E-01 1.01177E-25
1.95619E-01 9.68879E-26
1.99092E-01 9.28115E-26
2.02589E-01 8.89359E-26
2.06107E-01 8.52496E-26
2.09649E-01 8.17421E-26
2.13212E-01 7.84032E-26
2.16797E-01 7.52236E-26
2.20404E-01 7.21944E-26
2.24032E-01 6.93075E-26
2.27680E-01 6.65550E-26
2.31350E-01 6.39299E-26
2.35040E-01 6.14252E-26
2.38751E-01 5.90347E-26
2.42481E-01 5.67522E-26
2.46231E-01 5.45721E-26
2.50000E-01 5.24892E-26
2.53788E-01 5.04985E-26
2.57595E-01 4.85952E-26
2.61421E-01 4.67749E-26
2.65264E-01 4.50335E-26
2.69126E-01 4.33670E-26
2.73005E-01 4.17717E-26
2.76901E-01 4.02441E-26
2.80814E-01 3.87809E-26
2.84744E-01 3.73790E-26
2.88691E-01 3.60354E-26
2.92653E-01 3.47473E-26
2.96632E-01 3.35122E-26
3.00625E-01 3.23274E-26
3.04634E-01 3.11907E-26
3.08658E-01 3.00998E-26
3.12697E-01 2.90526E-26
3.16749E-01 2.80471E-26
3.20816E-01 2.70813E-26
3.24896E-01 2.61536E-26
3.28990E-01 2.52621E-26
3.33097E-01 2.44052E-26
3.37216E-01 2.35815E-26
3.41348E-01 2.27894E-26
3.45492E-01 2.20275E-26
3.49647E-01 2.12946E-26
3.53814E-01 2.05894E-26
3.57992E-01 1.99106E-26
3.62181E-01 1.92572E-26
3.66381E-01 1.86280E-26
3.70590E-01 1.80221E-26
3.74810E-01 1.74385E-26
3.79039E-01 1.68762E-26
3.83277E-01 1.63343E-26
3.87524E-01 1.58120E-26
3.91780E-01 1.53085E-26
3.96044E-01 1.48230E-26
4.00316E-01 1.43549E-26
4.04596E-01 1.39032E-26
4.08882E-01 1.34676E-26
4.13176E-01 1.30472E-26
4.17476E-01 1.26414E-26
4.21783E-01 1.22498E-26
4.26095E-01 1.18717E-26
4.30413E-01 1.15066E-26
4.34737E-01 1.11540E-26
4.39065E-01 1.08134E-26
4.43398E-01 1.04843E-26
4.47736E-01 1.01664E-26
4.52077E-01 9.85914E-27
4.56422E-01 9.56217E-27
4.60770E-01 9.27508E-27
4.65122E-01 8.99751E-27
4.69476E-01 8.72910E-27
4.73832E-01 8.46951E-27
4.78190E-01 8.21841E-27
4.82550E-01 7.97548E-27
4.86912E-01 7.74044E-27
4.91274E-01 7.51298E-27
4.95637E-01 7.29284E-27
5.00000E-01 7.07975E-27
5.04363E-01 6.87346E-27
5.08726E-01 6.67371E-27
5.13088E-01 6.48028E-27
5.17450E-01 6.29295E-27
5.21810E-01 6.11149E-27
5.26168E-01 5.93571E-27
5.30524E-01 5.76539E-27
5.34878E-01 5.60036E-27
5.39230E-01 5.44042E-27
5.43578E-01 5.28541E-27
5.47923E-01 5.13514E-27
5.52264E-01 4.98946E-27
5.56602E-01 4.84822E-27
5.60935E-01 4.71125E-27
5.65263E-01 4.57842E-27
5.69587E-01 4.44959E-27
5.73905E-01 4.32461E-27
5.78217E-01 4.20338E-27
5.82524E-01 4.08574E-27
5.86824E-01 3.97160E-27
5.91118E-01 3.86083E-27
5.95404E-01 3.75332E-27
5.99684E-01 3.64897E-27
6.03956E-01 3.54767E-27
6.08220E-01 3.44933E-27
6.12476E-01 3.35384E-27
6.16723E-01 3.26111E-27
6.20961E-01 3.17106E-27
6.25190E-01 3.08361E-27
6.29410E-01 2.99866E-27
6.33619E-01 2.91613E-27
6.37819E-01 2.83596E-27
6.42008E-01 2.75807E-27
6.46186E-01 2.68238E-27
6.50353E-01 2.60883E-27
6.54508E-01 2.53735E-27
6.58652E-01 2.46788E-27
6.62784E-01 2.40035E-27
6.66903E-01 2.33470E-27
6.71010E-01 2.27087E-27
6.75104E-01 2.20882E-27
6.79184E-01 2.14849E-27
6.83251E-01 2.08981E-27
6.87303E-01 2.03275E-27
6.91342E-01 1.97726E-27
6.95366E-01 1.92328E-27
6.99375E-01 1.87077E-27
7.03368E-01 1.81970E-27
7.07347E-01 1.77000E-27
7.11309E-01 1.72165E-27
7.15256E-01 1.67461E-27
7.19186E-01 1.62883E-27
7.23099E-01 1.58429E-27
7.26995E-01 1.54093E-27
7.30874E-01 1.49873E-27
7.34736E-01 1.45766E-27
7.38579E-01 1.41768E-27
7.42405E-01 1.37876E-27
7.46212E-01 1.34087E-27
7.50000E-01 1.30399E-27
7.53769E-01 1.26807E-27
7.57519E-01 1.23310E-27
7.61249E-01 1.19904E-27
7.64960E-01 1.16588E-27
7.68650E-01 1.13358E-27
7.72320E-01 1.10212E-27
7.75968E-01 1.07149E-27
7.79596E-01 1.04165E-27
7.83203E-01 1.01258E-27
7.86788E-01 9.84264E-28
7.90351E-01 9.56680E-28
7.93893E-01 9.29806E-28
7.97411E-01 9.03625E-28
8.00908E-01 8.78116E-28
8.04381E-01 8.53262E-28
8.07831E-01 8.29044E-28
8.11257E-01 8.05446E-28
8.14660E-01 7.82450E-28
8.18039E-01 7.60041E-28
8.21394E-01 7.38203E-28
8.24724E-01 7.16920E-28
8.28030E-01 6.96178E-28
8.31310E-01 6.75962E-28
8.34565E-01 6.56259E-28
8.37795E-01 6.37055E-28
8.40999E-01 6.18337E-28
8.44177E-01 6.00092E-28
8.47329E-01 5.82308E-28
8.50455E-01 5.64974E-28
8.53553E-01 5.48076E-28
8.56625E-01 5.31605E-28
8.59670E-01 5.15549E-28
8.62687E-01 4.99898E-28
8.65677E-01 4.84641E-28
8.68639E-01 4.69768E-28
8.71572E-01 4.55270E-28
8.74478E-01 4.41138E-28
8.77355E-01 4.27361E-28
8.80203E-01 4.13932E-28
8.83022E-01 4.00842E-28
8.85812E-01 3.88081E-28
8.88573E-01 3.75643E-28
8.91304E-01 3.63520E-28
8.94005E-01 3.51703E-28
8.96677E-01 3.40185E-28
8.99318E-01 3.28959E-28
9.01928E-01 3.18018E-28
9.04508E-01 3.07356E-28
9.07058E-01 2.96965E-28
9.09576E-01 2.86840E-28
9.12063E-01 2.76973E-28
9.14519E-01 2.67360E-28
9.16943E-01 2.57993E-28
9.19335E-01 2.48868E-28
9.21696E-01 2.39979E-28
9.24024E-01 2.31321E-28
9.26320E-01 2.22887E-28
9.28584E-01 2.14674E-28
9.30815E-01 2.06677E-28
9.33013E-01 1.98890E-28
9.35178E-01 1.91308E-28
9.37310E-01 1.83929E-28
9.39409E-01 1.76746E-28
9.41474E-01 1.69757E-28
9.43505E-01 1.62956E-28
9.45503E-01 1.56340E-28
9.47467E-01 1.49905E-28
9.49397E-01 1.43647E-28
9.51293E-01 1.37563E-28
9.53154E-01 1.31649E-28
9.54981E-01 1.25901E-28
9.56773E-01 1.20317E-28
9.58530E-01 1.14893E-28
9.60252E-01 1.09626E-28
9.61940E-01 1.04513E-28
9.63592E-01 9.95516E-29
9.65209E-01 9.47382E-29
9.66790E-01 9.00704E-29
9.68336E-01 8.55455E-29
9.69846E-01 8.11610E-29
9.71321E-01 7.69145E-29
9.72759E-01 7.28035E-29
9.74162E-01 6.88258E-29
9.75528E-01 6.49791E-29
9.76858E-01 6.12613E-29
9.78152E-01 5.76703E-29
9.79410E-01 5.42041E-29
9.80631E-01 5.08608E-29
9.81815E-01 4.76386E-29
9.82963E-01 4.45357E-29
9.84074E-01 4.15502E-29
9.85148E-01 3.86808E-29
9.86185E-01 3.59256E-29
9.87185E-01 3.32833E-29
9.88148E-01 3.07523E-29
9.89074E-01 2.83313E-29
9.89962E-01 2.60190E-29
9.90814E-01 2.38141E-29
9.91627E-01 2.17154E-29
9.92404E-01 1.97218E-29
9.93143E-01 1.78322E-29
9.93844E-01 1.60455E-29
9.94508E-01 1.43608E-29
9.95134E-01 1.27771E-29
9.95722E-01 1.12937E-29
9.96273E-01 9.90967E-30
9.96786E-01 8.62431E-30
9.97261E-01 7.43693E-30
9.97698E-01 6.34687E-30
9.98097E-01 5.35355E-30
9.98459E-01 4.45644E-30
9.98782E-01 3.65506E-30
9.99067E-01 2.94896E-30
9.99315E-01 2.33778E-30
9.99524E-01 1.82118E-30
9.99695E-01 1.39888E-30
9.99829E-01 1.07067E-30
9.99924E-01 8.36351E-31
9.99981E-01 6.95813E-31
1.00000E+00 6.48974E-31
