 #
 # Subroutine ELSEPA. Elastic scattering of electrons and positrons
 #                    by neutral atoms and positive ions
 #
 # Projectile: positron
 # Kinetic energy = 5.00000E+08 eV = 1.83747E+07 a.u.
 #
 # WARNING: High-energy factorization with free-atom DF screening.
 #          Absorption, polarization and exchange corrections are
 #          switched off.
 #          Phase shifts are calculated for the bare nucleus.
 #          Scattering amplitudes are not evaluated.
 #
 # Element: Rh,  Z =  45,  atomic weight = 1.02906E+02 g/mol
 #
 # Nuclear model: Fermi distribution
 #                Average radius = 5.01414E-13 cm
 #                Skin thickness = 5.46000E-14 cm
 #
 # Number of electrons = 45
 #
 # Total elastic cross section = 4.20740E-18 cm**2 = 1.50249E-01 a0**2
 # 1st transport cross section = 1.59716E-26 cm**2 = 5.70357E-10 a0**2
 # 2nd transport cross section = 4.78945E-26 cm**2 = 1.71034E-09 a0**2
 #
 #
 # Differential cross section:                       MU=(1-COS(THETA))/2
 #
 #  THETA        MU          DCS          DCS        Sherman      error
 #  (deg)                 (cm**2/sr)   (a0**2/sr)    function
 #----------------------------------------------------------------------
0.00000E+00 7.95404E-09
7.61557E-13 7.50072E-09
1.18994E-12 7.26651E-09
1.71346E-12 6.99913E-09
2.33225E-12 6.70671E-09
3.04617E-12 6.39753E-09
3.85530E-12 6.07910E-09
4.75964E-12 5.75796E-09
5.75917E-12 5.43953E-09
6.85391E-12 5.12763E-09
8.04379E-12 4.82565E-09
9.32893E-12 4.53610E-09
1.07092E-11 4.26048E-09
1.21847E-11 3.99955E-09
1.37554E-11 3.75359E-09
1.54213E-11 3.52250E-09
1.71823E-11 3.30588E-09
1.90386E-11 3.10316E-09
2.09900E-11 2.91368E-09
2.30367E-11 2.73667E-09
2.51785E-11 2.57126E-09
2.74156E-11 2.41643E-09
2.97478E-11 2.27187E-09
3.21752E-11 2.13688E-09
3.46979E-11 2.01077E-09
3.73157E-11 1.89292E-09
4.00286E-11 1.78274E-09
4.28368E-11 1.67968E-09
4.57402E-11 1.58324E-09
4.87388E-11 1.49294E-09
5.18325E-11 1.40837E-09
5.50215E-11 1.32911E-09
5.83057E-11 1.25461E-09
6.16850E-11 1.18474E-09
6.51595E-11 1.11920E-09
6.87293E-11 1.05769E-09
7.23943E-11 9.99960E-10
7.61544E-11 9.45745E-10
1.18991E-10 5.45411E-10
1.71347E-10 3.33862E-10
2.33223E-10 2.13071E-10
3.04617E-10 1.41890E-10
3.85531E-10 9.84428E-11
4.75965E-10 7.08854E-11
5.75917E-10 5.26961E-11
6.85389E-10 4.01925E-11
8.04380E-10 3.12944E-11
9.32891E-10 2.47751E-11
1.07092E-09 1.98773E-11
1.21847E-09 1.61225E-11
1.37554E-09 1.31973E-11
1.54213E-09 1.08888E-11
1.71823E-09 9.04823E-12
1.90386E-09 7.56812E-12
2.09900E-09 6.36941E-12
2.30367E-09 5.39286E-12
2.51785E-09 4.58974E-12
2.74156E-09 3.92748E-12
2.97478E-09 3.37927E-12
3.21752E-09 2.92295E-12
3.46978E-09 2.54096E-12
3.73156E-09 2.21941E-12
4.00286E-09 1.94728E-12
4.28368E-09 1.71577E-12
4.57402E-09 1.51787E-12
4.87388E-09 1.34793E-12
5.18326E-09 1.20136E-12
5.50215E-09 1.07444E-12
5.83057E-09 9.64048E-13
6.16850E-09 8.67689E-13
6.51596E-09 7.83248E-13
6.87293E-09 7.08968E-13
7.23942E-09 6.43388E-13
7.61544E-09 5.85287E-13
1.18991E-08 2.53027E-13
1.71347E-08 1.26487E-13
2.33223E-08 6.98505E-14
3.04617E-08 4.15483E-14
3.85531E-08 2.62084E-14
4.75965E-08 1.73326E-14
5.75917E-08 1.19156E-14
6.85389E-08 8.45988E-15
8.04380E-08 6.17213E-15
9.32891E-08 4.60882E-15
1.07092E-07 3.51098E-15
1.21847E-07 2.72166E-15
1.37554E-07 2.14235E-15
1.54213E-07 1.70935E-15
1.71823E-07 1.38042E-15
1.90386E-07 1.12695E-15
2.09900E-07 9.29067E-16
2.30367E-07 7.72752E-16
2.51785E-07 6.47956E-16
2.74156E-07 5.47353E-16
2.97478E-07 4.65527E-16
3.21752E-07 3.98422E-16
3.46978E-07 3.42976E-16
3.73156E-07 2.96841E-16
4.00286E-07 2.58202E-16
4.28368E-07 2.25645E-16
4.57402E-07 1.98057E-16
4.87388E-07 1.74556E-16
5.18325E-07 1.54437E-16
5.50215E-07 1.37132E-16
5.83057E-07 1.22182E-16
6.16850E-07 1.09214E-16
6.51596E-07 9.79200E-17
6.87293E-07 8.80478E-17
7.23942E-07 7.93881E-17
7.61543E-07 7.17664E-17
1.18991E-06 2.94622E-17
1.71347E-06 1.42239E-17
2.33223E-06 7.68205E-18
3.04617E-06 4.50438E-18
3.85531E-06 2.81244E-18
4.75964E-06 1.84533E-18
5.75916E-06 1.26037E-18
6.85388E-06 8.89857E-19
8.04378E-06 6.46009E-19
9.32888E-06 4.80240E-19
1.07092E-05 3.64383E-19
1.21846E-05 2.81444E-19
1.37553E-05 2.20811E-19
1.54212E-05 1.75659E-19
1.71822E-05 1.41477E-19
1.90385E-05 1.15193E-19
2.09899E-05 9.47824E-20
2.30365E-05 7.86921E-20
2.51783E-05 6.58669E-20
2.74153E-05 5.55441E-20
2.97475E-05 4.71625E-20
3.21749E-05 4.03029E-20
3.46974E-05 3.46475E-20
3.73152E-05 2.99519E-20
4.00281E-05 2.60269E-20
4.28362E-05 2.27247E-20
4.57395E-05 1.99297E-20
4.87380E-05 1.75509E-20
5.18317E-05 1.55159E-20
5.50205E-05 1.37668E-20
5.83045E-05 1.22571E-20
6.16838E-05 1.09487E-20
6.51582E-05 9.81049E-21
6.87277E-05 8.81656E-21
7.23925E-05 7.94546E-21
7.61524E-05 7.18053E-21
9.21439E-05 4.89759E-21
1.09658E-04 3.45233E-21
1.28695E-04 2.50200E-21
1.49255E-04 1.85626E-21
1.71338E-04 1.40540E-21
1.94942E-04 1.08289E-21
2.20070E-04 8.47351E-22
2.46720E-04 6.72145E-22
2.74892E-04 5.39656E-22
3.04586E-04 4.38016E-22
3.35803E-04 3.59001E-22
3.68542E-04 2.96851E-22
4.02802E-04 2.47435E-22
4.38585E-04 2.07759E-22
4.75889E-04 1.75618E-22
5.14715E-04 1.49363E-22
5.55063E-04 1.27755E-22
5.96931E-04 1.09846E-22
6.40321E-04 9.49070E-23
6.85233E-04 8.23692E-23
7.31665E-04 7.17874E-23
7.79618E-04 6.28100E-23
8.29092E-04 5.51560E-23
8.80086E-04 4.86003E-23
9.32601E-04 4.29612E-23
9.86636E-04 3.80906E-23
1.04219E-03 3.38679E-23
1.09927E-03 3.01935E-23
1.15786E-03 2.69855E-23
1.21797E-03 2.41755E-23
1.27961E-03 2.17067E-23
1.34276E-03 1.95313E-23
1.40743E-03 1.76092E-23
1.47362E-03 1.59066E-23
1.54133E-03 1.43945E-23
1.61056E-03 1.30485E-23
1.68131E-03 1.18477E-23
1.75357E-03 1.07741E-23
1.82735E-03 9.81218E-24
1.90265E-03 8.94873E-24
1.97947E-03 8.17219E-24
2.05780E-03 7.47257E-24
2.13765E-03 6.84116E-24
2.21902E-03 6.27039E-24
2.30190E-03 5.75362E-24
2.38630E-03 5.28503E-24
2.47222E-03 4.85952E-24
2.55965E-03 4.47260E-24
2.64859E-03 4.12029E-24
2.73905E-03 3.79910E-24
2.83103E-03 3.50591E-24
2.92452E-03 3.23797E-24
3.01952E-03 2.99283E-24
3.11604E-03 2.76830E-24
3.21407E-03 2.56243E-24
3.31362E-03 2.37349E-24
3.41468E-03 2.19990E-24
3.51725E-03 2.04029E-24
3.62133E-03 1.89338E-24
3.72692E-03 1.75806E-24
3.83403E-03 1.63330E-24
3.94265E-03 1.51818E-24
4.05278E-03 1.41189E-24
4.16442E-03 1.31366E-24
4.27757E-03 1.22283E-24
4.39223E-03 1.13878E-24
4.50840E-03 1.06095E-24
4.62608E-03 9.88828E-25
4.74527E-03 9.21963E-25
4.86597E-03 8.59933E-25
4.98817E-03 8.02354E-25
5.11188E-03 7.48877E-25
5.23711E-03 6.99185E-25
5.36383E-03 6.52985E-25
5.49207E-03 6.10012E-25
5.62181E-03 5.70021E-25
5.75306E-03 5.32787E-25
5.88581E-03 4.98107E-25
6.02007E-03 4.65791E-25
6.15583E-03 4.35666E-25
6.29310E-03 4.07572E-25
6.43187E-03 3.81363E-25
6.57214E-03 3.56904E-25
6.71392E-03 3.34070E-25
6.85720E-03 3.12746E-25
7.00198E-03 2.92826E-25
7.14827E-03 2.74212E-25
7.29605E-03 2.56814E-25
7.44534E-03 2.40547E-25
7.59612E-03 2.25334E-25
7.97965E-03 1.91456E-25
8.37255E-03 1.62745E-25
8.77480E-03 1.38382E-25
9.18641E-03 1.17688E-25
9.60736E-03 1.00094E-25
1.00376E-02 8.51237E-26
1.04773E-02 7.23793E-26
1.09262E-02 6.15246E-26
1.13844E-02 5.22765E-26
1.18520E-02 4.43959E-26
1.23288E-02 3.76803E-26
1.28150E-02 3.19580E-26
1.33104E-02 2.70830E-26
1.38150E-02 2.29314E-26
1.43290E-02 1.93975E-26
1.48521E-02 1.63910E-26
1.53845E-02 1.38352E-26
1.59262E-02 1.16642E-26
1.64770E-02 9.82193E-27
1.70371E-02 8.26021E-27
1.76063E-02 6.93793E-27
1.81848E-02 5.81985E-27
1.87724E-02 4.87581E-27
1.93692E-02 4.07997E-27
1.99751E-02 3.41019E-27
2.05901E-02 2.84753E-27
2.12143E-02 2.37577E-27
2.18476E-02 1.98104E-27
2.24900E-02 1.65148E-27
2.31415E-02 1.37696E-27
2.38021E-02 1.14883E-27
2.44717E-02 9.59707E-28
2.51504E-02 8.03325E-28
2.58382E-02 6.74340E-28
2.65349E-02 5.68220E-28
2.72407E-02 4.81124E-28
2.79555E-02 4.09803E-28
2.86793E-02 3.51516E-28
2.94120E-02 3.03957E-28
3.01537E-02 2.65189E-28
3.09043E-02 2.33590E-28
3.16639E-02 2.07811E-28
3.24324E-02 1.86727E-28
3.32098E-02 1.69411E-28
3.39961E-02 1.55096E-28
3.47912E-02 1.43158E-28
3.55952E-02 1.33087E-28
3.64081E-02 1.24469E-28
3.72297E-02 1.16974E-28
3.80602E-02 1.10341E-28
3.88995E-02 1.04361E-28
3.97476E-02 9.88742E-29
4.06044E-02 9.37584E-29
4.14700E-02 8.89215E-29
4.23443E-02 8.42960E-29
4.32273E-02 7.98343E-29
4.41190E-02 7.55044E-29
4.50194E-02 7.12862E-29
4.59284E-02 6.71688E-29
4.68461E-02 6.31480E-29
4.87074E-02 5.54024E-29
5.06030E-02 4.80881E-29
5.25328E-02 4.12633E-29
5.44967E-02 3.49843E-29
5.64946E-02 2.92936E-29
5.85262E-02 2.42149E-29
6.05914E-02 1.97521E-29
6.26901E-02 1.58910E-29
6.48222E-02 1.26022E-29
6.69873E-02 9.84522E-30
6.91854E-02 7.57134E-30
7.14163E-02 5.72755E-30
7.36799E-02 4.25918E-30
7.59760E-02 3.11230E-30
7.83043E-02 2.23553E-30
8.06647E-02 1.58130E-30
8.30571E-02 1.10669E-30
8.54812E-02 7.73901E-31
8.79369E-02 5.50331E-31
9.04240E-02 4.08498E-31
9.29422E-02 3.25741E-31
9.54915E-02 2.83802E-31
9.80716E-02 2.68353E-31
1.00682E-01 2.68470E-31
1.03323E-01 2.76123E-31
1.05995E-01 2.85671E-31
1.08696E-01 2.93402E-31
1.11427E-01 2.97116E-31
1.14188E-01 2.95757E-31
1.16978E-01 2.89104E-31
1.19797E-01 2.77510E-31
1.22645E-01 2.61692E-31
1.25522E-01 2.42563E-31
1.28428E-01 2.21113E-31
1.31361E-01 1.98310E-31
1.34323E-01 1.75044E-31
1.37313E-01 1.52084E-31
1.40330E-01 1.30060E-31
1.43375E-01 1.09458E-31
1.46447E-01 9.06200E-32
1.49545E-01 7.37618E-32
1.52671E-01 5.89844E-32
1.55823E-01 4.62943E-32
1.59001E-01 3.56224E-32
1.62205E-01 2.68422E-32
1.65435E-01 1.97874E-32
1.68690E-01 1.42667E-32
1.71970E-01 1.00770E-32
1.75276E-01 7.01383E-33
1.78606E-01 4.87973E-33
1.81961E-01 3.49042E-33
1.85340E-01 2.67891E-33
1.88743E-01 2.29810E-33
1.92169E-01 2.22189E-33
1.95619E-01 2.34518E-33
1.99092E-01 2.58302E-33
2.02589E-01 2.86910E-33
2.06107E-01 3.15387E-33
2.09649E-01 3.40239E-33
2.13212E-01 3.59209E-33
2.16797E-01 3.71056E-33
2.20404E-01 3.75345E-33
2.24032E-01 3.72255E-33
2.27680E-01 3.62407E-33
2.31350E-01 3.46712E-33
2.35040E-01 3.26254E-33
2.38751E-01 3.02186E-33
2.42481E-01 2.75649E-33
2.46231E-01 2.47719E-33
2.50000E-01 2.19361E-33
2.53788E-01 1.91410E-33
2.57595E-01 1.64550E-33
2.61421E-01 1.39318E-33
2.65264E-01 1.16106E-33
2.69126E-01 9.51743E-34
2.73005E-01 7.66608E-34
2.76901E-01 6.06028E-34
2.80814E-01 4.69523E-34
2.84744E-01 3.55945E-34
2.88691E-01 2.63643E-34
2.92653E-01 1.90617E-34
2.96632E-01 1.34656E-34
3.00625E-01 9.34591E-35
3.04634E-01 6.47299E-35
3.08658E-01 4.62553E-35
3.12697E-01 3.59649E-35
3.16749E-01 3.19726E-35
3.20816E-01 3.26033E-35
3.24896E-01 3.64066E-35
3.28990E-01 4.21591E-35
3.33097E-01 4.88586E-35
3.37216E-01 5.57116E-35
3.41348E-01 6.21154E-35
3.45492E-01 6.76379E-35
3.49647E-01 7.19955E-35
3.53814E-01 7.50292E-35
3.57992E-01 7.66835E-35
3.62181E-01 7.69838E-35
3.66381E-01 7.60182E-35
3.70590E-01 7.39188E-35
3.74810E-01 7.08468E-35
3.79039E-01 6.69787E-35
3.83277E-01 6.24967E-35
3.87524E-01 5.75789E-35
3.91780E-01 5.23935E-35
3.96044E-01 4.70928E-35
4.00316E-01 4.18124E-35
4.04596E-01 3.66663E-35
4.08882E-01 3.17486E-35
4.13176E-01 2.71331E-35
4.17476E-01 2.28731E-35
4.21783E-01 1.90057E-35
4.26095E-01 1.55501E-35
4.30413E-01 1.25127E-35
4.34737E-01 9.88704E-36
4.39065E-01 7.65843E-36
4.43398E-01 5.80319E-36
4.47736E-01 4.29288E-36
4.52077E-01 3.09505E-36
4.56422E-01 2.17519E-36
4.60770E-01 1.49769E-36
4.65122E-01 1.02748E-36
4.69476E-01 7.30525E-37
4.73832E-01 5.74825E-37
4.78190E-01 5.30822E-37
4.82550E-01 5.71775E-37
4.86912E-01 6.73974E-37
4.91274E-01 8.16830E-37
4.95637E-01 9.82888E-37
5.00000E-01 1.15764E-36
5.04363E-01 1.32941E-36
5.08726E-01 1.48913E-36
5.13088E-01 1.63008E-36
5.17450E-01 1.74766E-36
5.21810E-01 1.83900E-36
5.26168E-01 1.90283E-36
5.30524E-01 1.93909E-36
5.34878E-01 1.94876E-36
5.39230E-01 1.93366E-36
5.43578E-01 1.89599E-36
5.47923E-01 1.83856E-36
5.52264E-01 1.76435E-36
5.56602E-01 1.67630E-36
5.60935E-01 1.57747E-36
5.65263E-01 1.47071E-36
5.69587E-01 1.35880E-36
5.73905E-01 1.24429E-36
5.78217E-01 1.12928E-36
5.82524E-01 1.01584E-36
5.86824E-01 9.05596E-37
5.91118E-01 7.99946E-37
5.95404E-01 6.99927E-37
5.99684E-01 6.06428E-37
6.03956E-01 5.20032E-37
6.08220E-01 4.41081E-37
6.12476E-01 3.69773E-37
6.16723E-01 3.06108E-37
6.20961E-01 2.49903E-37
6.25190E-01 2.00946E-37
6.29410E-01 1.58858E-37
6.33619E-01 1.23186E-37
6.37819E-01 9.34920E-38
6.42008E-01 6.92233E-38
6.46186E-01 4.98610E-38
6.50353E-01 3.48528E-38
6.54508E-01 2.36670E-38
6.58652E-01 1.57855E-38
6.62784E-01 1.07211E-38
6.66903E-01 8.00873E-39
6.71010E-01 7.22036E-39
6.75104E-01 7.96625E-39
6.79184E-01 9.89091E-39
6.83251E-01 1.26898E-38
6.87303E-01 1.60824E-38
6.91342E-01 1.98374E-38
6.95366E-01 2.37479E-38
6.99375E-01 2.76591E-38
7.03368E-01 3.14192E-38
7.07347E-01 3.49315E-38
7.11309E-01 3.81056E-38
7.15256E-01 4.08988E-38
7.19186E-01 4.32518E-38
7.23099E-01 4.51605E-38
7.26995E-01 4.66038E-38
7.30874E-01 4.75895E-38
7.34736E-01 4.81404E-38
7.38579E-01 4.82774E-38
7.42405E-01 4.80250E-38
7.46212E-01 4.74244E-38
7.50000E-01 4.65107E-38
7.53769E-01 4.53113E-38
7.57519E-01 4.38827E-38
7.61249E-01 4.22532E-38
7.64960E-01 4.04547E-38
7.68650E-01 3.85377E-38
7.72320E-01 3.65145E-38
7.75968E-01 3.44295E-38
7.79596E-01 3.23079E-38
7.83203E-01 3.01844E-38
7.86788E-01 2.80709E-38
7.90351E-01 2.59767E-38
7.93893E-01 2.39414E-38
7.97411E-01 2.19607E-38
8.00908E-01 2.00567E-38
8.04381E-01 1.82372E-38
8.07831E-01 1.65079E-38
8.11257E-01 1.48759E-38
8.14660E-01 1.33423E-38
8.18039E-01 1.19114E-38
8.21394E-01 1.05869E-38
8.24724E-01 9.36005E-39
8.28030E-01 8.23252E-39
8.31310E-01 7.20169E-39
8.34565E-01 6.26473E-39
8.37795E-01 5.42055E-39
8.40999E-01 4.65689E-39
8.44177E-01 3.97474E-39
8.47329E-01 3.36785E-39
8.50455E-01 2.83125E-39
8.53553E-01 2.35974E-39
8.56625E-01 1.94883E-39
8.59670E-01 1.59233E-39
8.62687E-01 1.28512E-39
8.65677E-01 1.02357E-39
8.68639E-01 8.03533E-40
8.71572E-01 1.00000E-45
8.74478E-01 1.00000E-45
8.77355E-01 1.00000E-45
8.80203E-01 1.00000E-45
8.83022E-01 1.00000E-45
8.85812E-01 1.00000E-45
8.88573E-01 1.00000E-45
8.91304E-01 1.00000E-45
8.94005E-01 1.00000E-45
8.96677E-01 1.00000E-45
8.99318E-01 1.00000E-45
9.01928E-01 1.00000E-45
9.04508E-01 1.00000E-45
9.07058E-01 1.00000E-45
9.09576E-01 1.00000E-45
9.12063E-01 1.00000E-45
9.14519E-01 1.00000E-45
9.16943E-01 1.00000E-45
9.19335E-01 1.00000E-45
9.21696E-01 1.00000E-45
9.24024E-01 1.00000E-45
9.26320E-01 1.00000E-45
9.28584E-01 1.00000E-45
9.30815E-01 1.00000E-45
9.33013E-01 1.00000E-45
9.35178E-01 1.00000E-45
9.37310E-01 1.00000E-45
9.39409E-01 1.00000E-45
9.41474E-01 1.00000E-45
9.43505E-01 1.00000E-45
9.45503E-01 1.00000E-45
9.47467E-01 1.00000E-45
9.49397E-01 1.00000E-45
9.51293E-01 1.00000E-45
9.53154E-01 1.00000E-45
9.54981E-01 1.00000E-45
9.56773E-01 1.00000E-45
9.58530E-01 1.00000E-45
9.60252E-01 1.00000E-45
9.61940E-01 1.00000E-45
9.63592E-01 1.00000E-45
9.65209E-01 1.00000E-45
9.66790E-01 1.00000E-45
9.68336E-01 1.00000E-45
9.69846E-01 1.00000E-45
9.71321E-01 1.00000E-45
9.72759E-01 1.00000E-45
9.74162E-01 1.00000E-45
9.75528E-01 1.00000E-45
9.76858E-01 1.00000E-45
9.78152E-01 1.00000E-45
9.79410E-01 1.00000E-45
9.80631E-01 1.00000E-45
9.81815E-01 1.00000E-45
9.82963E-01 1.00000E-45
9.84074E-01 1.00000E-45
9.85148E-01 1.00000E-45
9.86185E-01 1.00000E-45
9.87185E-01 1.00000E-45
9.88148E-01 1.00000E-45
9.89074E-01 1.00000E-45
9.89962E-01 1.00000E-45
9.90814E-01 1.00000E-45
9.91627E-01 1.00000E-45
9.92404E-01 1.00000E-45
9.93143E-01 1.00000E-45
9.93844E-01 1.00000E-45
9.94508E-01 1.00000E-45
9.95134E-01 1.00000E-45
9.95722E-01 1.00000E-45
9.96273E-01 1.00000E-45
9.96786E-01 1.00000E-45
9.97261E-01 1.00000E-45
9.97698E-01 1.00000E-45
9.98097E-01 1.00000E-45
9.98459E-01 1.00000E-45
9.98782E-01 1.00000E-45
9.99067E-01 1.00000E-45
9.99315E-01 1.00000E-45
9.99524E-01 1.00000E-45
9.99695E-01 1.00000E-45
9.99829E-01 1.00000E-45
9.99924E-01 1.00000E-45
9.99981E-01 1.00000E-45
1.00000E+00 1.00000E-45
