 #
 # Subroutine ELSEPA. Elastic scattering of electrons and positrons
 #                    by neutral atoms and positive ions
 #
 # Projectile: positron
 # Kinetic energy = 6.00000E+06 eV = 2.20496E+05 a.u.
 #
 # WARNING: High-energy factorization with free-atom DF screening.
 #          Absorption, polarization and exchange corrections are
 #          switched off.
 #          Phase shifts are calculated for the bare nucleus.
 #          Scattering amplitudes are not evaluated.
 #
 # Element: Rh,  Z =  45,  atomic weight = 1.02906E+02 g/mol
 #
 # Nuclear model: Fermi distribution
 #                Average radius = 5.01414E-13 cm
 #                Skin thickness = 5.46000E-14 cm
 #
 # Number of electrons = 45
 #
 # Total elastic cross section = 4.23570E-18 cm**2 = 1.51260E-01 a0**2
 # 1st transport cross section = 6.54465E-23 cm**2 = 2.33714E-06 a0**2
 # 2nd transport cross section = 1.88766E-22 cm**2 = 6.74097E-06 a0**2
 #
 #
 # Differential cross section:                       MU=(1-COS(THETA))/2
 #
 #  THETA        MU          DCS          DCS        Sherman      error
 #  (deg)                 (cm**2/sr)   (a0**2/sr)    function
 #----------------------------------------------------------------------
0.00000E+00 1.34603E-12
7.61557E-13 1.34602E-12
1.18994E-12 1.34601E-12
1.71346E-12 1.34600E-12
2.33225E-12 1.34599E-12
3.04617E-12 1.34597E-12
3.85530E-12 1.34596E-12
4.75964E-12 1.34594E-12
5.75917E-12 1.34592E-12
6.85391E-12 1.34590E-12
8.04379E-12 1.34588E-12
9.32893E-12 1.34586E-12
1.07092E-11 1.34583E-12
1.21847E-11 1.34581E-12
1.37554E-11 1.34578E-12
1.54213E-11 1.34575E-12
1.71823E-11 1.34572E-12
1.90386E-11 1.34568E-12
2.09900E-11 1.34565E-12
2.30367E-11 1.34561E-12
2.51785E-11 1.34557E-12
2.74156E-11 1.34553E-12
2.97478E-11 1.34549E-12
3.21752E-11 1.34544E-12
3.46979E-11 1.34540E-12
3.73157E-11 1.34535E-12
4.00286E-11 1.34530E-12
4.28368E-11 1.34525E-12
4.57402E-11 1.34520E-12
4.87388E-11 1.34515E-12
5.18325E-11 1.34509E-12
5.50215E-11 1.34503E-12
5.83057E-11 1.34497E-12
6.16850E-11 1.34491E-12
6.51595E-11 1.34485E-12
6.87293E-11 1.34479E-12
7.23943E-11 1.34472E-12
7.61544E-11 1.34465E-12
1.18991E-10 1.34388E-12
1.71347E-10 1.34294E-12
2.33223E-10 1.34184E-12
3.04617E-10 1.34056E-12
3.85531E-10 1.33912E-12
4.75965E-10 1.33752E-12
5.75917E-10 1.33575E-12
6.85389E-10 1.33381E-12
8.04380E-10 1.33172E-12
9.32891E-10 1.32946E-12
1.07092E-09 1.32705E-12
1.21847E-09 1.32448E-12
1.37554E-09 1.32175E-12
1.54213E-09 1.31888E-12
1.71823E-09 1.31585E-12
1.90386E-09 1.31267E-12
2.09900E-09 1.30934E-12
2.30367E-09 1.30587E-12
2.51785E-09 1.30226E-12
2.74156E-09 1.29850E-12
2.97478E-09 1.29461E-12
3.21752E-09 1.29058E-12
3.46978E-09 1.28643E-12
3.73156E-09 1.28214E-12
4.00286E-09 1.27772E-12
4.28368E-09 1.27318E-12
4.57402E-09 1.26852E-12
4.87388E-09 1.26374E-12
5.18326E-09 1.25885E-12
5.50215E-09 1.25384E-12
5.83057E-09 1.24869E-12
6.16850E-09 1.24344E-12
6.51596E-09 1.23810E-12
6.87293E-09 1.23266E-12
7.23942E-09 1.22714E-12
7.61544E-09 1.22154E-12
1.18991E-08 1.16091E-12
1.71347E-08 1.09423E-12
2.33223E-08 1.02437E-12
3.04617E-08 9.53861E-13
3.85531E-08 8.84632E-13
4.75965E-08 8.18056E-13
5.75917E-08 7.55008E-13
6.85389E-08 6.95766E-13
8.04380E-08 6.40794E-13
9.32891E-08 5.90088E-13
1.07092E-07 5.43503E-13
1.21847E-07 5.00811E-13
1.37554E-07 4.61626E-13
1.54213E-07 4.25722E-13
1.71823E-07 3.92898E-13
1.90386E-07 3.62882E-13
2.09900E-07 3.35416E-13
2.30367E-07 3.10250E-13
2.51785E-07 2.87087E-13
2.74156E-07 2.65853E-13
2.97478E-07 2.46371E-13
3.21752E-07 2.28482E-13
3.46978E-07 2.12041E-13
3.73156E-07 1.96874E-13
4.00286E-07 1.82898E-13
4.28368E-07 1.70033E-13
4.57402E-07 1.58181E-13
4.87388E-07 1.47256E-13
5.18325E-07 1.37171E-13
5.50215E-07 1.27681E-13
5.83057E-07 1.18362E-13
6.16850E-07 1.10004E-13
6.51596E-07 1.02488E-13
6.87293E-07 9.57133E-14
7.23942E-07 8.95911E-14
7.61543E-07 8.40457E-14
1.18991E-06 4.53564E-14
1.71347E-06 2.61705E-14
2.33223E-06 1.61944E-14
3.04617E-06 1.06738E-14
3.85531E-06 7.39769E-15
4.75964E-06 5.32716E-15
5.75916E-06 3.94668E-15
6.85388E-06 2.98209E-15
8.04378E-06 2.29152E-15
9.32888E-06 1.78539E-15
1.07092E-05 1.40779E-15
1.21846E-05 1.12209E-15
1.37553E-05 9.03193E-16
1.54212E-05 7.33543E-16
1.71822E-05 6.01403E-16
1.90385E-05 4.97408E-16
2.09899E-05 4.15098E-16
2.30365E-05 3.49110E-16
2.51783E-05 2.95692E-16
2.74153E-05 2.52139E-16
2.97475E-05 2.16367E-16
3.21749E-05 1.86786E-16
3.46974E-05 1.62165E-16
3.73152E-05 1.41530E-16
4.00281E-05 1.24124E-16
4.28362E-05 1.09348E-16
4.57395E-05 9.67259E-17
4.87380E-05 8.58835E-17
5.18317E-05 7.65225E-17
5.50205E-05 6.83950E-17
5.83045E-05 6.12998E-17
6.16838E-05 5.51292E-17
6.51582E-05 4.97418E-17
6.87277E-05 4.49626E-17
7.23925E-05 4.07485E-17
7.61524E-05 3.70312E-17
9.21439E-05 2.57664E-17
1.09658E-04 1.84494E-17
1.28695E-04 1.35434E-17
1.49255E-04 1.01568E-17
1.71338E-04 7.76131E-18
1.94942E-04 6.02949E-18
2.20070E-04 4.75301E-18
2.46720E-04 3.79639E-18
2.74892E-04 3.06840E-18
3.04586E-04 2.50675E-18
3.35803E-04 2.06783E-18
3.68542E-04 1.72091E-18
4.02802E-04 1.44372E-18
4.38585E-04 1.22018E-18
4.75889E-04 1.03828E-18
5.14715E-04 8.89056E-19
5.55063E-04 7.65704E-19
5.96931E-04 6.63010E-19
6.40321E-04 5.76960E-19
6.85233E-04 5.04425E-19
7.31665E-04 4.42931E-19
7.79618E-04 3.90523E-19
8.29092E-04 3.45632E-19
8.80086E-04 3.07000E-19
9.32601E-04 2.73611E-19
9.86636E-04 2.44633E-19
1.04219E-03 2.19386E-19
1.09927E-03 1.97308E-19
1.15786E-03 1.77931E-19
1.21797E-03 1.60870E-19
1.27961E-03 1.45802E-19
1.34276E-03 1.32453E-19
1.40743E-03 1.20593E-19
1.47362E-03 1.10028E-19
1.54133E-03 1.00591E-19
1.61056E-03 9.21419E-20
1.68131E-03 8.45588E-20
1.75357E-03 7.77377E-20
1.82735E-03 7.15886E-20
1.90265E-03 6.60333E-20
1.97947E-03 6.10048E-20
2.05780E-03 5.64444E-20
2.13765E-03 5.23009E-20
2.21902E-03 4.85293E-20
2.30190E-03 4.50904E-20
2.38630E-03 4.19496E-20
2.47222E-03 3.90766E-20
2.55965E-03 3.64444E-20
2.64859E-03 3.40294E-20
2.73905E-03 3.18104E-20
2.83103E-03 2.97685E-20
2.92452E-03 2.78873E-20
3.01952E-03 2.61517E-20
3.11604E-03 2.45486E-20
3.21407E-03 2.30659E-20
3.31362E-03 2.16930E-20
3.41468E-03 2.04203E-20
3.51725E-03 1.92392E-20
3.62133E-03 1.81419E-20
3.72692E-03 1.71215E-20
3.83403E-03 1.61714E-20
3.94265E-03 1.52860E-20
4.05278E-03 1.44602E-20
4.16442E-03 1.36891E-20
4.27757E-03 1.29685E-20
4.39223E-03 1.22945E-20
4.50840E-03 1.16635E-20
4.62608E-03 1.10723E-20
4.74527E-03 1.05179E-20
4.86597E-03 9.99766E-21
4.98817E-03 9.50900E-21
5.11188E-03 9.04969E-21
5.23711E-03 8.61765E-21
5.36383E-03 8.21096E-21
5.49207E-03 7.82785E-21
5.62181E-03 7.46673E-21
5.75306E-03 7.12610E-21
5.88581E-03 6.80456E-21
6.02007E-03 6.50088E-21
6.15583E-03 6.21385E-21
6.29310E-03 5.94243E-21
6.43187E-03 5.68557E-21
6.57214E-03 5.44239E-21
6.71392E-03 5.21199E-21
6.85720E-03 4.99360E-21
7.00198E-03 4.78646E-21
7.14827E-03 4.58990E-21
7.29605E-03 4.40327E-21
7.44534E-03 4.22598E-21
7.59612E-03 4.05747E-21
7.97965E-03 3.67134E-21
8.37255E-03 3.32984E-21
8.77480E-03 3.02694E-21
9.18641E-03 2.75752E-21
9.60736E-03 2.51726E-21
1.00376E-02 2.30246E-21
1.04773E-02 2.10996E-21
1.09262E-02 1.93705E-21
1.13844E-02 1.78140E-21
1.18520E-02 1.64097E-21
1.23288E-02 1.51404E-21
1.28150E-02 1.39906E-21
1.33104E-02 1.29473E-21
1.38150E-02 1.19988E-21
1.43290E-02 1.11351E-21
1.48521E-02 1.03472E-21
1.53845E-02 9.62729E-22
1.59262E-02 8.96850E-22
1.64770E-02 8.36472E-22
1.70371E-02 7.81057E-22
1.76063E-02 7.30121E-22
1.81848E-02 6.83242E-22
1.87724E-02 6.40037E-22
1.93692E-02 6.00170E-22
1.99751E-02 5.63335E-22
2.05901E-02 5.29262E-22
2.12143E-02 4.97707E-22
2.18476E-02 4.68450E-22
2.24900E-02 4.41295E-22
2.31415E-02 4.16064E-22
2.38021E-02 3.92595E-22
2.44717E-02 3.70745E-22
2.51504E-02 3.50381E-22
2.58382E-02 3.31384E-22
2.65349E-02 3.13646E-22
2.72407E-02 2.97070E-22
2.79555E-02 2.81564E-22
2.86793E-02 2.67048E-22
2.94120E-02 2.53447E-22
3.01537E-02 2.40693E-22
3.09043E-02 2.28724E-22
3.16639E-02 2.17482E-22
3.24324E-02 2.06917E-22
3.32098E-02 1.96979E-22
3.39961E-02 1.87625E-22
3.47912E-02 1.78814E-22
3.55952E-02 1.70509E-22
3.64081E-02 1.62676E-22
3.72297E-02 1.55283E-22
3.80602E-02 1.48301E-22
3.88995E-02 1.41703E-22
3.97476E-02 1.35464E-22
4.06044E-02 1.29561E-22
4.14700E-02 1.23973E-22
4.23443E-02 1.18679E-22
4.32273E-02 1.13662E-22
4.41190E-02 1.08904E-22
4.50194E-02 1.04390E-22
4.59284E-02 1.00104E-22
4.68461E-02 9.60342E-23
4.87074E-02 8.84891E-23
5.06030E-02 8.16624E-23
5.25328E-02 7.54740E-23
5.44967E-02 6.98541E-23
5.64946E-02 6.47414E-23
5.85262E-02 6.00823E-23
6.05914E-02 5.58298E-23
6.26901E-02 5.19422E-23
6.48222E-02 4.83828E-23
6.69873E-02 4.51192E-23
6.91854E-02 4.21224E-23
7.14163E-02 3.93669E-23
7.36799E-02 3.68300E-23
7.59760E-02 3.44913E-23
7.83043E-02 3.23327E-23
8.06647E-02 3.03378E-23
8.30571E-02 2.84921E-23
8.54812E-02 2.67825E-23
8.79369E-02 2.51972E-23
9.04240E-02 2.37257E-23
9.29422E-02 2.23582E-23
9.54915E-02 2.10863E-23
9.80716E-02 1.99020E-23
1.00682E-01 1.87983E-23
1.03323E-01 1.77687E-23
1.05995E-01 1.68074E-23
1.08696E-01 1.59091E-23
1.11427E-01 1.50688E-23
1.14188E-01 1.42823E-23
1.16978E-01 1.35455E-23
1.19797E-01 1.28546E-23
1.22645E-01 1.22064E-23
1.25522E-01 1.15977E-23
1.28428E-01 1.10257E-23
1.31361E-01 1.04878E-23
1.34323E-01 9.98158E-24
1.37313E-01 9.50492E-24
1.40330E-01 9.05575E-24
1.43375E-01 8.63220E-24
1.46447E-01 8.23256E-24
1.49545E-01 7.85524E-24
1.52671E-01 7.49880E-24
1.55823E-01 7.16187E-24
1.59001E-01 6.84319E-24
1.62205E-01 6.54160E-24
1.65435E-01 6.25601E-24
1.68690E-01 5.98545E-24
1.71970E-01 5.72898E-24
1.75276E-01 5.48574E-24
1.78606E-01 5.25493E-24
1.81961E-01 5.03578E-24
1.85340E-01 4.82763E-24
1.88743E-01 4.62981E-24
1.92169E-01 4.44174E-24
1.95619E-01 4.26284E-24
1.99092E-01 4.09259E-24
2.02589E-01 3.93049E-24
2.06107E-01 3.77609E-24
2.09649E-01 3.62896E-24
2.13212E-01 3.48870E-24
2.16797E-01 3.35494E-24
2.20404E-01 3.22732E-24
2.24032E-01 3.10549E-24
2.27680E-01 2.98916E-24
2.31350E-01 2.87804E-24
2.35040E-01 2.77187E-24
2.38751E-01 2.67037E-24
2.42481E-01 2.57329E-24
2.46231E-01 2.48041E-24
2.50000E-01 2.39154E-24
2.53788E-01 2.30647E-24
2.57595E-01 2.22499E-24
2.61421E-01 2.14693E-24
2.65264E-01 2.07213E-24
2.69126E-01 2.00043E-24
2.73005E-01 1.93167E-24
2.76901E-01 1.86572E-24
2.80814E-01 1.80243E-24
2.84744E-01 1.74169E-24
2.88691E-01 1.68337E-24
2.92653E-01 1.62736E-24
2.96632E-01 1.57356E-24
3.00625E-01 1.52185E-24
3.04634E-01 1.47215E-24
3.08658E-01 1.42437E-24
3.12697E-01 1.37841E-24
3.16749E-01 1.33420E-24
3.20816E-01 1.29165E-24
3.24896E-01 1.25070E-24
3.28990E-01 1.21128E-24
3.33097E-01 1.17331E-24
3.37216E-01 1.13674E-24
3.41348E-01 1.10150E-24
3.45492E-01 1.06755E-24
3.49647E-01 1.03481E-24
3.53814E-01 1.00325E-24
3.57992E-01 9.72808E-25
3.62181E-01 9.43446E-25
3.66381E-01 9.15116E-25
3.70590E-01 8.87775E-25
3.74810E-01 8.61382E-25
3.79039E-01 8.35901E-25
3.83277E-01 8.11294E-25
3.87524E-01 7.87526E-25
3.91780E-01 7.64564E-25
3.96044E-01 7.42374E-25
4.00316E-01 7.20928E-25
4.04596E-01 7.00197E-25
4.08882E-01 6.80153E-25
4.13176E-01 6.60768E-25
4.17476E-01 6.42017E-25
4.21783E-01 6.23877E-25
4.26095E-01 6.06324E-25
4.30413E-01 5.89336E-25
4.34737E-01 5.72892E-25
4.39065E-01 5.56971E-25
4.43398E-01 5.41554E-25
4.47736E-01 5.26624E-25
4.52077E-01 5.12160E-25
4.56422E-01 4.98148E-25
4.60770E-01 4.84570E-25
4.65122E-01 4.71411E-25
4.69476E-01 4.58655E-25
4.73832E-01 4.46289E-25
4.78190E-01 4.34298E-25
4.82550E-01 4.22670E-25
4.86912E-01 4.11391E-25
4.91274E-01 4.00449E-25
4.95637E-01 3.89833E-25
5.00000E-01 3.79531E-25
5.04363E-01 3.69533E-25
5.08726E-01 3.59828E-25
5.13088E-01 3.50407E-25
5.17450E-01 3.41259E-25
5.21810E-01 3.32375E-25
5.26168E-01 3.23747E-25
5.30524E-01 3.15366E-25
5.34878E-01 3.07224E-25
5.39230E-01 2.99313E-25
5.43578E-01 2.91626E-25
5.47923E-01 2.84154E-25
5.52264E-01 2.76892E-25
5.56602E-01 2.69832E-25
5.60935E-01 2.62968E-25
5.65263E-01 2.56293E-25
5.69587E-01 2.49802E-25
5.73905E-01 2.43488E-25
5.78217E-01 2.37347E-25
5.82524E-01 2.31372E-25
5.86824E-01 2.25559E-25
5.91118E-01 2.19903E-25
5.95404E-01 2.14398E-25
5.99684E-01 2.09039E-25
6.03956E-01 2.03824E-25
6.08220E-01 1.98746E-25
6.12476E-01 1.93802E-25
6.16723E-01 1.88989E-25
6.20961E-01 1.84301E-25
6.25190E-01 1.79735E-25
6.29410E-01 1.75288E-25
6.33619E-01 1.70955E-25
6.37819E-01 1.66735E-25
6.42008E-01 1.62622E-25
6.46186E-01 1.58615E-25
6.50353E-01 1.54710E-25
6.54508E-01 1.50904E-25
6.58652E-01 1.47194E-25
6.62784E-01 1.43578E-25
6.66903E-01 1.40053E-25
6.71010E-01 1.36615E-25
6.75104E-01 1.33264E-25
6.79184E-01 1.29995E-25
6.83251E-01 1.26808E-25
6.87303E-01 1.23699E-25
6.91342E-01 1.20667E-25
6.95366E-01 1.17709E-25
6.99375E-01 1.14824E-25
7.03368E-01 1.12008E-25
7.07347E-01 1.09261E-25
7.11309E-01 1.06581E-25
7.15256E-01 1.03965E-25
7.19186E-01 1.01413E-25
7.23099E-01 9.89211E-26
7.26995E-01 9.64893E-26
7.30874E-01 9.41154E-26
7.34736E-01 9.17980E-26
7.38579E-01 8.95356E-26
7.42405E-01 8.73267E-26
7.46212E-01 8.51699E-26
7.50000E-01 8.30639E-26
7.53769E-01 8.10073E-26
7.57519E-01 7.89989E-26
7.61249E-01 7.70374E-26
7.64960E-01 7.51216E-26
7.68650E-01 7.32504E-26
7.72320E-01 7.14225E-26
7.75968E-01 6.96370E-26
7.79596E-01 6.78927E-26
7.83203E-01 6.61886E-26
7.86788E-01 6.45237E-26
7.90351E-01 6.28971E-26
7.93893E-01 6.13077E-26
7.97411E-01 5.97546E-26
8.00908E-01 5.82370E-26
8.04381E-01 5.67540E-26
8.07831E-01 5.53048E-26
8.11257E-01 5.38885E-26
8.14660E-01 5.25043E-26
8.18039E-01 5.11515E-26
8.21394E-01 4.98294E-26
8.24724E-01 4.85371E-26
8.28030E-01 4.72740E-26
8.31310E-01 4.60394E-26
8.34565E-01 4.48326E-26
8.37795E-01 4.36530E-26
8.40999E-01 4.24999E-26
8.44177E-01 4.13728E-26
8.47329E-01 4.02710E-26
8.50455E-01 3.91940E-26
8.53553E-01 3.81412E-26
8.56625E-01 3.71120E-26
8.59670E-01 3.61060E-26
8.62687E-01 3.51225E-26
8.65677E-01 3.41612E-26
8.68639E-01 3.32214E-26
8.71572E-01 3.23028E-26
8.74478E-01 3.14049E-26
8.77355E-01 3.05272E-26
8.80203E-01 2.96693E-26
8.83022E-01 2.88307E-26
8.85812E-01 2.80111E-26
8.88573E-01 2.72101E-26
8.91304E-01 2.64272E-26
8.94005E-01 2.56620E-26
8.96677E-01 2.49143E-26
8.99318E-01 2.41836E-26
9.01928E-01 2.34697E-26
9.04508E-01 2.27720E-26
9.07058E-01 2.20904E-26
9.09576E-01 2.14245E-26
9.12063E-01 2.07740E-26
9.14519E-01 2.01386E-26
9.16943E-01 1.95180E-26
9.19335E-01 1.89118E-26
9.21696E-01 1.83199E-26
9.24024E-01 1.77420E-26
9.26320E-01 1.71777E-26
9.28584E-01 1.66269E-26
9.30815E-01 1.60892E-26
9.33013E-01 1.55645E-26
9.35178E-01 1.50525E-26
9.37310E-01 1.45529E-26
9.39409E-01 1.40656E-26
9.41474E-01 1.35903E-26
9.43505E-01 1.31269E-26
9.45503E-01 1.26750E-26
9.47467E-01 1.22346E-26
9.49397E-01 1.18054E-26
9.51293E-01 1.13872E-26
9.53154E-01 1.09798E-26
9.54981E-01 1.05832E-26
9.56773E-01 1.01970E-26
9.58530E-01 9.82122E-27
9.60252E-01 9.45558E-27
9.61940E-01 9.09995E-27
9.63592E-01 8.75419E-27
9.65209E-01 8.41815E-27
9.66790E-01 8.09169E-27
9.68336E-01 7.77466E-27
9.69846E-01 7.46694E-27
9.71321E-01 7.16839E-27
9.72759E-01 6.87889E-27
9.74162E-01 6.59831E-27
9.75528E-01 6.32655E-27
9.76858E-01 6.06348E-27
9.78152E-01 5.80900E-27
9.79410E-01 5.56301E-27
9.80631E-01 5.32539E-27
9.81815E-01 5.09605E-27
9.82963E-01 4.87490E-27
9.84074E-01 4.66185E-27
9.85148E-01 4.45681E-27
9.86185E-01 4.25969E-27
9.87185E-01 4.07042E-27
9.88148E-01 3.88891E-27
9.89074E-01 3.71510E-27
9.89962E-01 3.54891E-27
9.90814E-01 3.39027E-27
9.91627E-01 3.23913E-27
9.92404E-01 3.09542E-27
9.93143E-01 2.95907E-27
9.93844E-01 2.83005E-27
9.94508E-01 2.70829E-27
9.95134E-01 2.59375E-27
9.95722E-01 2.48637E-27
9.96273E-01 2.38612E-27
9.96786E-01 2.29296E-27
9.97261E-01 2.20685E-27
9.97698E-01 2.12776E-27
9.98097E-01 2.05564E-27
9.98459E-01 1.99048E-27
9.98782E-01 1.93225E-27
9.99067E-01 1.88093E-27
9.99315E-01 1.83649E-27
9.99524E-01 1.79891E-27
9.99695E-01 1.76819E-27
9.99829E-01 1.74431E-27
9.99924E-01 1.72726E-27
9.99981E-01 1.71703E-27
1.00000E+00 1.71362E-27
