 #
 # Subroutine ELSEPA. Elastic scattering of electrons and positrons
 #                    by neutral atoms and positive ions
 #
 # Projectile: positron
 # Kinetic energy = 1.25000E+07 eV = 4.59367E+05 a.u.
 #
 # WARNING: High-energy factorization with free-atom DF screening.
 #          Absorption, polarization and exchange corrections are
 #          switched off.
 #          Phase shifts are calculated for the bare nucleus.
 #          Scattering amplitudes are not evaluated.
 #
 # Element: Rh,  Z =  45,  atomic weight = 1.02906E+02 g/mol
 #
 # Nuclear model: Fermi distribution
 #                Average radius = 5.01414E-13 cm
 #                Skin thickness = 5.46000E-14 cm
 #
 # Number of electrons = 45
 #
 # Total elastic cross section = 4.21761E-18 cm**2 = 1.50614E-01 a0**2
 # 1st transport cross section = 1.83666E-23 cm**2 = 6.55885E-07 a0**2
 # 2nd transport cross section = 5.32595E-23 cm**2 = 1.90193E-06 a0**2
 #
 #
 # Differential cross section:                       MU=(1-COS(THETA))/2
 #
 #  THETA        MU          DCS          DCS        Sherman      error
 #  (deg)                 (cm**2/sr)   (a0**2/sr)    function
 #----------------------------------------------------------------------
0.00000E+00 5.37504E-12
7.61557E-13 5.37481E-12
1.18994E-12 5.37468E-12
1.71346E-12 5.37453E-12
2.33225E-12 5.37435E-12
3.04617E-12 5.37414E-12
3.85530E-12 5.37391E-12
4.75964E-12 5.37364E-12
5.75917E-12 5.37336E-12
6.85391E-12 5.37304E-12
8.04379E-12 5.37269E-12
9.32893E-12 5.37232E-12
1.07092E-11 5.37193E-12
1.21847E-11 5.37150E-12
1.37554E-11 5.37105E-12
1.54213E-11 5.37057E-12
1.71823E-11 5.37006E-12
1.90386E-11 5.36953E-12
2.09900E-11 5.36896E-12
2.30367E-11 5.36838E-12
2.51785E-11 5.36776E-12
2.74156E-11 5.36712E-12
2.97478E-11 5.36645E-12
3.21752E-11 5.36575E-12
3.46979E-11 5.36503E-12
3.73157E-11 5.36428E-12
4.00286E-11 5.36350E-12
4.28368E-11 5.36269E-12
4.57402E-11 5.36186E-12
4.87388E-11 5.36100E-12
5.18325E-11 5.36012E-12
5.50215E-11 5.35921E-12
5.83057E-11 5.35827E-12
6.16850E-11 5.35730E-12
6.51595E-11 5.35631E-12
6.87293E-11 5.35529E-12
7.23943E-11 5.35424E-12
7.61544E-11 5.35317E-12
1.18991E-10 5.34098E-12
1.71347E-10 5.32615E-12
2.33223E-10 5.30874E-12
3.04617E-10 5.28879E-12
3.85531E-10 5.26636E-12
4.75965E-10 5.24150E-12
5.75917E-10 5.21429E-12
6.85389E-10 5.18479E-12
8.04380E-10 5.15310E-12
9.32891E-10 5.11929E-12
1.07092E-09 5.08344E-12
1.21847E-09 5.04566E-12
1.37554E-09 5.00599E-12
1.54213E-09 4.96438E-12
1.71823E-09 4.92125E-12
1.90386E-09 4.87673E-12
2.09900E-09 4.83092E-12
2.30367E-09 4.78325E-12
2.51785E-09 4.73445E-12
2.74156E-09 4.68469E-12
2.97478E-09 4.63409E-12
3.21752E-09 4.58212E-12
3.46978E-09 4.52922E-12
3.73156E-09 4.47580E-12
4.00286E-09 4.42196E-12
4.28368E-09 4.36729E-12
4.57402E-09 4.31180E-12
4.87388E-09 4.25618E-12
5.18326E-09 4.20051E-12
5.50215E-09 4.14460E-12
5.83057E-09 4.08786E-12
6.16850E-09 4.03133E-12
6.51596E-09 3.97507E-12
6.87293E-09 3.91913E-12
7.23942E-09 3.86230E-12
7.61544E-09 3.80594E-12
1.18991E-08 3.26317E-12
1.71347E-08 2.77457E-12
2.33223E-08 2.35263E-12
3.04617E-08 1.99633E-12
3.85531E-08 1.69661E-12
4.75965E-08 1.44595E-12
5.75917E-08 1.23595E-12
6.85389E-08 1.05895E-12
8.04380E-08 9.09975E-13
9.32891E-08 7.83925E-13
1.07092E-07 6.76972E-13
1.21847E-07 5.86225E-13
1.37554E-07 5.08034E-13
1.54213E-07 4.37725E-13
1.71823E-07 3.80888E-13
1.90386E-07 3.34483E-13
2.09900E-07 2.96241E-13
2.30367E-07 2.59400E-13
2.51785E-07 2.28306E-13
2.74156E-07 2.02322E-13
2.97478E-07 1.80450E-13
3.21752E-07 1.60564E-13
3.46978E-07 1.43094E-13
3.73156E-07 1.28194E-13
4.00286E-07 1.15415E-13
4.28368E-07 1.04071E-13
4.57402E-07 9.39033E-14
4.87388E-07 8.50783E-14
5.18325E-07 7.73840E-14
5.50215E-07 7.05807E-14
5.83057E-07 6.44052E-14
6.16850E-07 5.89653E-14
6.51596E-07 5.41555E-14
6.87293E-07 4.98859E-14
7.23942E-07 4.59579E-14
7.61543E-07 4.24546E-14
1.18991E-06 2.11930E-14
1.71347E-06 1.18620E-14
2.33223E-06 7.10180E-15
3.04617E-06 4.46336E-15
3.85531E-06 2.91761E-15
4.75964E-06 1.97906E-15
5.75916E-06 1.38850E-15
6.85388E-06 1.00301E-15
8.04378E-06 7.43365E-16
9.32888E-06 5.63397E-16
1.07092E-05 4.35299E-16
1.21846E-05 3.41903E-16
1.37553E-05 2.72319E-16
1.54212E-05 2.19563E-16
1.71822E-05 1.79094E-16
1.90385E-05 1.47488E-16
2.09899E-05 1.22545E-16
2.30365E-05 1.02691E-16
2.51783E-05 8.66020E-17
2.74153E-05 7.35506E-17
2.97475E-05 6.28381E-17
3.21749E-05 5.39904E-17
3.46974E-05 4.66531E-17
3.73152E-05 4.04990E-17
4.00281E-05 3.53338E-17
4.28362E-05 3.09599E-17
4.57395E-05 2.72398E-17
4.87380E-05 2.40618E-17
5.18317E-05 2.13279E-17
5.50205E-05 1.89723E-17
5.83045E-05 1.69309E-17
6.16838E-05 1.51568E-17
6.51582E-05 1.36095E-17
6.87277E-05 1.22540E-17
7.23925E-05 1.10640E-17
7.61524E-05 1.00146E-17
9.21439E-05 6.87928E-18
1.09658E-04 4.88041E-18
1.28695E-04 3.55830E-18
1.49255E-04 2.65506E-18
1.71338E-04 2.02125E-18
1.94942E-04 1.56576E-18
2.20070E-04 1.23160E-18
2.46720E-04 9.81992E-19
2.74892E-04 7.92476E-19
3.04586E-04 6.46509E-19
3.35803E-04 5.32610E-19
3.68542E-04 4.42694E-19
4.02802E-04 3.70945E-19
4.38585E-04 3.13136E-19
4.75889E-04 2.66142E-19
5.14715E-04 2.27625E-19
5.55063E-04 1.95817E-19
5.96931E-04 1.69364E-19
6.40321E-04 1.47221E-19
6.85233E-04 1.28574E-19
7.31665E-04 1.12781E-19
7.79618E-04 9.93343E-20
8.29092E-04 8.78285E-20
8.80086E-04 7.79374E-20
9.32601E-04 6.93971E-20
9.86636E-04 6.19921E-20
1.04219E-03 5.55466E-20
1.09927E-03 4.99153E-20
1.15786E-03 4.49780E-20
1.21797E-03 4.06348E-20
1.27961E-03 3.68020E-20
1.34276E-03 3.34094E-20
1.40743E-03 3.03978E-20
1.47362E-03 2.77171E-20
1.54133E-03 2.53247E-20
1.61056E-03 2.31842E-20
1.68131E-03 2.12645E-20
1.75357E-03 1.95389E-20
1.82735E-03 1.79843E-20
1.90265E-03 1.65809E-20
1.97947E-03 1.53113E-20
2.05780E-03 1.41605E-20
2.13765E-03 1.31156E-20
2.21902E-03 1.21649E-20
2.30190E-03 1.12986E-20
2.38630E-03 1.05078E-20
2.47222E-03 9.78480E-21
2.55965E-03 9.12271E-21
2.64859E-03 8.51549E-21
2.73905E-03 7.95780E-21
2.83103E-03 7.44486E-21
2.92452E-03 6.97245E-21
3.01952E-03 6.53680E-21
3.11604E-03 6.13452E-21
3.21407E-03 5.76262E-21
3.31362E-03 5.41837E-21
3.41468E-03 5.09935E-21
3.51725E-03 4.80338E-21
3.62133E-03 4.52850E-21
3.72692E-03 4.27293E-21
3.83403E-03 4.03507E-21
3.94265E-03 3.81347E-21
4.05278E-03 3.60681E-21
4.16442E-03 3.41391E-21
4.27757E-03 3.23369E-21
4.39223E-03 3.06514E-21
4.50840E-03 2.90740E-21
4.62608E-03 2.75963E-21
4.74527E-03 2.62110E-21
4.86597E-03 2.49111E-21
4.98817E-03 2.36904E-21
5.11188E-03 2.25433E-21
5.23711E-03 2.14645E-21
5.36383E-03 2.04492E-21
5.49207E-03 1.94929E-21
5.62181E-03 1.85917E-21
5.75306E-03 1.77417E-21
5.88581E-03 1.69395E-21
6.02007E-03 1.61819E-21
6.15583E-03 1.54660E-21
6.29310E-03 1.47890E-21
6.43187E-03 1.41486E-21
6.57214E-03 1.35422E-21
6.71392E-03 1.29678E-21
6.85720E-03 1.24234E-21
7.00198E-03 1.19072E-21
7.14827E-03 1.14173E-21
7.29605E-03 1.09523E-21
7.44534E-03 1.05106E-21
7.59612E-03 1.00908E-21
7.97965E-03 9.12897E-22
8.37255E-03 8.27852E-22
8.77480E-03 7.52434E-22
9.18641E-03 6.85369E-22
9.60736E-03 6.25573E-22
1.00376E-02 5.72123E-22
1.04773E-02 5.24231E-22
1.09262E-02 4.81219E-22
1.13844E-02 4.42503E-22
1.18520E-02 4.07581E-22
1.23288E-02 3.76017E-22
1.28150E-02 3.47432E-22
1.33104E-02 3.21496E-22
1.38150E-02 2.97919E-22
1.43290E-02 2.76451E-22
1.48521E-02 2.56870E-22
1.53845E-02 2.38980E-22
1.59262E-02 2.22611E-22
1.64770E-02 2.07610E-22
1.70371E-02 1.93842E-22
1.76063E-02 1.81189E-22
1.81848E-02 1.69544E-22
1.87724E-02 1.58813E-22
1.93692E-02 1.48912E-22
1.99751E-02 1.39764E-22
2.05901E-02 1.31302E-22
2.12143E-02 1.23466E-22
2.18476E-02 1.16202E-22
2.24900E-02 1.09460E-22
2.31415E-02 1.03195E-22
2.38021E-02 9.73692E-23
2.44717E-02 9.19447E-23
2.51504E-02 8.68896E-23
2.58382E-02 8.21742E-23
2.65349E-02 7.77716E-23
2.72407E-02 7.36573E-23
2.79555E-02 6.98089E-23
2.86793E-02 6.62063E-23
2.94120E-02 6.28310E-23
3.01537E-02 5.96661E-23
3.09043E-02 5.66961E-23
3.16639E-02 5.39067E-23
3.24324E-02 5.12851E-23
3.32098E-02 4.88194E-23
3.39961E-02 4.64986E-23
3.47912E-02 4.43127E-23
3.55952E-02 4.22525E-23
3.64081E-02 4.03092E-23
3.72297E-02 3.84753E-23
3.80602E-02 3.67433E-23
3.88995E-02 3.51068E-23
3.97476E-02 3.35593E-23
4.06044E-02 3.20952E-23
4.14700E-02 3.07091E-23
4.23443E-02 2.93962E-23
4.32273E-02 2.81520E-23
4.41190E-02 2.69721E-23
4.50194E-02 2.58527E-23
4.59284E-02 2.47900E-23
4.68461E-02 2.37807E-23
4.87074E-02 2.19100E-23
5.06030E-02 2.02174E-23
5.25328E-02 1.86832E-23
5.44967E-02 1.72901E-23
5.64946E-02 1.60227E-23
5.85262E-02 1.48679E-23
6.05914E-02 1.38139E-23
6.26901E-02 1.28505E-23
6.48222E-02 1.19684E-23
6.69873E-02 1.11597E-23
6.91854E-02 1.04172E-23
7.14163E-02 9.73452E-24
7.36799E-02 9.10605E-24
7.59760E-02 8.52671E-24
7.83043E-02 7.99201E-24
8.06647E-02 7.49792E-24
8.30571E-02 7.04081E-24
8.54812E-02 6.61745E-24
8.79369E-02 6.22490E-24
9.04240E-02 5.86054E-24
9.29422E-02 5.52199E-24
9.54915E-02 5.20710E-24
9.80716E-02 4.91395E-24
1.00682E-01 4.64075E-24
1.03323E-01 4.38593E-24
1.05995E-01 4.14802E-24
1.08696E-01 3.92572E-24
1.11427E-01 3.71781E-24
1.14188E-01 3.52321E-24
1.16978E-01 3.34091E-24
1.19797E-01 3.17001E-24
1.22645E-01 3.00967E-24
1.25522E-01 2.85912E-24
1.28428E-01 2.71766E-24
1.31361E-01 2.58464E-24
1.34323E-01 2.45948E-24
1.37313E-01 2.34163E-24
1.40330E-01 2.23059E-24
1.43375E-01 2.12589E-24
1.46447E-01 2.02711E-24
1.49545E-01 1.93387E-24
1.52671E-01 1.84579E-24
1.55823E-01 1.76253E-24
1.59001E-01 1.68380E-24
1.62205E-01 1.60929E-24
1.65435E-01 1.53875E-24
1.68690E-01 1.47193E-24
1.71970E-01 1.40859E-24
1.75276E-01 1.34853E-24
1.78606E-01 1.29154E-24
1.81961E-01 1.23744E-24
1.85340E-01 1.18606E-24
1.88743E-01 1.13724E-24
1.92169E-01 1.09082E-24
1.95619E-01 1.04668E-24
1.99092E-01 1.00467E-24
2.02589E-01 9.64685E-25
2.06107E-01 9.26600E-25
2.09649E-01 8.90313E-25
2.13212E-01 8.55724E-25
2.16797E-01 8.22740E-25
2.20404E-01 7.91273E-25
2.24032E-01 7.61243E-25
2.27680E-01 7.32571E-25
2.31350E-01 7.05186E-25
2.35040E-01 6.79021E-25
2.38751E-01 6.54011E-25
2.42481E-01 6.30097E-25
2.46231E-01 6.07223E-25
2.50000E-01 5.85335E-25
2.53788E-01 5.64384E-25
2.57595E-01 5.44323E-25
2.61421E-01 5.25107E-25
2.65264E-01 5.06695E-25
2.69126E-01 4.89048E-25
2.73005E-01 4.72128E-25
2.76901E-01 4.55900E-25
2.80814E-01 4.40332E-25
2.84744E-01 4.25391E-25
2.88691E-01 4.11048E-25
2.92653E-01 3.97276E-25
2.96632E-01 3.84047E-25
3.00625E-01 3.71337E-25
3.04634E-01 3.59121E-25
3.08658E-01 3.47378E-25
3.12697E-01 3.36086E-25
3.16749E-01 3.25224E-25
3.20816E-01 3.14774E-25
3.24896E-01 3.04717E-25
3.28990E-01 2.95036E-25
3.33097E-01 2.85715E-25
3.37216E-01 2.76738E-25
3.41348E-01 2.68090E-25
3.45492E-01 2.59756E-25
3.49647E-01 2.51725E-25
3.53814E-01 2.43982E-25
3.57992E-01 2.36517E-25
3.62181E-01 2.29316E-25
3.66381E-01 2.22370E-25
3.70590E-01 2.15668E-25
3.74810E-01 2.09199E-25
3.79039E-01 2.02955E-25
3.83277E-01 1.96926E-25
3.87524E-01 1.91103E-25
3.91780E-01 1.85479E-25
3.96044E-01 1.80045E-25
4.00316E-01 1.74795E-25
4.04596E-01 1.69720E-25
4.08882E-01 1.64814E-25
4.13176E-01 1.60070E-25
4.17476E-01 1.55483E-25
4.21783E-01 1.51046E-25
4.26095E-01 1.46753E-25
4.30413E-01 1.42599E-25
4.34737E-01 1.38579E-25
4.39065E-01 1.34688E-25
4.43398E-01 1.30921E-25
4.47736E-01 1.27273E-25
4.52077E-01 1.23740E-25
4.56422E-01 1.20318E-25
4.60770E-01 1.17002E-25
4.65122E-01 1.13790E-25
4.69476E-01 1.10676E-25
4.73832E-01 1.07659E-25
4.78190E-01 1.04733E-25
4.82550E-01 1.01896E-25
4.86912E-01 9.91458E-26
4.91274E-01 9.64779E-26
4.95637E-01 9.38899E-26
5.00000E-01 9.13791E-26
5.04363E-01 8.89428E-26
5.08726E-01 8.65784E-26
5.13088E-01 8.42836E-26
5.17450E-01 8.20558E-26
5.21810E-01 7.98929E-26
5.26168E-01 7.77927E-26
5.30524E-01 7.57531E-26
5.34878E-01 7.37721E-26
5.39230E-01 7.18476E-26
5.43578E-01 6.99780E-26
5.47923E-01 6.81613E-26
5.52264E-01 6.63958E-26
5.56602E-01 6.46799E-26
5.60935E-01 6.30120E-26
5.65263E-01 6.13905E-26
5.69587E-01 5.98139E-26
5.73905E-01 5.82809E-26
5.78217E-01 5.67899E-26
5.82524E-01 5.53398E-26
5.86824E-01 5.39292E-26
5.91118E-01 5.25569E-26
5.95404E-01 5.12217E-26
5.99684E-01 4.99224E-26
6.03956E-01 4.86579E-26
6.08220E-01 4.74273E-26
6.12476E-01 4.62293E-26
6.16723E-01 4.50631E-26
6.20961E-01 4.39277E-26
6.25190E-01 4.28221E-26
6.29410E-01 4.17455E-26
6.33619E-01 4.06970E-26
6.37819E-01 3.96757E-26
6.42008E-01 3.86809E-26
6.46186E-01 3.77117E-26
6.50353E-01 3.67675E-26
6.54508E-01 3.58474E-26
6.58652E-01 3.49508E-26
6.62784E-01 3.40771E-26
6.66903E-01 3.32255E-26
6.71010E-01 3.23954E-26
6.75104E-01 3.15862E-26
6.79184E-01 3.07973E-26
6.83251E-01 3.00281E-26
6.87303E-01 2.92781E-26
6.91342E-01 2.85467E-26
6.95366E-01 2.78335E-26
6.99375E-01 2.71378E-26
7.03368E-01 2.64593E-26
7.07347E-01 2.57974E-26
7.11309E-01 2.51517E-26
7.15256E-01 2.45218E-26
7.19186E-01 2.39071E-26
7.23099E-01 2.33074E-26
7.26995E-01 2.27222E-26
7.30874E-01 2.21510E-26
7.34736E-01 2.15936E-26
7.38579E-01 2.10496E-26
7.42405E-01 2.05186E-26
7.46212E-01 2.00002E-26
7.50000E-01 1.94942E-26
7.53769E-01 1.90001E-26
7.57519E-01 1.85178E-26
7.61249E-01 1.80468E-26
7.64960E-01 1.75870E-26
7.68650E-01 1.71379E-26
7.72320E-01 1.66994E-26
7.75968E-01 1.62712E-26
7.79596E-01 1.58529E-26
7.83203E-01 1.54444E-26
7.86788E-01 1.50454E-26
7.90351E-01 1.46556E-26
7.93893E-01 1.42749E-26
7.97411E-01 1.39030E-26
8.00908E-01 1.35396E-26
8.04381E-01 1.31847E-26
8.07831E-01 1.28379E-26
8.11257E-01 1.24990E-26
8.14660E-01 1.21680E-26
8.18039E-01 1.18445E-26
8.21394E-01 1.15284E-26
8.24724E-01 1.12196E-26
8.28030E-01 1.09178E-26
8.31310E-01 1.06229E-26
8.34565E-01 1.03347E-26
8.37795E-01 1.00530E-26
8.40999E-01 9.77782E-27
8.44177E-01 9.50886E-27
8.47329E-01 9.24601E-27
8.50455E-01 8.98913E-27
8.53553E-01 8.73808E-27
8.56625E-01 8.49273E-27
8.59670E-01 8.25296E-27
8.62687E-01 8.01863E-27
8.65677E-01 7.78962E-27
8.68639E-01 7.56581E-27
8.71572E-01 7.34709E-27
8.74478E-01 7.13335E-27
8.77355E-01 6.92446E-27
8.80203E-01 6.72034E-27
8.83022E-01 6.52087E-27
8.85812E-01 6.32596E-27
8.88573E-01 6.13550E-27
8.91304E-01 5.94940E-27
8.94005E-01 5.76756E-27
8.96677E-01 5.58991E-27
8.99318E-01 5.41634E-27
9.01928E-01 5.24678E-27
9.04508E-01 5.08115E-27
9.07058E-01 4.91935E-27
9.09576E-01 4.76132E-27
9.12063E-01 4.60697E-27
9.14519E-01 4.45624E-27
9.16943E-01 4.30904E-27
9.19335E-01 4.16532E-27
9.21696E-01 4.02500E-27
9.24024E-01 3.88802E-27
9.26320E-01 3.75430E-27
9.28584E-01 3.62380E-27
9.30815E-01 3.49645E-27
9.33013E-01 3.37218E-27
9.35178E-01 3.25095E-27
9.37310E-01 3.13269E-27
9.39409E-01 3.01736E-27
9.41474E-01 2.90489E-27
9.43505E-01 2.79524E-27
9.45503E-01 2.68836E-27
9.47467E-01 2.58420E-27
9.49397E-01 2.48271E-27
9.51293E-01 2.38385E-27
9.53154E-01 2.28757E-27
9.54981E-01 2.19383E-27
9.56773E-01 2.10259E-27
9.58530E-01 2.01381E-27
9.60252E-01 1.92744E-27
9.61940E-01 1.84346E-27
9.63592E-01 1.76182E-27
9.65209E-01 1.68248E-27
9.66790E-01 1.60542E-27
9.68336E-01 1.53060E-27
9.69846E-01 1.45798E-27
9.71321E-01 1.38754E-27
9.72759E-01 1.31925E-27
9.74162E-01 1.25307E-27
9.75528E-01 1.18897E-27
9.76858E-01 1.12694E-27
9.78152E-01 1.06694E-27
9.79410E-01 1.00895E-27
9.80631E-01 9.52935E-28
9.81815E-01 8.98883E-28
9.82963E-01 8.46766E-28
9.84074E-01 7.96564E-28
9.85148E-01 7.48254E-28
9.86185E-01 7.01816E-28
9.87185E-01 6.57232E-28
9.88148E-01 6.14481E-28
9.89074E-01 5.73546E-28
9.89962E-01 5.34410E-28
9.90814E-01 4.97056E-28
9.91627E-01 4.61470E-28
9.92404E-01 4.27636E-28
9.93143E-01 3.95540E-28
9.93844E-01 3.65168E-28
9.94508E-01 3.36509E-28
9.95134E-01 3.09550E-28
9.95722E-01 2.84280E-28
9.96273E-01 2.60689E-28
9.96786E-01 2.38767E-28
9.97261E-01 2.18504E-28
9.97698E-01 1.99893E-28
9.98097E-01 1.82926E-28
9.98459E-01 1.67596E-28
9.98782E-01 1.53896E-28
9.99067E-01 1.41822E-28
9.99315E-01 1.31367E-28
9.99524E-01 1.22528E-28
9.99695E-01 1.15301E-28
9.99829E-01 1.09683E-28
9.99924E-01 1.05672E-28
9.99981E-01 1.03265E-28
1.00000E+00 1.02464E-28
