 #
 # Subroutine ELSEPA. Elastic scattering of electrons and positrons
 #                    by neutral atoms and positive ions
 #
 # Projectile: positron
 # Kinetic energy = 9.00000E+07 eV = 3.30744E+06 a.u.
 #
 # WARNING: High-energy factorization with free-atom DF screening.
 #          Absorption, polarization and exchange corrections are
 #          switched off.
 #          Phase shifts are calculated for the bare nucleus.
 #          Scattering amplitudes are not evaluated.
 #
 # Element: Rh,  Z =  45,  atomic weight = 1.02906E+02 g/mol
 #
 # Nuclear model: Fermi distribution
 #                Average radius = 5.01414E-13 cm
 #                Skin thickness = 5.46000E-14 cm
 #
 # Number of electrons = 45
 #
 # Total elastic cross section = 4.21355E-18 cm**2 = 1.50469E-01 a0**2
 # 1st transport cross section = 4.75796E-25 cm**2 = 1.69910E-08 a0**2
 # 2nd transport cross section = 1.41125E-24 cm**2 = 5.03965E-08 a0**2
 #
 #
 # Differential cross section:                       MU=(1-COS(THETA))/2
 #
 #  THETA        MU          DCS          DCS        Sherman      error
 #  (deg)                 (cm**2/sr)   (a0**2/sr)    function
 #----------------------------------------------------------------------
0.00000E+00 2.60114E-10
7.61557E-13 2.59599E-10
1.18994E-12 2.59312E-10
1.71346E-12 2.58962E-10
2.33225E-12 2.58549E-10
3.04617E-12 2.58074E-10
3.85530E-12 2.57539E-10
4.75964E-12 2.56942E-10
5.75917E-12 2.56286E-10
6.85391E-12 2.55572E-10
8.04379E-12 2.54800E-10
9.32893E-12 2.53971E-10
1.07092E-11 2.53086E-10
1.21847E-11 2.52147E-10
1.37554E-11 2.51154E-10
1.54213E-11 2.50110E-10
1.71823E-11 2.49015E-10
1.90386E-11 2.47871E-10
2.09900E-11 2.46678E-10
2.30367E-11 2.45440E-10
2.51785E-11 2.44157E-10
2.74156E-11 2.42830E-10
2.97478E-11 2.41455E-10
3.21752E-11 2.40040E-10
3.46979E-11 2.38590E-10
3.73157E-11 2.37106E-10
4.00286E-11 2.35591E-10
4.28368E-11 2.34046E-10
4.57402E-11 2.32456E-10
4.87388E-11 2.30832E-10
5.18325E-11 2.29183E-10
5.50215E-11 2.27512E-10
5.83057E-11 2.25821E-10
6.16850E-11 2.24111E-10
6.51595E-11 2.22364E-10
6.87293E-11 2.20590E-10
7.23943E-11 2.18802E-10
7.61544E-11 2.17002E-10
1.18991E-10 1.98357E-10
1.71347E-10 1.79426E-10
2.33223E-10 1.61117E-10
3.04617E-10 1.44078E-10
3.85531E-10 1.28546E-10
4.75965E-10 1.14582E-10
5.75917E-10 1.02182E-10
6.85389E-10 9.11795E-11
8.04380E-10 8.14484E-11
9.32891E-10 7.28700E-11
1.07092E-09 6.52618E-11
1.21847E-09 5.85310E-11
1.37554E-09 5.25781E-11
1.54213E-09 4.72725E-11
1.71823E-09 4.25639E-11
1.90386E-09 3.83801E-11
2.09900E-09 3.46359E-11
2.30367E-09 3.13025E-11
2.51785E-09 2.83271E-11
2.74156E-09 2.56595E-11
2.97478E-09 2.31250E-11
3.21752E-09 2.08847E-11
3.46978E-09 1.89512E-11
3.73156E-09 1.72744E-11
4.00286E-09 1.58136E-11
4.28368E-09 1.45352E-11
4.57402E-09 1.32747E-11
4.87388E-09 1.21110E-11
5.18326E-09 1.10879E-11
5.50215E-09 1.01851E-11
5.83057E-09 9.38562E-12
6.16850E-09 8.67519E-12
6.51596E-09 7.99873E-12
6.87293E-09 7.37139E-12
7.23942E-09 6.81110E-12
7.61544E-09 6.30926E-12
1.18991E-08 3.17249E-12
1.71347E-08 1.79775E-12
2.33223E-08 1.11144E-12
3.04617E-08 7.30041E-13
3.85531E-08 4.98760E-13
4.75965E-08 3.50476E-13
5.75917E-08 2.52256E-13
6.85389E-08 1.85213E-13
8.04380E-08 1.38509E-13
9.32891E-08 1.05476E-13
1.07092E-07 8.16645E-14
1.21847E-07 6.42146E-14
1.37554E-07 5.12054E-14
1.54213E-07 4.13459E-14
1.71823E-07 3.37746E-14
1.90386E-07 2.78824E-14
2.09900E-07 2.32349E-14
2.30367E-07 1.95269E-14
2.51785E-07 1.65354E-14
2.74156E-07 1.40973E-14
2.97478E-07 1.20881E-14
3.21752E-07 1.04312E-14
3.46978E-07 9.05103E-15
3.73156E-07 7.88690E-15
4.00286E-07 6.90926E-15
4.28368E-07 6.07235E-15
4.57402E-07 5.36050E-15
4.87388E-07 4.74919E-15
5.18325E-07 4.22125E-15
5.50215E-07 3.76608E-15
5.83057E-07 3.36793E-15
6.16850E-07 3.02204E-15
6.51596E-07 2.71865E-15
6.87293E-07 2.45218E-15
7.23942E-07 2.21780E-15
7.61543E-07 2.00999E-15
1.18991E-06 8.41121E-16
1.71347E-06 4.10951E-16
2.33223E-06 2.23964E-16
3.04617E-06 1.32298E-16
3.85531E-06 8.31144E-17
4.75964E-06 5.48146E-17
5.75916E-06 3.75989E-17
6.85388E-06 2.66403E-17
8.04378E-06 1.93970E-17
9.32888E-06 1.44551E-17
1.07092E-05 1.09903E-17
1.21846E-05 8.50329E-18
1.37553E-05 6.68104E-18
1.54212E-05 5.32137E-18
1.71822E-05 4.29034E-18
1.90385E-05 3.49638E-18
2.09899E-05 2.87908E-18
2.30365E-05 2.39191E-18
2.51783E-05 2.00324E-18
2.74153E-05 1.69013E-18
2.97475E-05 1.43572E-18
3.21749E-05 1.22738E-18
3.46974E-05 1.05551E-18
3.73152E-05 9.12737E-19
4.00281E-05 7.93341E-19
4.28362E-05 6.92853E-19
4.57395E-05 6.07771E-19
4.87380E-05 5.35331E-19
5.18317E-05 4.73342E-19
5.50205E-05 4.20050E-19
5.83045E-05 3.74040E-19
6.16838E-05 3.34157E-19
6.51582E-05 2.99453E-19
6.87277E-05 2.69143E-19
7.23925E-05 2.42576E-19
7.61524E-05 2.19249E-19
9.21439E-05 1.49708E-19
1.09658E-04 1.05660E-19
1.28695E-04 7.66825E-20
1.49255E-04 5.69822E-20
1.71338E-04 4.32196E-20
1.94942E-04 3.33685E-20
2.20070E-04 2.61691E-20
2.46720E-04 2.08094E-20
2.74892E-04 1.67528E-20
3.04586E-04 1.36376E-20
3.35803E-04 1.12132E-20
3.68542E-04 9.30386E-21
4.02802E-04 7.78373E-21
4.38585E-04 6.56136E-21
4.75889E-04 5.56956E-21
5.14715E-04 4.75798E-21
5.55063E-04 4.08882E-21
5.96931E-04 3.53308E-21
6.40321E-04 3.06850E-21
6.85233E-04 2.67770E-21
7.31665E-04 2.34708E-21
7.79618E-04 2.06586E-21
8.29092E-04 1.82545E-21
8.80086E-04 1.61894E-21
9.32601E-04 1.44077E-21
9.86636E-04 1.28640E-21
1.04219E-03 1.15211E-21
1.09927E-03 1.03486E-21
1.15786E-03 9.32118E-22
1.21797E-03 8.41786E-22
1.27961E-03 7.62101E-22
1.34276E-03 6.91608E-22
1.40743E-03 6.29055E-22
1.47362E-03 5.73396E-22
1.54133E-03 5.23742E-22
1.61056E-03 4.79330E-22
1.68131E-03 4.39514E-22
1.75357E-03 4.03733E-22
1.82735E-03 3.71508E-22
1.90265E-03 3.42424E-22
1.97947E-03 3.16120E-22
2.05780E-03 2.92285E-22
2.13765E-03 2.70646E-22
2.21902E-03 2.50965E-22
2.30190E-03 2.33033E-22
2.38630E-03 2.16667E-22
2.47222E-03 2.01707E-22
2.55965E-03 1.88011E-22
2.64859E-03 1.75452E-22
2.73905E-03 1.63919E-22
2.83103E-03 1.53314E-22
2.92452E-03 1.43548E-22
3.01952E-03 1.34544E-22
3.11604E-03 1.26232E-22
3.21407E-03 1.18547E-22
3.31362E-03 1.11436E-22
3.41468E-03 1.04847E-22
3.51725E-03 9.87347E-23
3.62133E-03 9.30588E-23
3.72692E-03 8.77825E-23
3.83403E-03 8.28726E-23
3.94265E-03 7.82990E-23
4.05278E-03 7.40345E-23
4.16442E-03 7.00544E-23
4.27757E-03 6.63365E-23
4.39223E-03 6.28601E-23
4.50840E-03 5.96069E-23
4.62608E-03 5.65599E-23
4.74527E-03 5.37037E-23
4.86597E-03 5.10241E-23
4.98817E-03 4.85082E-23
5.11188E-03 4.61443E-23
5.23711E-03 4.39215E-23
5.36383E-03 4.18298E-23
5.49207E-03 3.98600E-23
5.62181E-03 3.80039E-23
5.75306E-03 3.62535E-23
5.88581E-03 3.46019E-23
6.02007E-03 3.30424E-23
6.15583E-03 3.15690E-23
6.29310E-03 3.01760E-23
6.43187E-03 2.88582E-23
6.57214E-03 2.76108E-23
6.71392E-03 2.64295E-23
6.85720E-03 2.53100E-23
7.00198E-03 2.42485E-23
7.14827E-03 2.32415E-23
7.29605E-03 2.22857E-23
7.44534E-03 2.13779E-23
7.59612E-03 2.05154E-23
7.97965E-03 1.85399E-23
8.37255E-03 1.67940E-23
8.77480E-03 1.52465E-23
9.18641E-03 1.38710E-23
9.60736E-03 1.26453E-23
1.00376E-02 1.15503E-23
1.04773E-02 1.05697E-23
1.09262E-02 9.68951E-24
1.13844E-02 8.89773E-24
1.18520E-02 8.18398E-24
1.23288E-02 7.53927E-24
1.28150E-02 6.95577E-24
1.33104E-02 6.42671E-24
1.38150E-02 5.94612E-24
1.43290E-02 5.50883E-24
1.48521E-02 5.11026E-24
1.53845E-02 4.74640E-24
1.59262E-02 4.41372E-24
1.64770E-02 4.10909E-24
1.70371E-02 3.82974E-24
1.76063E-02 3.57322E-24
1.81848E-02 3.33734E-24
1.87724E-02 3.12017E-24
1.93692E-02 2.91996E-24
1.99751E-02 2.73517E-24
2.05901E-02 2.56440E-24
2.12143E-02 2.40642E-24
2.18476E-02 2.26010E-24
2.24900E-02 2.12443E-24
2.31415E-02 1.99852E-24
2.38021E-02 1.88153E-24
2.44717E-02 1.77273E-24
2.51504E-02 1.67145E-24
2.58382E-02 1.57708E-24
2.65349E-02 1.48908E-24
2.72407E-02 1.40693E-24
2.79555E-02 1.33019E-24
2.86793E-02 1.25843E-24
2.94120E-02 1.19129E-24
3.01537E-02 1.12841E-24
3.09043E-02 1.06948E-24
3.16639E-02 1.01420E-24
3.24324E-02 9.62325E-25
3.32098E-02 9.13597E-25
3.39961E-02 8.67797E-25
3.47912E-02 8.24719E-25
3.55952E-02 7.84176E-25
3.64081E-02 7.45992E-25
3.72297E-02 7.10009E-25
3.80602E-02 6.76079E-25
3.88995E-02 6.44065E-25
3.97476E-02 6.13841E-25
4.06044E-02 5.85291E-25
4.14700E-02 5.58307E-25
4.23443E-02 5.32789E-25
4.32273E-02 5.08645E-25
4.41190E-02 4.85788E-25
4.50194E-02 4.64139E-25
4.59284E-02 4.43624E-25
4.68461E-02 4.24173E-25
4.87074E-02 3.88215E-25
5.06030E-02 3.55801E-25
5.25328E-02 3.26530E-25
5.44967E-02 3.00052E-25
5.64946E-02 2.76061E-25
5.85262E-02 2.54289E-25
6.05914E-02 2.34500E-25
6.26901E-02 2.16488E-25
6.48222E-02 2.00069E-25
6.69873E-02 1.85083E-25
6.91854E-02 1.71386E-25
7.14163E-02 1.58851E-25
7.36799E-02 1.47367E-25
7.59760E-02 1.36832E-25
7.83043E-02 1.27157E-25
8.06647E-02 1.18263E-25
8.30571E-02 1.10076E-25
8.54812E-02 1.02534E-25
8.79369E-02 9.55792E-26
9.04240E-02 8.91589E-26
9.29422E-02 8.32267E-26
9.54915E-02 7.77407E-26
9.80716E-02 7.26629E-26
1.00682E-01 6.79589E-26
1.03323E-01 6.35976E-26
1.05995E-01 5.95509E-26
1.08696E-01 5.57932E-26
1.11427E-01 5.23011E-26
1.14188E-01 4.90536E-26
1.16978E-01 4.60314E-26
1.19797E-01 4.32170E-26
1.22645E-01 4.05943E-26
1.25522E-01 3.81488E-26
1.28428E-01 3.58669E-26
1.31361E-01 3.37364E-26
1.34323E-01 3.17462E-26
1.37313E-01 2.98859E-26
1.40330E-01 2.81460E-26
1.43375E-01 2.65180E-26
1.46447E-01 2.49937E-26
1.49545E-01 2.35658E-26
1.52671E-01 2.22276E-26
1.55823E-01 2.09729E-26
1.59001E-01 1.97958E-26
1.62205E-01 1.86910E-26
1.65435E-01 1.76536E-26
1.68690E-01 1.66792E-26
1.71970E-01 1.57634E-26
1.75276E-01 1.49024E-26
1.78606E-01 1.40925E-26
1.81961E-01 1.33305E-26
1.85340E-01 1.26133E-26
1.88743E-01 1.19379E-26
1.92169E-01 1.13016E-26
1.95619E-01 1.07021E-26
1.99092E-01 1.01369E-26
2.02589E-01 9.60396E-27
2.06107E-01 9.10122E-27
2.09649E-01 8.62684E-27
2.13212E-01 8.17906E-27
2.16797E-01 7.75626E-27
2.20404E-01 7.35694E-27
2.24032E-01 6.97967E-27
2.27680E-01 6.62314E-27
2.31350E-01 6.28611E-27
2.35040E-01 5.96742E-27
2.38751E-01 5.66600E-27
2.42481E-01 5.38084E-27
2.46231E-01 5.11098E-27
2.50000E-01 4.85555E-27
2.53788E-01 4.61371E-27
2.57595E-01 4.38468E-27
2.61421E-01 4.16775E-27
2.65264E-01 3.96221E-27
2.69126E-01 3.76742E-27
2.73005E-01 3.58280E-27
2.76901E-01 3.40775E-27
2.80814E-01 3.24177E-27
2.84744E-01 3.08433E-27
2.88691E-01 2.93498E-27
2.92653E-01 2.79327E-27
2.96632E-01 2.65878E-27
3.00625E-01 2.53112E-27
3.04634E-01 2.40992E-27
3.08658E-01 2.29483E-27
3.12697E-01 2.18553E-27
3.16749E-01 2.08171E-27
3.20816E-01 1.98307E-27
3.24896E-01 1.88934E-27
3.28990E-01 1.80027E-27
3.33097E-01 1.71560E-27
3.37216E-01 1.63511E-27
3.41348E-01 1.55857E-27
3.45492E-01 1.48579E-27
3.49647E-01 1.41657E-27
3.53814E-01 1.35072E-27
3.57992E-01 1.28808E-27
3.62181E-01 1.22847E-27
3.66381E-01 1.17174E-27
3.70590E-01 1.11775E-27
3.74810E-01 1.06636E-27
3.79039E-01 1.01743E-27
3.83277E-01 9.70842E-28
3.87524E-01 9.26479E-28
3.91780E-01 8.84228E-28
3.96044E-01 8.43984E-28
4.00316E-01 8.05647E-28
4.04596E-01 7.69122E-28
4.08882E-01 7.34319E-28
4.13176E-01 7.01154E-28
4.17476E-01 6.69546E-28
4.21783E-01 6.39419E-28
4.26095E-01 6.10699E-28
4.30413E-01 5.83319E-28
4.34737E-01 5.57213E-28
4.39065E-01 5.32320E-28
4.43398E-01 5.08580E-28
4.47736E-01 4.85937E-28
4.52077E-01 4.64340E-28
4.56422E-01 4.43738E-28
4.60770E-01 4.24082E-28
4.65122E-01 4.05328E-28
4.69476E-01 3.87433E-28
4.73832E-01 3.70355E-28
4.78190E-01 3.54056E-28
4.82550E-01 3.38500E-28
4.86912E-01 3.23650E-28
4.91274E-01 3.09474E-28
4.95637E-01 2.95939E-28
5.00000E-01 2.83017E-28
5.04363E-01 2.70677E-28
5.08726E-01 2.58893E-28
5.13088E-01 2.47638E-28
5.17450E-01 2.36889E-28
5.21810E-01 2.26621E-28
5.26168E-01 2.16813E-28
5.30524E-01 2.07442E-28
5.34878E-01 1.98489E-28
5.39230E-01 1.89935E-28
5.43578E-01 1.81760E-28
5.47923E-01 1.73948E-28
5.52264E-01 1.66482E-28
5.56602E-01 1.59346E-28
5.60935E-01 1.52526E-28
5.65263E-01 1.46005E-28
5.69587E-01 1.39772E-28
5.73905E-01 1.33813E-28
5.78217E-01 1.28115E-28
5.82524E-01 1.22666E-28
5.86824E-01 1.17456E-28
5.91118E-01 1.12474E-28
5.95404E-01 1.07709E-28
5.99684E-01 1.03151E-28
6.03956E-01 9.87912E-29
6.08220E-01 9.46208E-29
6.12476E-01 9.06312E-29
6.16723E-01 8.68144E-29
6.20961E-01 8.31625E-29
6.25190E-01 7.96682E-29
6.29410E-01 7.63245E-29
6.33619E-01 7.31248E-29
6.37819E-01 7.00626E-29
6.42008E-01 6.71318E-29
6.46186E-01 6.43266E-29
6.50353E-01 6.16414E-29
6.54508E-01 5.90711E-29
6.58652E-01 5.66104E-29
6.62784E-01 5.42546E-29
6.66903E-01 5.19991E-29
6.71010E-01 4.98395E-29
6.75104E-01 4.77715E-29
6.79184E-01 4.57912E-29
6.83251E-01 4.38947E-29
6.87303E-01 4.20785E-29
6.91342E-01 4.03388E-29
6.95366E-01 3.86726E-29
6.99375E-01 3.70765E-29
7.03368E-01 3.55475E-29
7.07347E-01 3.40828E-29
7.11309E-01 3.26794E-29
7.15256E-01 3.13349E-29
7.19186E-01 3.00466E-29
7.23099E-01 2.88121E-29
7.26995E-01 2.76291E-29
7.30874E-01 2.64955E-29
7.34736E-01 2.54090E-29
7.38579E-01 2.43676E-29
7.42405E-01 2.33695E-29
7.46212E-01 2.24128E-29
7.50000E-01 2.14956E-29
7.53769E-01 2.06164E-29
7.57519E-01 1.97735E-29
7.61249E-01 1.89654E-29
7.64960E-01 1.81906E-29
7.68650E-01 1.74476E-29
7.72320E-01 1.67352E-29
7.75968E-01 1.60520E-29
7.79596E-01 1.53968E-29
7.83203E-01 1.47684E-29
7.86788E-01 1.41658E-29
7.90351E-01 1.35877E-29
7.93893E-01 1.30332E-29
7.97411E-01 1.25013E-29
8.00908E-01 1.19911E-29
8.04381E-01 1.15016E-29
8.07831E-01 1.10319E-29
8.11257E-01 1.05813E-29
8.14660E-01 1.01490E-29
8.18039E-01 9.73409E-30
8.21394E-01 9.33598E-30
8.24724E-01 8.95394E-30
8.28030E-01 8.58730E-30
8.31310E-01 8.23542E-30
8.34565E-01 7.89769E-30
8.37795E-01 7.57353E-30
8.40999E-01 7.26237E-30
8.44177E-01 6.96369E-30
8.47329E-01 6.67696E-30
8.50455E-01 6.40170E-30
8.53553E-01 6.13744E-30
8.56625E-01 5.88373E-30
8.59670E-01 5.64013E-30
8.62687E-01 5.40623E-30
8.65677E-01 5.18164E-30
8.68639E-01 4.96597E-30
8.71572E-01 4.75887E-30
8.74478E-01 4.55999E-30
8.77355E-01 4.36899E-30
8.80203E-01 4.18555E-30
8.83022E-01 4.00937E-30
8.85812E-01 3.84016E-30
8.88573E-01 3.67763E-30
8.91304E-01 3.52151E-30
8.94005E-01 3.37156E-30
8.96677E-01 3.22751E-30
8.99318E-01 3.08914E-30
9.01928E-01 2.95621E-30
9.04508E-01 2.82852E-30
9.07058E-01 2.70584E-30
9.09576E-01 2.58799E-30
9.12063E-01 2.47477E-30
9.14519E-01 2.36599E-30
9.16943E-01 2.26148E-30
9.19335E-01 2.16108E-30
9.21696E-01 2.06462E-30
9.24024E-01 1.97194E-30
9.26320E-01 1.88290E-30
9.28584E-01 1.79735E-30
9.30815E-01 1.71517E-30
9.33013E-01 1.63621E-30
9.35178E-01 1.56035E-30
9.37310E-01 1.48748E-30
9.39409E-01 1.41748E-30
9.41474E-01 1.35023E-30
9.43505E-01 1.28563E-30
9.45503E-01 1.22358E-30
9.47467E-01 1.16399E-30
9.49397E-01 1.10675E-30
9.51293E-01 1.05178E-30
9.53154E-01 9.99001E-31
9.54981E-01 9.48322E-31
9.56773E-01 8.99666E-31
9.58530E-01 8.52959E-31
9.60252E-01 8.08129E-31
9.61940E-01 7.65106E-31
9.63592E-01 7.23824E-31
9.65209E-01 6.84219E-31
9.66790E-01 6.46232E-31
9.68336E-01 6.09804E-31
9.69846E-01 5.74880E-31
9.71321E-01 5.41405E-31
9.72759E-01 5.09330E-31
9.74162E-01 4.78606E-31
9.75528E-01 4.49185E-31
9.76858E-01 4.21024E-31
9.78152E-01 3.94080E-31
9.79410E-01 3.68312E-31
9.80631E-01 3.43682E-31
9.81815E-01 3.20152E-31
9.82963E-01 2.97688E-31
9.84074E-01 2.76255E-31
9.85148E-01 2.55822E-31
9.86185E-01 2.36357E-31
9.87185E-01 2.17832E-31
9.88148E-01 2.00220E-31
9.89074E-01 1.83494E-31
9.89962E-01 1.67629E-31
9.90814E-01 1.52602E-31
9.91627E-01 1.38390E-31
9.92404E-01 1.24973E-31
9.93143E-01 1.12330E-31
9.93844E-01 1.00443E-31
9.94508E-01 8.92942E-32
9.95134E-01 7.88674E-32
9.95722E-01 6.91470E-32
9.96273E-01 6.01188E-32
9.96786E-01 5.17695E-32
9.97261E-01 4.40869E-32
9.97698E-01 3.70597E-32
9.98097E-01 3.06774E-32
9.98459E-01 2.49309E-32
9.98782E-01 1.98116E-32
9.99067E-01 1.53120E-32
9.99315E-01 1.14257E-32
9.99524E-01 8.14680E-33
9.99695E-01 5.47058E-33
9.99829E-01 3.39314E-33
9.99924E-01 1.91143E-33
9.99981E-01 1.02326E-33
1.00000E+00 7.27320E-34
