 #
 # Subroutine ELSEPA. Elastic scattering of electrons and positrons
 #                    by neutral atoms and positive ions
 #
 # Projectile: positron
 # Kinetic energy = 6.00000E+07 eV = 2.20496E+06 a.u.
 #
 # WARNING: High-energy factorization with free-atom DF screening.
 #          Absorption, polarization and exchange corrections are
 #          switched off.
 #          Phase shifts are calculated for the bare nucleus.
 #          Scattering amplitudes are not evaluated.
 #
 # Element: Rh,  Z =  45,  atomic weight = 1.02906E+02 g/mol
 #
 # Nuclear model: Fermi distribution
 #                Average radius = 5.01414E-13 cm
 #                Skin thickness = 5.46000E-14 cm
 #
 # Number of electrons = 45
 #
 # Total elastic cross section = 4.21077E-18 cm**2 = 1.50369E-01 a0**2
 # 1st transport cross section = 1.03746E-24 cm**2 = 3.70483E-08 a0**2
 # 2nd transport cross section = 3.05531E-24 cm**2 = 1.09107E-07 a0**2
 #
 #
 # Differential cross section:                       MU=(1-COS(THETA))/2
 #
 #  THETA        MU          DCS          DCS        Sherman      error
 #  (deg)                 (cm**2/sr)   (a0**2/sr)    function
 #----------------------------------------------------------------------
0.00000E+00 1.16260E-10
7.61557E-13 1.16157E-10
1.18994E-12 1.16099E-10
1.71346E-12 1.16029E-10
2.33225E-12 1.15946E-10
3.04617E-12 1.15850E-10
3.85530E-12 1.15742E-10
4.75964E-12 1.15621E-10
5.75917E-12 1.15488E-10
6.85391E-12 1.15343E-10
8.04379E-12 1.15186E-10
9.32893E-12 1.15016E-10
1.07092E-11 1.14834E-10
1.21847E-11 1.14641E-10
1.37554E-11 1.14435E-10
1.54213E-11 1.14218E-10
1.71823E-11 1.13990E-10
1.90386E-11 1.13750E-10
2.09900E-11 1.13499E-10
2.30367E-11 1.13236E-10
2.51785E-11 1.12963E-10
2.74156E-11 1.12679E-10
2.97478E-11 1.12385E-10
3.21752E-11 1.12079E-10
3.46979E-11 1.11764E-10
3.73157E-11 1.11439E-10
4.00286E-11 1.11103E-10
4.28368E-11 1.10758E-10
4.57402E-11 1.10403E-10
4.87388E-11 1.10039E-10
5.18325E-11 1.09666E-10
5.50215E-11 1.09284E-10
5.83057E-11 1.08893E-10
6.16850E-11 1.08494E-10
6.51595E-11 1.08084E-10
6.87293E-11 1.07666E-10
7.23943E-11 1.07241E-10
7.61544E-11 1.06808E-10
1.18991E-10 1.02117E-10
1.71347E-10 9.68998E-11
2.33223E-10 9.13655E-11
3.04617E-10 8.56999E-11
3.85531E-10 8.00559E-11
4.75965E-10 7.45473E-11
5.75917E-10 6.92513E-11
6.85389E-10 6.42317E-11
8.04380E-10 5.95188E-11
9.32891E-10 5.51247E-11
1.07092E-09 5.10481E-11
1.21847E-09 4.72792E-11
1.37554E-09 4.38024E-11
1.54213E-09 4.05996E-11
1.71823E-09 3.76509E-11
1.90386E-09 3.49324E-11
2.09900E-09 3.24263E-11
2.30367E-09 3.01188E-11
2.51785E-09 2.79931E-11
2.74156E-09 2.60337E-11
2.97478E-09 2.42263E-11
3.21752E-09 2.25580E-11
3.46978E-09 2.10171E-11
3.73156E-09 1.95929E-11
4.00286E-09 1.82758E-11
4.28368E-09 1.70542E-11
4.57402E-09 1.59227E-11
4.87388E-09 1.48748E-11
5.18326E-09 1.39038E-11
5.50215E-09 1.30035E-11
5.83057E-09 1.21683E-11
6.16850E-09 1.13933E-11
6.51596E-09 1.06264E-11
6.87293E-09 9.91264E-12
7.23942E-09 9.26704E-12
7.61544E-09 8.68182E-12
1.18991E-08 4.77738E-12
1.71347E-08 2.79621E-12
2.33223E-08 1.74179E-12
3.04617E-08 1.14936E-12
3.85531E-08 7.96604E-13
4.75965E-08 5.74036E-13
5.75917E-08 4.25943E-13
6.85389E-08 3.23341E-13
8.04380E-08 2.49804E-13
9.32891E-08 1.95717E-13
1.07092E-07 1.55151E-13
1.21847E-07 1.24264E-13
1.37554E-07 1.00463E-13
1.54213E-07 8.19525E-14
1.71823E-07 6.73860E-14
1.90386E-07 5.58490E-14
2.09900E-07 4.66510E-14
2.30367E-07 3.92636E-14
2.51785E-07 3.32818E-14
2.74156E-07 2.83992E-14
2.97478E-07 2.43836E-14
3.21752E-07 2.10576E-14
3.46978E-07 1.82849E-14
3.73156E-07 1.59590E-14
4.00286E-07 1.39964E-14
4.28368E-07 1.23304E-14
4.57402E-07 1.09084E-14
4.87388E-07 9.68803E-15
5.18325E-07 8.63524E-15
5.50215E-07 7.72270E-15
5.83057E-07 6.92827E-15
6.16850E-07 6.23393E-15
6.51596E-07 5.62251E-15
6.87293E-07 5.08523E-15
7.23942E-07 4.61267E-15
7.61543E-07 4.19498E-15
1.18991E-06 1.79581E-15
1.71347E-06 8.88385E-16
2.33223E-06 4.87043E-16
3.04617E-06 2.88536E-16
3.85531E-06 1.81580E-16
4.75964E-06 1.19921E-16
5.75916E-06 8.23703E-17
6.85388E-06 5.84446E-17
8.04378E-06 4.26139E-17
9.32888E-06 3.18008E-17
1.07092E-05 2.42109E-17
1.21846E-05 1.87562E-17
1.37553E-05 1.47543E-17
1.54212E-05 1.17645E-17
1.71822E-05 9.49467E-18
1.90385E-05 7.74472E-18
2.09899E-05 6.38268E-18
2.30365E-05 5.30667E-18
2.51783E-05 4.44739E-18
2.74153E-05 3.75458E-18
2.97475E-05 3.19120E-18
3.21749E-05 2.72949E-18
3.46974E-05 2.34836E-18
3.73152E-05 2.03156E-18
4.00281E-05 1.76647E-18
4.28362E-05 1.54325E-18
4.57395E-05 1.35416E-18
4.87380E-05 1.19309E-18
5.18317E-05 1.05521E-18
5.50205E-05 9.36628E-19
5.83045E-05 8.34214E-19
6.16838E-05 7.45411E-19
6.51582E-05 6.68118E-19
6.87277E-05 6.00594E-19
7.23925E-05 5.41392E-19
7.61524E-05 4.89345E-19
9.21439E-05 3.34286E-19
1.09658E-04 2.36011E-19
1.28695E-04 1.71327E-19
1.49255E-04 1.27336E-19
1.71338E-04 9.65957E-20
1.94942E-04 7.45875E-20
2.20070E-04 5.85004E-20
2.46720E-04 4.65226E-20
2.74892E-04 3.74559E-20
3.04586E-04 3.04927E-20
3.35803E-04 2.50730E-20
3.68542E-04 2.08046E-20
4.02802E-04 1.74060E-20
4.38585E-04 1.46731E-20
4.75889E-04 1.24555E-20
5.14715E-04 1.06409E-20
5.55063E-04 9.14464E-21
5.96931E-04 7.90199E-21
6.40321E-04 6.86312E-21
6.85233E-04 5.98925E-21
7.31665E-04 5.24992E-21
7.79618E-04 4.62105E-21
8.29092E-04 4.08341E-21
8.80086E-04 3.62162E-21
9.32601E-04 3.22318E-21
9.86636E-04 2.87794E-21
1.04219E-03 2.57764E-21
1.09927E-03 2.31541E-21
1.15786E-03 2.08563E-21
1.21797E-03 1.88361E-21
1.27961E-03 1.70540E-21
1.34276E-03 1.54773E-21
1.40743E-03 1.40783E-21
1.47362E-03 1.28335E-21
1.54133E-03 1.17229E-21
1.61056E-03 1.07296E-21
1.68131E-03 9.83897E-22
1.75357E-03 9.03863E-22
1.82735E-03 8.31785E-22
1.90265E-03 7.66726E-22
1.97947E-03 7.07888E-22
2.05780E-03 6.54572E-22
2.13765E-03 6.06164E-22
2.21902E-03 5.62136E-22
2.30190E-03 5.22022E-22
2.38630E-03 4.85409E-22
2.47222E-03 4.51942E-22
2.55965E-03 4.21299E-22
2.64859E-03 3.93199E-22
2.73905E-03 3.67398E-22
2.83103E-03 3.43666E-22
2.92452E-03 3.21818E-22
3.01952E-03 3.01668E-22
3.11604E-03 2.83066E-22
3.21407E-03 2.65870E-22
3.31362E-03 2.49955E-22
3.41468E-03 2.35208E-22
3.51725E-03 2.21528E-22
3.62133E-03 2.08824E-22
3.72692E-03 1.97013E-22
3.83403E-03 1.86022E-22
3.94265E-03 1.75783E-22
4.05278E-03 1.66236E-22
4.16442E-03 1.57325E-22
4.27757E-03 1.49001E-22
4.39223E-03 1.41216E-22
4.50840E-03 1.33932E-22
4.62608E-03 1.27108E-22
4.74527E-03 1.20711E-22
4.86597E-03 1.14709E-22
4.98817E-03 1.09074E-22
5.11188E-03 1.03778E-22
5.23711E-03 9.87986E-23
5.36383E-03 9.41121E-23
5.49207E-03 8.96986E-23
5.62181E-03 8.55393E-23
5.75306E-03 8.16168E-23
5.88581E-03 7.79152E-23
6.02007E-03 7.44198E-23
6.15583E-03 7.11170E-23
6.29310E-03 6.79942E-23
6.43187E-03 6.50398E-23
6.57214E-03 6.22430E-23
6.71392E-03 5.95940E-23
6.85720E-03 5.70834E-23
7.00198E-03 5.47027E-23
7.14827E-03 5.24440E-23
7.29605E-03 5.02998E-23
7.44534E-03 4.82633E-23
7.59612E-03 4.63280E-23
7.97965E-03 4.18948E-23
8.37255E-03 3.79756E-23
8.77480E-03 3.45008E-23
9.18641E-03 3.14114E-23
9.60736E-03 2.86574E-23
1.00376E-02 2.61963E-23
1.04773E-02 2.39915E-23
1.09262E-02 2.20119E-23
1.13844E-02 2.02304E-23
1.18520E-02 1.86239E-23
1.23288E-02 1.71722E-23
1.28150E-02 1.58578E-23
1.33104E-02 1.46655E-23
1.38150E-02 1.35819E-23
1.43290E-02 1.25956E-23
1.48521E-02 1.16962E-23
1.53845E-02 1.08747E-23
1.59262E-02 1.01232E-23
1.64770E-02 9.43474E-24
1.70371E-02 8.80310E-24
1.76063E-02 8.22276E-24
1.81848E-02 7.68884E-24
1.87724E-02 7.19697E-24
1.93692E-02 6.74327E-24
1.99751E-02 6.32425E-24
2.05901E-02 5.93681E-24
2.12143E-02 5.57815E-24
2.18476E-02 5.24576E-24
2.24900E-02 4.93737E-24
2.31415E-02 4.65095E-24
2.38021E-02 4.38467E-24
2.44717E-02 4.13685E-24
2.51504E-02 3.90600E-24
2.58382E-02 3.69075E-24
2.65349E-02 3.48986E-24
2.72407E-02 3.30220E-24
2.79555E-02 3.12676E-24
2.86793E-02 2.96260E-24
2.94120E-02 2.80886E-24
3.01537E-02 2.66476E-24
3.09043E-02 2.52961E-24
3.16639E-02 2.40274E-24
3.24324E-02 2.28356E-24
3.32098E-02 2.17152E-24
3.39961E-02 2.06612E-24
3.47912E-02 1.96690E-24
3.55952E-02 1.87342E-24
3.64081E-02 1.78531E-24
3.72297E-02 1.70220E-24
3.80602E-02 1.62375E-24
3.88995E-02 1.54966E-24
3.97476E-02 1.47965E-24
4.06044E-02 1.41345E-24
4.14700E-02 1.35081E-24
4.23443E-02 1.29152E-24
4.32273E-02 1.23536E-24
4.41190E-02 1.18213E-24
4.50194E-02 1.13167E-24
4.59284E-02 1.08379E-24
4.68461E-02 1.03835E-24
4.87074E-02 9.54207E-25
5.06030E-02 8.78179E-25
5.25328E-02 8.09359E-25
5.44967E-02 7.46954E-25
5.64946E-02 6.90268E-25
5.85262E-02 6.38692E-25
6.05914E-02 5.91691E-25
6.26901E-02 5.48793E-25
6.48222E-02 5.09583E-25
6.69873E-02 4.73692E-25
6.91854E-02 4.40794E-25
7.14163E-02 4.10599E-25
7.36799E-02 3.82850E-25
7.59760E-02 3.57316E-25
7.83043E-02 3.33792E-25
8.06647E-02 3.12096E-25
8.30571E-02 2.92062E-25
8.54812E-02 2.73542E-25
8.79369E-02 2.56405E-25
9.04240E-02 2.40530E-25
9.29422E-02 2.25810E-25
9.54915E-02 2.12148E-25
9.80716E-02 1.99455E-25
1.00682E-01 1.87652E-25
1.03323E-01 1.76668E-25
1.05995E-01 1.66436E-25
1.08696E-01 1.56897E-25
1.11427E-01 1.47996E-25
1.14188E-01 1.39685E-25
1.16978E-01 1.31918E-25
1.19797E-01 1.24654E-25
1.22645E-01 1.17856E-25
1.25522E-01 1.11489E-25
1.28428E-01 1.05522E-25
1.31361E-01 9.99256E-26
1.34323E-01 9.46736E-26
1.37313E-01 8.97415E-26
1.40330E-01 8.51070E-26
1.43375E-01 8.07494E-26
1.46447E-01 7.66496E-26
1.49545E-01 7.27903E-26
1.52671E-01 6.91552E-26
1.55823E-01 6.57294E-26
1.59001E-01 6.24990E-26
1.62205E-01 5.94514E-26
1.65435E-01 5.65746E-26
1.68690E-01 5.38577E-26
1.71970E-01 5.12906E-26
1.75276E-01 4.88638E-26
1.78606E-01 4.65685E-26
1.81961E-01 4.43966E-26
1.85340E-01 4.23406E-26
1.88743E-01 4.03933E-26
1.92169E-01 3.85483E-26
1.95619E-01 3.67994E-26
1.99092E-01 3.51409E-26
2.02589E-01 3.35675E-26
2.06107E-01 3.20743E-26
2.09649E-01 3.06565E-26
2.13212E-01 2.93099E-26
2.16797E-01 2.80304E-26
2.20404E-01 2.68142E-26
2.24032E-01 2.56578E-26
2.27680E-01 2.45578E-26
2.31350E-01 2.35111E-26
2.35040E-01 2.25148E-26
2.38751E-01 2.15662E-26
2.42481E-01 2.06626E-26
2.46231E-01 1.98017E-26
2.50000E-01 1.89812E-26
2.53788E-01 1.81989E-26
2.57595E-01 1.74528E-26
2.61421E-01 1.67411E-26
2.65264E-01 1.60619E-26
2.69126E-01 1.54136E-26
2.73005E-01 1.47946E-26
2.76901E-01 1.42035E-26
2.80814E-01 1.36387E-26
2.84744E-01 1.30991E-26
2.88691E-01 1.25832E-26
2.92653E-01 1.20901E-26
2.96632E-01 1.16184E-26
3.00625E-01 1.11673E-26
3.04634E-01 1.07356E-26
3.08658E-01 1.03225E-26
3.12697E-01 9.92708E-27
3.16749E-01 9.54844E-27
3.20816E-01 9.18582E-27
3.24896E-01 8.83846E-27
3.28990E-01 8.50564E-27
3.33097E-01 8.18669E-27
3.37216E-01 7.88096E-27
3.41348E-01 7.58784E-27
3.45492E-01 7.30676E-27
3.49647E-01 7.03715E-27
3.53814E-01 6.77851E-27
3.57992E-01 6.53034E-27
3.62181E-01 6.29216E-27
3.66381E-01 6.06353E-27
3.70590E-01 5.84403E-27
3.74810E-01 5.63325E-27
3.79039E-01 5.43081E-27
3.83277E-01 5.23634E-27
3.87524E-01 5.04950E-27
3.91780E-01 4.86995E-27
3.96044E-01 4.69738E-27
4.00316E-01 4.53149E-27
4.04596E-01 4.37200E-27
4.08882E-01 4.21863E-27
4.13176E-01 4.07112E-27
4.17476E-01 3.92923E-27
4.21783E-01 3.79272E-27
4.26095E-01 3.66137E-27
4.30413E-01 3.53497E-27
4.34737E-01 3.41329E-27
4.39065E-01 3.29617E-27
4.43398E-01 3.18340E-27
4.47736E-01 3.07480E-27
4.52077E-01 2.97022E-27
4.56422E-01 2.86948E-27
4.60770E-01 2.77243E-27
4.65122E-01 2.67893E-27
4.69476E-01 2.58883E-27
4.73832E-01 2.50199E-27
4.78190E-01 2.41830E-27
4.82550E-01 2.33761E-27
4.86912E-01 2.25982E-27
4.91274E-01 2.18481E-27
4.95637E-01 2.11247E-27
5.00000E-01 2.04270E-27
5.04363E-01 1.97539E-27
5.08726E-01 1.91047E-27
5.13088E-01 1.84782E-27
5.17450E-01 1.78737E-27
5.21810E-01 1.72903E-27
5.26168E-01 1.67272E-27
5.30524E-01 1.61837E-27
5.34878E-01 1.56589E-27
5.39230E-01 1.51523E-27
5.43578E-01 1.46631E-27
5.47923E-01 1.41906E-27
5.52264E-01 1.37343E-27
5.56602E-01 1.32935E-27
5.60935E-01 1.28678E-27
5.65263E-01 1.24564E-27
5.69587E-01 1.20589E-27
5.73905E-01 1.16748E-27
5.78217E-01 1.13036E-27
5.82524E-01 1.09449E-27
5.86824E-01 1.05981E-27
5.91118E-01 1.02628E-27
5.95404E-01 9.93870E-28
5.99684E-01 9.62531E-28
6.03956E-01 9.32227E-28
6.08220E-01 9.02921E-28
6.12476E-01 8.74577E-28
6.16723E-01 8.47162E-28
6.20961E-01 8.20642E-28
6.25190E-01 7.94986E-28
6.29410E-01 7.70164E-28
6.33619E-01 7.46146E-28
6.37819E-01 7.22905E-28
6.42008E-01 7.00413E-28
6.46186E-01 6.78645E-28
6.50353E-01 6.57575E-28
6.54508E-01 6.37179E-28
6.58652E-01 6.17435E-28
6.62784E-01 5.98319E-28
6.66903E-01 5.79811E-28
6.71010E-01 5.61890E-28
6.75104E-01 5.44535E-28
6.79184E-01 5.27728E-28
6.83251E-01 5.11450E-28
6.87303E-01 4.95683E-28
6.91342E-01 4.80410E-28
6.95366E-01 4.65615E-28
6.99375E-01 4.51281E-28
7.03368E-01 4.37393E-28
7.07347E-01 4.23936E-28
7.11309E-01 4.10896E-28
7.15256E-01 3.98260E-28
7.19186E-01 3.86013E-28
7.23099E-01 3.74143E-28
7.26995E-01 3.62639E-28
7.30874E-01 3.51486E-28
7.34736E-01 3.40675E-28
7.38579E-01 3.30194E-28
7.42405E-01 3.20033E-28
7.46212E-01 3.10180E-28
7.50000E-01 3.00627E-28
7.53769E-01 2.91363E-28
7.57519E-01 2.82379E-28
7.61249E-01 2.73666E-28
7.64960E-01 2.65216E-28
7.68650E-01 2.57020E-28
7.72320E-01 2.49070E-28
7.75968E-01 2.41357E-28
7.79596E-01 2.33876E-28
7.83203E-01 2.26618E-28
7.86788E-01 2.19576E-28
7.90351E-01 2.12744E-28
7.93893E-01 2.06115E-28
7.97411E-01 1.99682E-28
8.00908E-01 1.93440E-28
8.04381E-01 1.87382E-28
8.07831E-01 1.81503E-28
8.11257E-01 1.75798E-28
8.14660E-01 1.70260E-28
8.18039E-01 1.64885E-28
8.21394E-01 1.59668E-28
8.24724E-01 1.54604E-28
8.28030E-01 1.49688E-28
8.31310E-01 1.44916E-28
8.34565E-01 1.40283E-28
8.37795E-01 1.35785E-28
8.40999E-01 1.31418E-28
8.44177E-01 1.27179E-28
8.47329E-01 1.23062E-28
8.50455E-01 1.19065E-28
8.53553E-01 1.15185E-28
8.56625E-01 1.11416E-28
8.59670E-01 1.07757E-28
8.62687E-01 1.04204E-28
8.65677E-01 1.00753E-28
8.68639E-01 9.74026E-29
8.71572E-01 9.41488E-29
8.74478E-01 9.09889E-29
8.77355E-01 8.79202E-29
8.80203E-01 8.49402E-29
8.83022E-01 8.20461E-29
8.85812E-01 7.92355E-29
8.88573E-01 7.65061E-29
8.91304E-01 7.38553E-29
8.94005E-01 7.12811E-29
8.96677E-01 6.87812E-29
8.99318E-01 6.63536E-29
9.01928E-01 6.39960E-29
9.04508E-01 6.17066E-29
9.07058E-01 5.94835E-29
9.09576E-01 5.73247E-29
9.12063E-01 5.52286E-29
9.14519E-01 5.31933E-29
9.16943E-01 5.12171E-29
9.19335E-01 4.92985E-29
9.21696E-01 4.74358E-29
9.24024E-01 4.56275E-29
9.26320E-01 4.38722E-29
9.28584E-01 4.21683E-29
9.30815E-01 4.05146E-29
9.33013E-01 3.89097E-29
9.35178E-01 3.73522E-29
9.37310E-01 3.58409E-29
9.39409E-01 3.43747E-29
9.41474E-01 3.29523E-29
9.43505E-01 3.15725E-29
9.45503E-01 3.02344E-29
9.47467E-01 2.89367E-29
9.49397E-01 2.76786E-29
9.51293E-01 2.64589E-29
9.53154E-01 2.52768E-29
9.54981E-01 2.41312E-29
9.56773E-01 2.30214E-29
9.58530E-01 2.19464E-29
9.60252E-01 2.09053E-29
9.61940E-01 1.98974E-29
9.63592E-01 1.89219E-29
9.65209E-01 1.79780E-29
9.66790E-01 1.70651E-29
9.68336E-01 1.61822E-29
9.69846E-01 1.53289E-29
9.71321E-01 1.45045E-29
9.72759E-01 1.37082E-29
9.74162E-01 1.29395E-29
9.75528E-01 1.21979E-29
9.76858E-01 1.14826E-29
9.78152E-01 1.07933E-29
9.79410E-01 1.01293E-29
9.80631E-01 9.49022E-30
9.81815E-01 8.87549E-30
9.82963E-01 8.28467E-30
9.84074E-01 7.71731E-30
9.85148E-01 7.17298E-30
9.86185E-01 6.65127E-30
9.87185E-01 6.15178E-30
9.88148E-01 5.67415E-30
9.89074E-01 5.21801E-30
9.89962E-01 4.78302E-30
9.90814E-01 4.36886E-30
9.91627E-01 3.97521E-30
9.92404E-01 3.60177E-30
9.93143E-01 3.24828E-30
9.93844E-01 2.91446E-30
9.94508E-01 2.60007E-30
9.95134E-01 2.30487E-30
9.95722E-01 2.02864E-30
9.96273E-01 1.77118E-30
9.96786E-01 1.53230E-30
9.97261E-01 1.31181E-30
9.97698E-01 1.10956E-30
9.98097E-01 9.25394E-31
9.98459E-01 7.59176E-31
9.98782E-01 6.10783E-31
9.99067E-01 4.80105E-31
9.99315E-01 3.67046E-31
9.99524E-01 2.71521E-31
9.99695E-01 1.93461E-31
9.99829E-01 1.32807E-31
9.99924E-01 8.95151E-32
9.99981E-01 6.35526E-32
1.00000E+00 5.49004E-32
