 #
 # Subroutine ELSEPA. Elastic scattering of electrons and positrons
 #                    by neutral atoms and positive ions
 #
 # Projectile: positron
 # Kinetic energy = 8.00000E+08 eV = 2.93995E+07 a.u.
 #
 # WARNING: High-energy factorization with free-atom DF screening.
 #          Absorption, polarization and exchange corrections are
 #          switched off.
 #          Phase shifts are calculated for the bare nucleus.
 #          Scattering amplitudes are not evaluated.
 #
 # Element: Rh,  Z =  45,  atomic weight = 1.02906E+02 g/mol
 #
 # Nuclear model: Fermi distribution
 #                Average radius = 5.01414E-13 cm
 #                Skin thickness = 5.46000E-14 cm
 #
 # Number of electrons = 45
 #
 # Total elastic cross section = 4.20150E-18 cm**2 = 1.50038E-01 a0**2
 # 1st transport cross section = 6.25294E-27 cm**2 = 2.23297E-10 a0**2
 # 2nd transport cross section = 1.87557E-26 cm**2 = 6.69779E-10 a0**2
 #
 #
 # Differential cross section:                       MU=(1-COS(THETA))/2
 #
 #  THETA        MU          DCS          DCS        Sherman      error
 #  (deg)                 (cm**2/sr)   (a0**2/sr)    function
 #----------------------------------------------------------------------
0.00000E+00 2.03467E-08
7.61557E-13 1.76139E-08
1.18994E-12 1.63676E-08
1.71346E-12 1.50601E-08
2.33225E-12 1.37552E-08
3.04617E-12 1.24988E-08
3.85530E-12 1.13219E-08
4.75964E-12 1.02350E-08
5.75917E-12 9.24864E-09
6.85391E-12 8.35363E-09
8.04379E-12 7.55238E-09
9.32893E-12 6.82985E-09
1.07092E-11 6.18479E-09
1.21847E-11 5.60465E-09
1.37554E-11 5.08537E-09
1.54213E-11 4.61854E-09
1.71823E-11 4.19903E-09
1.90386E-11 3.82178E-09
2.09900E-11 3.48137E-09
2.30367E-11 3.17514E-09
2.51785E-11 2.89777E-09
2.74156E-11 2.64814E-09
2.97478E-11 2.42132E-09
3.21752E-11 2.21683E-09
3.46979E-11 2.03100E-09
3.73157E-11 1.85420E-09
4.00286E-11 1.69226E-09
4.28368E-11 1.55031E-09
4.57402E-11 1.42540E-09
4.87388E-11 1.31510E-09
5.18325E-11 1.21733E-09
5.50215E-11 1.13039E-09
5.83057E-11 1.04274E-09
6.16850E-11 9.61160E-10
6.51595E-11 8.88404E-10
6.87293E-11 8.23323E-10
7.23943E-11 7.64943E-10
7.61544E-11 7.12434E-10
1.18991E-10 3.63396E-10
1.71347E-10 2.06085E-10
2.33223E-10 1.27513E-10
3.04617E-10 8.40899E-11
3.85531E-10 5.80440E-11
4.75965E-10 4.12940E-11
5.75917E-10 3.01173E-11
6.85389E-10 2.23492E-11
8.04380E-10 1.68835E-11
9.32891E-10 1.29386E-11
1.07092E-09 1.00608E-11
1.21847E-09 7.93003E-12
1.37554E-09 6.33338E-12
1.54213E-09 5.11901E-12
1.71823E-09 4.18315E-12
1.90386E-09 3.45307E-12
2.09900E-09 2.87688E-12
2.30367E-09 2.41760E-12
2.51785E-09 2.04751E-12
2.74156E-09 1.74660E-12
2.97478E-09 1.49937E-12
3.21752E-09 1.29477E-12
3.46978E-09 1.12401E-12
3.73156E-09 9.80238E-13
4.00286E-09 8.58971E-13
4.28368E-09 7.56471E-13
4.57402E-09 6.68219E-13
4.87388E-09 5.92649E-13
5.18326E-09 5.27689E-13
5.50215E-09 4.70923E-13
5.83057E-09 4.21780E-13
6.16850E-09 3.78868E-13
6.51596E-09 3.41114E-13
6.87293E-09 3.08054E-13
7.23942E-09 2.78804E-13
7.61544E-09 2.52905E-13
1.18991E-08 1.06446E-13
1.71347E-08 5.21298E-14
2.33223E-08 2.84384E-14
3.04617E-08 1.68098E-14
3.85531E-08 1.05669E-14
4.75965E-08 6.97331E-15
5.75917E-08 4.78632E-15
6.85389E-08 3.39348E-15
8.04380E-08 2.47239E-15
9.32891E-08 1.84359E-15
1.07092E-07 1.40248E-15
1.21847E-07 1.08568E-15
1.37554E-07 8.53442E-16
1.54213E-07 6.80062E-16
1.71823E-07 5.48528E-16
1.90386E-07 4.47289E-16
2.09900E-07 3.68347E-16
2.30367E-07 3.06065E-16
2.51785E-07 2.56399E-16
2.74156E-07 2.16403E-16
2.97478E-07 1.83906E-16
3.21752E-07 1.57282E-16
3.46978E-07 1.35304E-16
3.73156E-07 1.17031E-16
4.00286E-07 1.01740E-16
4.28368E-07 8.88657E-17
4.57402E-07 7.79637E-17
4.87388E-07 6.86826E-17
5.18325E-07 6.07418E-17
5.50215E-07 5.39156E-17
5.83057E-07 4.80215E-17
6.16850E-07 4.29110E-17
6.51596E-07 3.84623E-17
6.87293E-07 3.45753E-17
7.23942E-07 3.11670E-17
7.61543E-07 2.81683E-17
1.18991E-06 1.15456E-17
1.71347E-06 5.56938E-18
2.33223E-06 3.00647E-18
3.04617E-06 1.76232E-18
3.85531E-06 1.10014E-18
4.75964E-06 7.21739E-19
5.75916E-06 4.92904E-19
6.85388E-06 3.47981E-19
8.04378E-06 2.52610E-19
9.32888E-06 1.87782E-19
1.07092E-05 1.42475E-19
1.21846E-05 1.10042E-19
1.37553E-05 8.63336E-20
1.54212E-05 6.86786E-20
1.71822E-05 5.53136E-20
1.90385E-05 4.50365E-20
2.09899E-05 3.70564E-20
2.30365E-05 3.07655E-20
2.51783E-05 2.57513E-20
2.74153E-05 2.17153E-20
2.97475E-05 1.84383E-20
3.21749E-05 1.57564E-20
3.46974E-05 1.35453E-20
3.73152E-05 1.17095E-20
4.00281E-05 1.01750E-20
4.28362E-05 8.88396E-21
4.57395E-05 7.79128E-21
4.87380E-05 6.86128E-21
5.18317E-05 6.06568E-21
5.50205E-05 5.38189E-21
5.83045E-05 4.79167E-21
6.16838E-05 4.28017E-21
6.51582E-05 3.83518E-21
6.87277E-05 3.44661E-21
7.23925E-05 3.10607E-21
7.61524E-05 2.78495E-21
9.21439E-05 1.89412E-21
1.09658E-04 1.33080E-21
1.28695E-04 9.60879E-22
1.49255E-04 7.09924E-22
1.71338E-04 5.35024E-22
1.94942E-04 4.10170E-22
2.20070E-04 3.19199E-22
2.46720E-04 2.51702E-22
2.74892E-04 2.00806E-22
3.04586E-04 1.61881E-22
3.35803E-04 1.31721E-22
3.68542E-04 1.08085E-22
4.02802E-04 8.93654E-23
4.38585E-04 7.43975E-23
4.75889E-04 6.23261E-23
5.14715E-04 5.25122E-23
5.55063E-04 4.44760E-23
5.96931E-04 3.78508E-23
6.40321E-04 3.23550E-23
6.85233E-04 2.77700E-23
7.31665E-04 2.39243E-23
7.79618E-04 2.06830E-23
8.29092E-04 1.79384E-23
8.80086E-04 1.56044E-23
9.32601E-04 1.36118E-23
9.86636E-04 1.19041E-23
1.04219E-03 1.04356E-23
1.09927E-03 9.16862E-24
1.15786E-03 8.07216E-24
1.21797E-03 7.12054E-24
1.27961E-03 6.29238E-24
1.34276E-03 5.56986E-24
1.40743E-03 4.93799E-24
1.47362E-03 4.38415E-24
1.54133E-03 3.89769E-24
1.61056E-03 3.46957E-24
1.68131E-03 3.09208E-24
1.75357E-03 2.75865E-24
1.82735E-03 2.46365E-24
1.90265E-03 2.20225E-24
1.97947E-03 1.97028E-24
2.05780E-03 1.76414E-24
2.13765E-03 1.58073E-24
2.21902E-03 1.41733E-24
2.30190E-03 1.27161E-24
2.38630E-03 1.14150E-24
2.47222E-03 1.02523E-24
2.55965E-03 9.21215E-25
2.64859E-03 8.28092E-25
2.73905E-03 7.44651E-25
2.83103E-03 6.69829E-25
2.92452E-03 6.02689E-25
3.01952E-03 5.42405E-25
3.11604E-03 4.88244E-25
3.21407E-03 4.39558E-25
3.31362E-03 3.95772E-25
3.41468E-03 3.56375E-25
3.51725E-03 3.20913E-25
3.62133E-03 2.88983E-25
3.72692E-03 2.60222E-25
3.83403E-03 2.34311E-25
3.94265E-03 2.10960E-25
4.05278E-03 1.89913E-25
4.16442E-03 1.70940E-25
4.27757E-03 1.53834E-25
4.39223E-03 1.38411E-25
4.50840E-03 1.24504E-25
4.62608E-03 1.11965E-25
4.74527E-03 1.00659E-25
4.86597E-03 9.04659E-26
4.98817E-03 8.12767E-26
5.11188E-03 7.29939E-26
5.23711E-03 6.55295E-26
5.36383E-03 5.88038E-26
5.49207E-03 5.27454E-26
5.62181E-03 4.72895E-26
5.75306E-03 4.23777E-26
5.88581E-03 3.79573E-26
6.02007E-03 3.39806E-26
6.15583E-03 3.04046E-26
6.29310E-03 2.71904E-26
6.43187E-03 2.43026E-26
6.57214E-03 2.17096E-26
6.71392E-03 1.93825E-26
6.85720E-03 1.72953E-26
7.00198E-03 1.54244E-26
7.14827E-03 1.37485E-26
7.29605E-03 1.22483E-26
7.44534E-03 1.09063E-26
7.59612E-03 9.70684E-27
7.97965E-03 7.24119E-27
8.37255E-03 5.39237E-27
8.77480E-03 4.01419E-27
9.18641E-03 2.99336E-27
9.60736E-03 2.24229E-27
1.00376E-02 1.69350E-27
1.04773E-02 1.29525E-27
1.09262E-02 1.00803E-27
1.13844E-02 8.01858E-28
1.18520E-02 6.54166E-28
1.23288E-02 5.48096E-28
1.28150E-02 4.71188E-28
1.33104E-02 4.14344E-28
1.38150E-02 3.71023E-28
1.43290E-02 3.36602E-28
1.48521E-02 3.07894E-28
1.53845E-02 2.82766E-28
1.59262E-02 2.59848E-28
1.64770E-02 2.38313E-28
1.70371E-02 2.17708E-28
1.76063E-02 1.97833E-28
1.81848E-02 1.78644E-28
1.87724E-02 1.60191E-28
1.93692E-02 1.42569E-28
1.99751E-02 1.25890E-28
2.05901E-02 1.10256E-28
2.12143E-02 9.57528E-29
2.18476E-02 8.24385E-29
2.24900E-02 7.03451E-29
2.31415E-02 5.94768E-29
2.38021E-02 4.98133E-29
2.44717E-02 4.13126E-29
2.51504E-02 3.39158E-29
2.58382E-02 2.75505E-29
2.65349E-02 2.21351E-29
2.72407E-02 1.75823E-29
2.79555E-02 1.38024E-29
2.86793E-02 1.07058E-29
2.94120E-02 8.20546E-30
3.01537E-02 6.21855E-30
3.09043E-02 4.66761E-30
3.16639E-02 3.48154E-30
3.24324E-02 2.59608E-30
3.32098E-02 1.95409E-30
3.39961E-02 1.50550E-30
3.47912E-02 1.20709E-30
3.55952E-02 1.02218E-30
3.64081E-02 9.20144E-31
3.72297E-02 8.75864E-31
3.80602E-02 8.69177E-31
3.88995E-02 8.84280E-31
3.97476E-02 9.09147E-31
4.06044E-02 9.34966E-31
4.14700E-02 9.55612E-31
4.23443E-02 9.67160E-31
4.32273E-02 9.67443E-31
4.41190E-02 9.55662E-31
4.50194E-02 9.32047E-31
4.59284E-02 8.97560E-31
4.68461E-02 8.53657E-31
4.87074E-02 7.44710E-31
5.06030E-02 6.19994E-31
5.25328E-02 4.93085E-31
5.44967E-02 3.74524E-31
5.64946E-02 2.71228E-31
5.85262E-02 1.86677E-31
6.05914E-02 1.21536E-31
6.26901E-02 7.44464E-32
6.48222E-02 4.28021E-32
6.69873E-02 2.34281E-32
6.91854E-02 1.30957E-32
7.14163E-02 8.87248E-33
7.36799E-02 8.32282E-33
7.59760E-02 9.58531E-33
7.83043E-02 1.13614E-32
8.06647E-02 1.28472E-32
8.30571E-02 1.36350E-32
8.54812E-02 1.36074E-32
8.79369E-02 1.28367E-32
9.04240E-02 1.15004E-32
9.29422E-02 9.81537E-33
9.54915E-02 7.99218E-33
9.80716E-02 6.20725E-33
1.00682E-01 4.58954E-33
1.03323E-01 3.21827E-33
1.05995E-01 2.12779E-33
1.08696E-01 1.31663E-33
1.11427E-01 7.57986E-34
1.14188E-01 4.09962E-34
1.16978E-01 2.24382E-34
1.19797E-01 1.53589E-34
1.22645E-01 1.55087E-34
1.25522E-01 1.94199E-34
1.28428E-01 2.45050E-34
1.31361E-01 2.90320E-34
1.34323E-01 3.20168E-34
1.37313E-01 3.30715E-34
1.40330E-01 3.22391E-34
1.43375E-01 2.98359E-34
1.46447E-01 2.63166E-34
1.49545E-01 2.21701E-34
1.52671E-01 1.78452E-34
1.55823E-01 1.37062E-34
1.59001E-01 1.00136E-34
1.62205E-01 6.92235E-35
1.65435E-01 4.49372E-35
1.68690E-01 2.71396E-35
1.71970E-01 1.51624E-35
1.75276E-01 8.01712E-36
1.78606E-01 4.58146E-36
1.81961E-01 3.74477E-36
1.85340E-01 4.51090E-36
1.88743E-01 6.05956E-36
1.92169E-01 7.77232E-36
1.95619E-01 9.23058E-36
1.99092E-01 1.01950E-35
2.02589E-01 1.05721E-35
2.06107E-01 1.03780E-35
2.09649E-01 9.70044E-36
2.13212E-01 8.66647E-36
2.16797E-01 7.41559E-36
2.20404E-01 6.07969E-36
2.24032E-01 4.77043E-36
2.27680E-01 3.57227E-36
2.31350E-01 2.54049E-36
2.35040E-01 1.70341E-36
2.38751E-01 1.06614E-36
2.42481E-01 6.16231E-37
2.46231E-01 3.29247E-37
2.50000E-01 1.74121E-37
2.53788E-01 1.17644E-37
2.57595E-01 1.27996E-37
2.61421E-01 1.77165E-37
2.65264E-01 2.42383E-37
2.69126E-01 3.06623E-37
2.73005E-01 3.58542E-37
2.76901E-01 3.91835E-37
2.80814E-01 4.04339E-37
2.84744E-01 3.97000E-37
2.88691E-01 3.72839E-37
2.92653E-01 3.36051E-37
2.96632E-01 2.91227E-37
3.00625E-01 2.42759E-37
3.04634E-01 1.94460E-37
3.08658E-01 1.49319E-37
3.12697E-01 1.09449E-37
3.16749E-01 7.60867E-38
3.20816E-01 4.96958E-38
3.24896E-01 3.01294E-38
3.28990E-01 1.67567E-38
3.33097E-01 1.00000E-45
3.37216E-01 1.00000E-45
3.41348E-01 1.00000E-45
3.45492E-01 1.00000E-45
3.49647E-01 1.00000E-45
3.53814E-01 1.00000E-45
3.57992E-01 1.00000E-45
3.62181E-01 1.00000E-45
3.66381E-01 1.00000E-45
3.70590E-01 1.00000E-45
3.74810E-01 1.00000E-45
3.79039E-01 1.00000E-45
3.83277E-01 1.00000E-45
3.87524E-01 1.00000E-45
3.91780E-01 1.00000E-45
3.96044E-01 1.00000E-45
4.00316E-01 1.00000E-45
4.04596E-01 1.00000E-45
4.08882E-01 1.00000E-45
4.13176E-01 1.00000E-45
4.17476E-01 1.00000E-45
4.21783E-01 1.00000E-45
4.26095E-01 1.00000E-45
4.30413E-01 1.00000E-45
4.34737E-01 1.00000E-45
4.39065E-01 1.00000E-45
4.43398E-01 1.00000E-45
4.47736E-01 1.00000E-45
4.52077E-01 1.00000E-45
4.56422E-01 1.00000E-45
4.60770E-01 1.00000E-45
4.65122E-01 1.00000E-45
4.69476E-01 1.00000E-45
4.73832E-01 1.00000E-45
4.78190E-01 1.00000E-45
4.82550E-01 1.00000E-45
4.86912E-01 1.00000E-45
4.91274E-01 1.00000E-45
4.95637E-01 1.00000E-45
5.00000E-01 1.00000E-45
5.04363E-01 1.00000E-45
5.08726E-01 1.00000E-45
5.13088E-01 1.00000E-45
5.17450E-01 1.00000E-45
5.21810E-01 1.00000E-45
5.26168E-01 1.00000E-45
5.30524E-01 1.00000E-45
5.34878E-01 1.00000E-45
5.39230E-01 1.00000E-45
5.43578E-01 1.00000E-45
5.47923E-01 1.00000E-45
5.52264E-01 1.00000E-45
5.56602E-01 1.00000E-45
5.60935E-01 1.00000E-45
5.65263E-01 1.00000E-45
5.69587E-01 1.00000E-45
5.73905E-01 1.00000E-45
5.78217E-01 1.00000E-45
5.82524E-01 1.00000E-45
5.86824E-01 1.00000E-45
5.91118E-01 1.00000E-45
5.95404E-01 1.00000E-45
5.99684E-01 1.00000E-45
6.03956E-01 1.00000E-45
6.08220E-01 1.00000E-45
6.12476E-01 1.00000E-45
6.16723E-01 1.00000E-45
6.20961E-01 1.00000E-45
6.25190E-01 1.00000E-45
6.29410E-01 1.00000E-45
6.33619E-01 1.00000E-45
6.37819E-01 1.00000E-45
6.42008E-01 1.00000E-45
6.46186E-01 1.00000E-45
6.50353E-01 1.00000E-45
6.54508E-01 1.00000E-45
6.58652E-01 1.00000E-45
6.62784E-01 1.00000E-45
6.66903E-01 1.00000E-45
6.71010E-01 1.00000E-45
6.75104E-01 1.00000E-45
6.79184E-01 1.00000E-45
6.83251E-01 1.00000E-45
6.87303E-01 1.00000E-45
6.91342E-01 1.00000E-45
6.95366E-01 1.00000E-45
6.99375E-01 1.00000E-45
7.03368E-01 1.00000E-45
7.07347E-01 1.00000E-45
7.11309E-01 1.00000E-45
7.15256E-01 1.00000E-45
7.19186E-01 1.00000E-45
7.23099E-01 1.00000E-45
7.26995E-01 1.00000E-45
7.30874E-01 1.00000E-45
7.34736E-01 1.00000E-45
7.38579E-01 1.00000E-45
7.42405E-01 1.00000E-45
7.46212E-01 1.00000E-45
7.50000E-01 1.00000E-45
7.53769E-01 1.00000E-45
7.57519E-01 1.00000E-45
7.61249E-01 1.00000E-45
7.64960E-01 1.00000E-45
7.68650E-01 1.00000E-45
7.72320E-01 1.00000E-45
7.75968E-01 1.00000E-45
7.79596E-01 1.00000E-45
7.83203E-01 1.00000E-45
7.86788E-01 1.00000E-45
7.90351E-01 1.00000E-45
7.93893E-01 1.00000E-45
7.97411E-01 1.00000E-45
8.00908E-01 1.00000E-45
8.04381E-01 1.00000E-45
8.07831E-01 1.00000E-45
8.11257E-01 1.00000E-45
8.14660E-01 1.00000E-45
8.18039E-01 1.00000E-45
8.21394E-01 1.00000E-45
8.24724E-01 1.00000E-45
8.28030E-01 1.00000E-45
8.31310E-01 1.00000E-45
8.34565E-01 1.00000E-45
8.37795E-01 1.00000E-45
8.40999E-01 1.00000E-45
8.44177E-01 1.00000E-45
8.47329E-01 1.00000E-45
8.50455E-01 1.00000E-45
8.53553E-01 1.00000E-45
8.56625E-01 1.00000E-45
8.59670E-01 1.00000E-45
8.62687E-01 1.00000E-45
8.65677E-01 1.00000E-45
8.68639E-01 1.00000E-45
8.71572E-01 1.00000E-45
8.74478E-01 1.00000E-45
8.77355E-01 1.00000E-45
8.80203E-01 1.00000E-45
8.83022E-01 1.00000E-45
8.85812E-01 1.00000E-45
8.88573E-01 1.00000E-45
8.91304E-01 1.00000E-45
8.94005E-01 1.00000E-45
8.96677E-01 1.00000E-45
8.99318E-01 1.00000E-45
9.01928E-01 1.00000E-45
9.04508E-01 1.00000E-45
9.07058E-01 1.00000E-45
9.09576E-01 1.00000E-45
9.12063E-01 1.00000E-45
9.14519E-01 1.00000E-45
9.16943E-01 1.00000E-45
9.19335E-01 1.00000E-45
9.21696E-01 1.00000E-45
9.24024E-01 1.00000E-45
9.26320E-01 1.00000E-45
9.28584E-01 1.00000E-45
9.30815E-01 1.00000E-45
9.33013E-01 1.00000E-45
9.35178E-01 1.00000E-45
9.37310E-01 1.00000E-45
9.39409E-01 1.00000E-45
9.41474E-01 1.00000E-45
9.43505E-01 1.00000E-45
9.45503E-01 1.00000E-45
9.47467E-01 1.00000E-45
9.49397E-01 1.00000E-45
9.51293E-01 1.00000E-45
9.53154E-01 1.00000E-45
9.54981E-01 1.00000E-45
9.56773E-01 1.00000E-45
9.58530E-01 1.00000E-45
9.60252E-01 1.00000E-45
9.61940E-01 1.00000E-45
9.63592E-01 1.00000E-45
9.65209E-01 1.00000E-45
9.66790E-01 1.00000E-45
9.68336E-01 1.00000E-45
9.69846E-01 1.00000E-45
9.71321E-01 1.00000E-45
9.72759E-01 1.00000E-45
9.74162E-01 1.00000E-45
9.75528E-01 1.00000E-45
9.76858E-01 1.00000E-45
9.78152E-01 1.00000E-45
9.79410E-01 1.00000E-45
9.80631E-01 1.00000E-45
9.81815E-01 1.00000E-45
9.82963E-01 1.00000E-45
9.84074E-01 1.00000E-45
9.85148E-01 1.00000E-45
9.86185E-01 1.00000E-45
9.87185E-01 1.00000E-45
9.88148E-01 1.00000E-45
9.89074E-01 1.00000E-45
9.89962E-01 1.00000E-45
9.90814E-01 1.00000E-45
9.91627E-01 1.00000E-45
9.92404E-01 1.00000E-45
9.93143E-01 1.00000E-45
9.93844E-01 1.00000E-45
9.94508E-01 1.00000E-45
9.95134E-01 1.00000E-45
9.95722E-01 1.00000E-45
9.96273E-01 1.00000E-45
9.96786E-01 1.00000E-45
9.97261E-01 1.00000E-45
9.97698E-01 1.00000E-45
9.98097E-01 1.00000E-45
9.98459E-01 1.00000E-45
9.98782E-01 1.00000E-45
9.99067E-01 1.00000E-45
9.99315E-01 1.00000E-45
9.99524E-01 1.00000E-45
9.99695E-01 1.00000E-45
9.99829E-01 1.00000E-45
9.99924E-01 1.00000E-45
9.99981E-01 1.00000E-45
1.00000E+00 1.00000E-45
