 #
 # Subroutine ELSEPA. Elastic scattering of electrons and positrons
 #                    by neutral atoms and positive ions
 #
 # Projectile: positron
 # Kinetic energy = 2.50000E+06 eV = 9.18733E+04 a.u.
 #
 # WARNING: High-energy factorization with free-atom DF screening.
 #          Absorption, polarization and exchange corrections are
 #          switched off.
 #          Phase shifts are calculated for the bare nucleus.
 #          Scattering amplitudes are not evaluated.
 #
 # Element: Rh,  Z =  45,  atomic weight = 1.02906E+02 g/mol
 #
 # Nuclear model: Fermi distribution
 #                Average radius = 5.01414E-13 cm
 #                Skin thickness = 5.46000E-14 cm
 #
 # Number of electrons = 45
 #
 # Total elastic cross section = 4.32805E-18 cm**2 = 1.54558E-01 a0**2
 # 1st transport cross section = 2.73683E-22 cm**2 = 9.77342E-06 a0**2
 # 2nd transport cross section = 7.82581E-22 cm**2 = 2.79465E-05 a0**2
 #
 #
 # Differential cross section:                       MU=(1-COS(THETA))/2
 #
 #  THETA        MU          DCS          DCS        Sherman      error
 #  (deg)                 (cm**2/sr)   (a0**2/sr)    function
 #----------------------------------------------------------------------
0.00000E+00 2.87860E-13
7.61557E-13 2.87859E-13
1.18994E-12 2.87859E-13
1.71346E-12 2.87858E-13
2.33225E-12 2.87858E-13
3.04617E-12 2.87857E-13
3.85530E-12 2.87856E-13
4.75964E-12 2.87856E-13
5.75917E-12 2.87855E-13
6.85391E-12 2.87854E-13
8.04379E-12 2.87853E-13
9.32893E-12 2.87852E-13
1.07092E-11 2.87850E-13
1.21847E-11 2.87849E-13
1.37554E-11 2.87848E-13
1.54213E-11 2.87846E-13
1.71823E-11 2.87845E-13
1.90386E-11 2.87843E-13
2.09900E-11 2.87842E-13
2.30367E-11 2.87840E-13
2.51785E-11 2.87838E-13
2.74156E-11 2.87836E-13
2.97478E-11 2.87835E-13
3.21752E-11 2.87833E-13
3.46979E-11 2.87830E-13
3.73157E-11 2.87828E-13
4.00286E-11 2.87826E-13
4.28368E-11 2.87824E-13
4.57402E-11 2.87821E-13
4.87388E-11 2.87819E-13
5.18325E-11 2.87816E-13
5.50215E-11 2.87814E-13
5.83057E-11 2.87811E-13
6.16850E-11 2.87808E-13
6.51595E-11 2.87805E-13
6.87293E-11 2.87802E-13
7.23943E-11 2.87799E-13
7.61544E-11 2.87796E-13
1.18991E-10 2.87761E-13
1.71347E-10 2.87719E-13
2.33223E-10 2.87669E-13
3.04617E-10 2.87611E-13
3.85531E-10 2.87546E-13
4.75965E-10 2.87473E-13
5.75917E-10 2.87392E-13
6.85389E-10 2.87304E-13
8.04380E-10 2.87209E-13
9.32891E-10 2.87106E-13
1.07092E-09 2.86995E-13
1.21847E-09 2.86877E-13
1.37554E-09 2.86752E-13
1.54213E-09 2.86619E-13
1.71823E-09 2.86478E-13
1.90386E-09 2.86331E-13
2.09900E-09 2.86176E-13
2.30367E-09 2.86013E-13
2.51785E-09 2.85843E-13
2.74156E-09 2.85666E-13
2.97478E-09 2.85481E-13
3.21752E-09 2.85290E-13
3.46978E-09 2.85091E-13
3.73156E-09 2.84885E-13
4.00286E-09 2.84671E-13
4.28368E-09 2.84451E-13
4.57402E-09 2.84223E-13
4.87388E-09 2.83989E-13
5.18326E-09 2.83747E-13
5.50215E-09 2.83498E-13
5.83057E-09 2.83242E-13
6.16850E-09 2.82980E-13
6.51596E-09 2.82710E-13
6.87293E-09 2.82434E-13
7.23942E-09 2.82151E-13
7.61544E-09 2.81861E-13
1.18991E-08 2.78598E-13
1.71347E-08 2.74709E-13
2.33223E-08 2.70246E-13
3.04617E-08 2.65251E-13
3.85531E-08 2.59825E-13
4.75965E-08 2.53987E-13
5.75917E-08 2.47856E-13
6.85389E-08 2.41419E-13
8.04380E-08 2.34829E-13
9.32891E-08 2.28040E-13
1.07092E-07 2.21207E-13
1.21847E-07 2.14293E-13
1.37554E-07 2.07408E-13
1.54213E-07 2.00547E-13
1.71823E-07 1.93763E-13
1.90386E-07 1.87089E-13
2.09900E-07 1.80519E-13
2.30367E-07 1.74128E-13
2.51785E-07 1.67850E-13
2.74156E-07 1.61803E-13
2.97478E-07 1.55864E-13
3.21752E-07 1.50176E-13
3.46978E-07 1.44619E-13
3.73156E-07 1.39297E-13
4.00286E-07 1.34134E-13
4.28368E-07 1.29178E-13
4.57402E-07 1.24400E-13
4.87388E-07 1.19799E-13
5.18325E-07 1.15391E-13
5.50215E-07 1.11129E-13
5.83057E-07 1.07069E-13
6.16850E-07 1.03126E-13
6.51596E-07 9.93893E-14
6.87293E-07 9.57459E-14
7.23942E-07 9.22918E-14
7.61543E-07 8.89413E-14
1.18991E-06 6.20574E-14
1.71347E-06 4.38931E-14
2.33223E-06 3.14723E-14
3.04617E-06 2.25702E-14
3.85531E-06 1.67383E-14
4.75964E-06 1.24836E-14
5.75916E-06 9.53806E-15
6.85388E-06 7.32779E-15
8.04378E-06 5.76169E-15
9.32888E-06 4.56927E-15
1.07092E-05 3.69142E-15
1.21846E-05 3.01471E-15
1.37553E-05 2.49621E-15
1.54212E-05 2.08818E-15
1.71822E-05 1.76453E-15
1.90385E-05 1.50403E-15
2.09899E-05 1.29152E-15
2.30365E-05 1.11756E-15
2.51783E-05 9.70963E-16
2.74153E-05 8.49439E-16
2.97475E-05 7.44594E-16
3.21749E-05 6.56673E-16
3.46974E-05 5.80100E-16
3.73152E-05 5.14883E-16
4.00281E-05 4.57891E-16
4.28362E-05 4.08589E-16
4.57395E-05 3.65413E-16
4.87380E-05 3.27574E-16
5.18317E-05 2.94396E-16
5.50205E-05 2.65029E-16
5.83045E-05 2.39258E-16
6.16838E-05 2.16299E-16
6.51582E-05 1.96118E-16
6.87277E-05 1.77974E-16
7.23925E-05 1.61944E-16
7.61524E-05 1.47577E-16
9.21439E-05 1.03794E-16
1.09658E-04 7.50634E-17
1.28695E-04 5.56364E-17
1.49255E-04 4.21375E-17
1.71338E-04 3.25358E-17
1.94942E-04 2.55485E-17
2.20070E-04 2.03562E-17
2.46720E-04 1.64253E-17
2.74892E-04 1.33943E-17
3.04586E-04 1.10399E-17
3.35803E-04 9.17767E-18
3.68542E-04 7.69475E-18
4.02802E-04 6.49405E-18
4.38585E-04 5.52133E-18
4.75889E-04 4.71921E-18
5.14715E-04 4.05938E-18
5.55063E-04 3.50800E-18
5.96931E-04 3.04772E-18
6.40321E-04 2.65924E-18
6.85233E-04 2.33070E-18
7.31665E-04 2.05085E-18
7.79618E-04 1.81151E-18
8.29092E-04 1.60595E-18
8.80086E-04 1.42847E-18
9.32601E-04 1.27487E-18
9.86636E-04 1.14111E-18
1.04219E-03 1.02452E-18
1.09927E-03 9.22251E-19
1.15786E-03 8.32495E-19
1.21797E-03 7.53291E-19
1.27961E-03 6.83307E-19
1.34276E-03 6.21221E-19
1.40743E-03 5.66027E-19
1.47362E-03 5.16815E-19
1.54133E-03 4.72823E-19
1.61056E-03 4.33414E-19
1.68131E-03 3.98010E-19
1.75357E-03 3.66158E-19
1.82735E-03 3.37408E-19
1.90265E-03 3.11437E-19
1.97947E-03 2.87901E-19
2.05780E-03 2.66554E-19
2.13765E-03 2.47140E-19
2.21902E-03 2.29463E-19
2.30190E-03 2.13335E-19
2.38630E-03 1.98598E-19
2.47222E-03 1.85111E-19
2.55965E-03 1.72746E-19
2.64859E-03 1.61397E-19
2.73905E-03 1.50960E-19
2.83103E-03 1.41356E-19
2.92452E-03 1.32498E-19
3.01952E-03 1.24325E-19
3.11604E-03 1.16768E-19
3.21407E-03 1.09778E-19
3.31362E-03 1.03300E-19
3.41468E-03 9.72932E-20
3.51725E-03 9.17150E-20
3.62133E-03 8.65298E-20
3.72692E-03 8.17053E-20
3.83403E-03 7.72108E-20
3.94265E-03 7.30210E-20
4.05278E-03 6.91097E-20
4.16442E-03 6.54571E-20
4.27757E-03 6.20406E-20
4.39223E-03 5.88444E-20
4.50840E-03 5.58498E-20
4.62608E-03 5.30432E-20
4.74527E-03 5.04097E-20
4.86597E-03 4.79372E-20
4.98817E-03 4.56137E-20
5.11188E-03 4.34287E-20
5.23711E-03 4.13726E-20
5.36383E-03 3.94360E-20
5.49207E-03 3.76112E-20
5.62181E-03 3.58899E-20
5.75306E-03 3.42659E-20
5.88581E-03 3.27319E-20
6.02007E-03 3.12827E-20
6.15583E-03 2.99121E-20
6.29310E-03 2.86157E-20
6.43187E-03 2.73882E-20
6.57214E-03 2.62256E-20
6.71392E-03 2.51237E-20
6.85720E-03 2.40788E-20
7.00198E-03 2.30874E-20
7.14827E-03 2.21461E-20
7.29605E-03 2.12522E-20
7.44534E-03 2.04025E-20
7.59612E-03 1.95948E-20
7.97965E-03 1.77425E-20
8.37255E-03 1.61030E-20
8.77480E-03 1.46475E-20
9.18641E-03 1.33518E-20
9.60736E-03 1.21955E-20
1.00376E-02 1.11609E-20
1.04773E-02 1.02331E-20
1.09262E-02 9.39919E-21
1.13844E-02 8.64796E-21
1.18520E-02 7.96983E-21
1.23288E-02 7.35647E-21
1.28150E-02 6.80061E-21
1.33104E-02 6.29592E-21
1.38150E-02 5.83688E-21
1.43290E-02 5.41863E-21
1.48521E-02 5.03692E-21
1.53845E-02 4.68802E-21
1.59262E-02 4.36858E-21
1.64770E-02 4.07569E-21
1.70371E-02 3.80677E-21
1.76063E-02 3.55950E-21
1.81848E-02 3.33184E-21
1.87724E-02 3.12195E-21
1.93692E-02 2.92820E-21
1.99751E-02 2.74914E-21
2.05901E-02 2.58345E-21
2.12143E-02 2.42995E-21
2.18476E-02 2.28760E-21
2.24900E-02 2.15544E-21
2.31415E-02 2.03260E-21
2.38021E-02 1.91832E-21
2.44717E-02 1.81189E-21
2.51504E-02 1.71268E-21
2.58382E-02 1.62011E-21
2.65349E-02 1.53365E-21
2.72407E-02 1.45284E-21
2.79555E-02 1.37722E-21
2.86793E-02 1.30643E-21
2.94120E-02 1.24008E-21
3.01537E-02 1.17785E-21
3.09043E-02 1.11944E-21
3.16639E-02 1.06458E-21
3.24324E-02 1.01300E-21
3.32098E-02 9.64479E-22
3.39961E-02 9.18801E-22
3.47912E-02 8.75768E-22
3.55952E-02 8.35202E-22
3.64081E-02 7.96933E-22
3.72297E-02 7.60810E-22
3.80602E-02 7.26689E-22
3.88995E-02 6.94442E-22
3.97476E-02 6.63944E-22
4.06044E-02 6.35085E-22
4.14700E-02 6.07760E-22
4.23443E-02 5.81875E-22
4.32273E-02 5.57337E-22
4.41190E-02 5.34066E-22
4.50194E-02 5.11984E-22
4.59284E-02 4.91018E-22
4.68461E-02 4.71103E-22
4.87074E-02 4.34180E-22
5.06030E-02 4.00765E-22
5.25328E-02 3.70469E-22
5.44967E-02 3.42951E-22
5.64946E-02 3.17911E-22
5.85262E-02 2.95089E-22
6.05914E-02 2.74255E-22
6.26901E-02 2.55205E-22
6.48222E-02 2.37761E-22
6.69873E-02 2.21763E-22
6.91854E-02 2.07072E-22
7.14163E-02 1.93562E-22
7.36799E-02 1.81121E-22
7.59760E-02 1.69650E-22
7.83043E-02 1.59061E-22
8.06647E-02 1.49274E-22
8.30571E-02 1.40218E-22
8.54812E-02 1.31828E-22
8.79369E-02 1.24048E-22
9.04240E-02 1.16824E-22
9.29422E-02 1.10111E-22
9.54915E-02 1.03866E-22
9.80716E-02 9.80501E-23
1.00682E-01 9.26295E-23
1.03323E-01 8.75723E-23
1.05995E-01 8.28499E-23
1.08696E-01 7.84362E-23
1.11427E-01 7.43077E-23
1.14188E-01 7.04425E-23
1.16978E-01 6.68210E-23
1.19797E-01 6.34251E-23
1.22645E-01 6.02383E-23
1.25522E-01 5.72455E-23
1.28428E-01 5.44328E-23
1.31361E-01 5.17874E-23
1.34323E-01 4.92977E-23
1.37313E-01 4.69529E-23
1.40330E-01 4.47431E-23
1.43375E-01 4.26592E-23
1.46447E-01 4.06926E-23
1.49545E-01 3.88357E-23
1.52671E-01 3.70813E-23
1.55823E-01 3.54227E-23
1.59001E-01 3.38537E-23
1.62205E-01 3.23687E-23
1.65435E-01 3.09624E-23
1.68690E-01 2.96299E-23
1.71970E-01 2.83666E-23
1.75276E-01 2.71683E-23
1.78606E-01 2.60311E-23
1.81961E-01 2.49513E-23
1.85340E-01 2.39255E-23
1.88743E-01 2.29506E-23
1.92169E-01 2.20235E-23
1.95619E-01 2.11415E-23
1.99092E-01 2.03021E-23
2.02589E-01 1.95028E-23
2.06107E-01 1.87414E-23
2.09649E-01 1.80157E-23
2.13212E-01 1.73238E-23
2.16797E-01 1.66638E-23
2.20404E-01 1.60340E-23
2.24032E-01 1.54328E-23
2.27680E-01 1.48587E-23
2.31350E-01 1.43102E-23
2.35040E-01 1.37860E-23
2.38751E-01 1.32848E-23
2.42481E-01 1.28054E-23
2.46231E-01 1.23468E-23
2.50000E-01 1.19078E-23
2.53788E-01 1.14875E-23
2.57595E-01 1.10849E-23
2.61421E-01 1.06992E-23
2.65264E-01 1.03296E-23
2.69126E-01 9.97513E-24
2.73005E-01 9.63521E-24
2.76901E-01 9.30911E-24
2.80814E-01 8.99616E-24
2.84744E-01 8.69575E-24
2.88691E-01 8.40728E-24
2.92653E-01 8.13020E-24
2.96632E-01 7.86398E-24
3.00625E-01 7.60812E-24
3.04634E-01 7.36214E-24
3.08658E-01 7.12560E-24
3.12697E-01 6.89808E-24
3.16749E-01 6.67917E-24
3.20816E-01 6.46848E-24
3.24896E-01 6.26566E-24
3.28990E-01 6.07035E-24
3.33097E-01 5.88225E-24
3.37216E-01 5.70103E-24
3.41348E-01 5.52639E-24
3.45492E-01 5.35807E-24
3.49647E-01 5.19579E-24
3.53814E-01 5.03929E-24
3.57992E-01 4.88835E-24
3.62181E-01 4.74271E-24
3.66381E-01 4.60218E-24
3.70590E-01 4.46652E-24
3.74810E-01 4.33556E-24
3.79039E-01 4.20910E-24
3.83277E-01 4.08695E-24
3.87524E-01 3.96895E-24
3.91780E-01 3.85492E-24
3.96044E-01 3.74472E-24
4.00316E-01 3.63820E-24
4.04596E-01 3.53520E-24
4.08882E-01 3.43560E-24
4.13176E-01 3.33926E-24
4.17476E-01 3.24606E-24
4.21783E-01 3.15588E-24
4.26095E-01 3.06860E-24
4.30413E-01 2.98412E-24
4.34737E-01 2.90233E-24
4.39065E-01 2.82313E-24
4.43398E-01 2.74642E-24
4.47736E-01 2.67212E-24
4.52077E-01 2.60013E-24
4.56422E-01 2.53037E-24
4.60770E-01 2.46276E-24
4.65122E-01 2.39722E-24
4.69476E-01 2.33368E-24
4.73832E-01 2.27207E-24
4.78190E-01 2.21232E-24
4.82550E-01 2.15437E-24
4.86912E-01 2.09815E-24
4.91274E-01 2.04359E-24
4.95637E-01 1.99066E-24
5.00000E-01 1.93928E-24
5.04363E-01 1.88940E-24
5.08726E-01 1.84098E-24
5.13088E-01 1.79396E-24
5.17450E-01 1.74830E-24
5.21810E-01 1.70395E-24
5.26168E-01 1.66086E-24
5.30524E-01 1.61901E-24
5.34878E-01 1.57833E-24
5.39230E-01 1.53880E-24
5.43578E-01 1.50039E-24
5.47923E-01 1.46304E-24
5.52264E-01 1.42673E-24
5.56602E-01 1.39143E-24
5.60935E-01 1.35710E-24
5.65263E-01 1.32371E-24
5.69587E-01 1.29123E-24
5.73905E-01 1.25963E-24
5.78217E-01 1.22889E-24
5.82524E-01 1.19898E-24
5.86824E-01 1.16987E-24
5.91118E-01 1.14154E-24
5.95404E-01 1.11396E-24
5.99684E-01 1.08711E-24
6.03956E-01 1.06097E-24
6.08220E-01 1.03552E-24
6.12476E-01 1.01073E-24
6.16723E-01 9.86585E-25
6.20961E-01 9.63069E-25
6.25190E-01 9.40161E-25
6.29410E-01 9.17842E-25
6.33619E-01 8.96097E-25
6.37819E-01 8.74907E-25
6.42008E-01 8.54256E-25
6.46186E-01 8.34129E-25
6.50353E-01 8.14510E-25
6.54508E-01 7.95385E-25
6.58652E-01 7.76740E-25
6.62784E-01 7.58560E-25
6.66903E-01 7.40833E-25
6.71010E-01 7.23546E-25
6.75104E-01 7.06685E-25
6.79184E-01 6.90240E-25
6.83251E-01 6.74199E-25
6.87303E-01 6.58549E-25
6.91342E-01 6.43281E-25
6.95366E-01 6.28385E-25
6.99375E-01 6.13848E-25
7.03368E-01 5.99663E-25
7.07347E-01 5.85819E-25
7.11309E-01 5.72308E-25
7.15256E-01 5.59119E-25
7.19186E-01 5.46245E-25
7.23099E-01 5.33677E-25
7.26995E-01 5.21407E-25
7.30874E-01 5.09427E-25
7.34736E-01 4.97729E-25
7.38579E-01 4.86306E-25
7.42405E-01 4.75151E-25
7.46212E-01 4.64256E-25
7.50000E-01 4.53616E-25
7.53769E-01 4.43223E-25
7.57519E-01 4.33071E-25
7.61249E-01 4.23153E-25
7.64960E-01 4.13465E-25
7.68650E-01 4.03999E-25
7.72320E-01 3.94751E-25
7.75968E-01 3.85715E-25
7.79596E-01 3.76885E-25
7.83203E-01 3.68257E-25
7.86788E-01 3.59825E-25
7.90351E-01 3.51585E-25
7.93893E-01 3.43532E-25
7.97411E-01 3.35662E-25
8.00908E-01 3.27969E-25
8.04381E-01 3.20450E-25
8.07831E-01 3.13100E-25
8.11257E-01 3.05916E-25
8.14660E-01 2.98893E-25
8.18039E-01 2.92028E-25
8.21394E-01 2.85316E-25
8.24724E-01 2.78755E-25
8.28030E-01 2.72341E-25
8.31310E-01 2.66069E-25
8.34565E-01 2.59938E-25
8.37795E-01 2.53944E-25
8.40999E-01 2.48083E-25
8.44177E-01 2.42352E-25
8.47329E-01 2.36749E-25
8.50455E-01 2.31271E-25
8.53553E-01 2.25915E-25
8.56625E-01 2.20678E-25
8.59670E-01 2.15557E-25
8.62687E-01 2.10550E-25
8.65677E-01 2.05655E-25
8.68639E-01 2.00868E-25
8.71572E-01 1.96189E-25
8.74478E-01 1.91613E-25
8.77355E-01 1.87140E-25
8.80203E-01 1.82766E-25
8.83022E-01 1.78490E-25
8.85812E-01 1.74310E-25
8.88573E-01 1.70224E-25
8.91304E-01 1.66230E-25
8.94005E-01 1.62325E-25
8.96677E-01 1.58508E-25
8.99318E-01 1.54778E-25
9.01928E-01 1.51132E-25
9.04508E-01 1.47569E-25
9.07058E-01 1.44087E-25
9.09576E-01 1.40685E-25
9.12063E-01 1.37360E-25
9.14519E-01 1.34112E-25
9.16943E-01 1.30939E-25
9.19335E-01 1.27840E-25
9.21696E-01 1.24812E-25
9.24024E-01 1.21856E-25
9.26320E-01 1.18969E-25
9.28584E-01 1.16150E-25
9.30815E-01 1.13398E-25
9.33013E-01 1.10712E-25
9.35178E-01 1.08090E-25
9.37310E-01 1.05532E-25
9.39409E-01 1.03036E-25
9.41474E-01 1.00601E-25
9.43505E-01 9.82260E-26
9.45503E-01 9.59104E-26
9.47467E-01 9.36528E-26
9.49397E-01 9.14524E-26
9.51293E-01 8.93082E-26
9.53154E-01 8.72193E-26
9.54981E-01 8.51848E-26
9.56773E-01 8.32039E-26
9.58530E-01 8.12757E-26
9.60252E-01 7.93994E-26
9.61940E-01 7.75742E-26
9.63592E-01 7.57994E-26
9.65209E-01 7.40743E-26
9.66790E-01 7.23981E-26
9.68336E-01 7.07700E-26
9.69846E-01 6.91896E-26
9.71321E-01 6.76561E-26
9.72759E-01 6.61688E-26
9.74162E-01 6.47272E-26
9.75528E-01 6.33307E-26
9.76858E-01 6.19788E-26
9.78152E-01 6.06708E-26
9.79410E-01 5.94063E-26
9.80631E-01 5.81847E-26
9.81815E-01 5.70055E-26
9.82963E-01 5.58683E-26
9.84074E-01 5.47727E-26
9.85148E-01 5.37181E-26
9.86185E-01 5.27042E-26
9.87185E-01 5.17305E-26
9.88148E-01 5.07967E-26
9.89074E-01 4.99025E-26
9.89962E-01 4.90473E-26
9.90814E-01 4.82310E-26
9.91627E-01 4.74532E-26
9.92404E-01 4.67135E-26
9.93143E-01 4.60118E-26
9.93844E-01 4.53476E-26
9.94508E-01 4.47208E-26
9.95134E-01 4.41311E-26
9.95722E-01 4.35783E-26
9.96273E-01 4.30622E-26
9.96786E-01 4.25825E-26
9.97261E-01 4.21391E-26
9.97698E-01 4.17318E-26
9.98097E-01 4.13605E-26
9.98459E-01 4.10249E-26
9.98782E-01 4.07250E-26
9.99067E-01 4.04607E-26
9.99315E-01 4.02318E-26
9.99524E-01 4.00383E-26
9.99695E-01 3.98801E-26
9.99829E-01 3.97571E-26
9.99924E-01 3.96693E-26
9.99981E-01 3.96166E-26
1.00000E+00 3.95990E-26
