 #
 # Subroutine ELSEPA. Elastic scattering of electrons and positrons
 #                    by neutral atoms and positive ions
 #
 # Projectile: positron
 # Kinetic energy = 1.75000E+08 eV = 6.43113E+06 a.u.
 #
 # WARNING: High-energy factorization with free-atom DF screening.
 #          Absorption, polarization and exchange corrections are
 #          switched off.
 #          Phase shifts are calculated for the bare nucleus.
 #          Scattering amplitudes are not evaluated.
 #
 # Element: Rh,  Z =  45,  atomic weight = 1.02906E+02 g/mol
 #
 # Nuclear model: Fermi distribution
 #                Average radius = 5.01414E-13 cm
 #                Skin thickness = 5.46000E-14 cm
 #
 # Number of electrons = 45
 #
 # Total elastic cross section = 4.21116E-18 cm**2 = 1.50383E-01 a0**2
 # 1st transport cross section = 1.28840E-25 cm**2 = 4.60096E-09 a0**2
 # 2nd transport cross section = 3.85197E-25 cm**2 = 1.37556E-08 a0**2
 #
 #
 # Differential cross section:                       MU=(1-COS(THETA))/2
 #
 #  THETA        MU          DCS          DCS        Sherman      error
 #  (deg)                 (cm**2/sr)   (a0**2/sr)    function
 #----------------------------------------------------------------------
0.00000E+00 9.78068E-10
7.61557E-13 9.70856E-10
1.18994E-12 9.66850E-10
1.71346E-12 9.61998E-10
2.33225E-12 9.56324E-10
3.04617E-12 9.49857E-10
3.85530E-12 9.42629E-10
4.75964E-12 9.34674E-10
5.75917E-12 9.26031E-10
6.85391E-12 9.16739E-10
8.04379E-12 9.06811E-10
9.32893E-12 8.96319E-10
1.07092E-11 8.85359E-10
1.21847E-11 8.73914E-10
1.37554E-11 8.61984E-10
1.54213E-11 8.49736E-10
1.71823E-11 8.37164E-10
1.90386E-11 8.24196E-10
2.09900E-11 8.11055E-10
2.30367E-11 7.97756E-10
2.51785E-11 7.84131E-10
2.74156E-11 7.70465E-10
2.97478E-11 7.56795E-10
3.21752E-11 7.42860E-10
3.46979E-11 7.28991E-10
3.73157E-11 7.15223E-10
4.00286E-11 7.01306E-10
4.28368E-11 6.87503E-10
4.57402E-11 6.73884E-10
4.87388E-11 6.60221E-10
5.18325E-11 6.46697E-10
5.50215E-11 6.33417E-10
5.83057E-11 6.20188E-10
6.16850E-11 6.07102E-10
6.51595E-11 5.94302E-10
6.87293E-11 5.81632E-10
7.23943E-11 5.69093E-10
7.61544E-11 5.56867E-10
1.18991E-10 4.46300E-10
1.71347E-10 3.57373E-10
2.33223E-10 2.87236E-10
3.04617E-10 2.32022E-10
3.85531E-10 1.88379E-10
4.75965E-10 1.53695E-10
5.75917E-10 1.25946E-10
6.85389E-10 1.03690E-10
8.04380E-10 8.50906E-11
9.32891E-10 7.02716E-11
1.07092E-09 5.90188E-11
1.21847E-09 4.97941E-11
1.37554E-09 4.18189E-11
1.54213E-09 3.55644E-11
1.71823E-09 3.04715E-11
1.90386E-09 2.60497E-11
2.09900E-09 2.24833E-11
2.30367E-09 1.95565E-11
2.51785E-09 1.70100E-11
2.74156E-09 1.49063E-11
2.97478E-09 1.31541E-11
3.21752E-09 1.16214E-11
3.46978E-09 1.03287E-11
3.73156E-09 9.23156E-12
4.00286E-09 8.26764E-12
4.28368E-09 7.43711E-12
4.57402E-09 6.72113E-12
4.87388E-09 6.08572E-12
5.18326E-09 5.52818E-12
5.50215E-09 5.04127E-12
5.83057E-09 4.60480E-12
6.16850E-09 4.21524E-12
6.51596E-09 3.87137E-12
6.87293E-09 3.56085E-12
7.23942E-09 3.27921E-12
7.61544E-09 3.02838E-12
1.18991E-08 1.46466E-12
1.71347E-08 7.77874E-13
2.33223E-08 4.44490E-13
3.04617E-08 2.70973E-13
3.85531E-08 1.74549E-13
4.75965E-08 1.17698E-13
5.75917E-08 8.24301E-14
6.85389E-08 5.95289E-14
8.04380E-08 4.40607E-14
9.32891E-08 3.33427E-14
1.07092E-07 2.56944E-14
1.21847E-07 2.00967E-14
1.37554E-07 1.59407E-14
1.54213E-07 1.28015E-14
1.71823E-07 1.03946E-14
1.90386E-07 8.52495E-15
2.09900E-07 7.05326E-15
2.30367E-07 5.88497E-15
2.51785E-07 4.94823E-15
2.74156E-07 4.19022E-15
2.97478E-07 3.57159E-15
3.21752E-07 3.06254E-15
3.46978E-07 2.64102E-15
3.73156E-07 2.28958E-15
4.00286E-07 1.99471E-15
4.28368E-07 1.74584E-15
4.57402E-07 1.53455E-15
4.87388E-07 1.35432E-15
5.18325E-07 1.19982E-15
5.50215E-07 1.06677E-15
5.83057E-07 9.51695E-16
6.16850E-07 8.51718E-16
6.51596E-07 7.64554E-16
6.87293E-07 6.88279E-16
7.23942E-07 6.21299E-16
7.61543E-07 5.62283E-16
1.18991E-06 2.33067E-16
1.71347E-06 1.13320E-16
2.33223E-06 6.15121E-17
3.04617E-06 3.61978E-17
3.85531E-06 2.26598E-17
4.75964E-06 1.48960E-17
5.75916E-06 1.01883E-17
6.85388E-06 7.20097E-18
8.04378E-06 5.23196E-18
9.32888E-06 3.89192E-18
1.07092E-05 2.95452E-18
1.21846E-05 2.28296E-18
1.37553E-05 1.79173E-18
1.54212E-05 1.42574E-18
1.71822E-05 1.14857E-18
1.90385E-05 9.35360E-19
2.09899E-05 7.69753E-19
2.30365E-05 6.39170E-19
2.51783E-05 5.35063E-19
2.74153E-05 4.51252E-19
2.97475E-05 3.83192E-19
3.21749E-05 3.27485E-19
3.46974E-05 2.81551E-19
3.73152E-05 2.43408E-19
4.00281E-05 2.11522E-19
4.28362E-05 1.84694E-19
4.57395E-05 1.61985E-19
4.87380E-05 1.42656E-19
5.18317E-05 1.26119E-19
5.50205E-05 1.11906E-19
5.83045E-05 9.96366E-20
6.16838E-05 8.90033E-20
6.51582E-05 7.97522E-20
6.87277E-05 7.16737E-20
7.23925E-05 6.45935E-20
7.61524E-05 5.84047E-20
9.21439E-05 3.98718E-20
1.09658E-04 2.81364E-20
1.28695E-04 2.04175E-20
1.49255E-04 1.51706E-20
1.71338E-04 1.15056E-20
1.94942E-04 8.88236E-21
2.20070E-04 6.96536E-21
2.46720E-04 5.53830E-21
2.74892E-04 4.45825E-21
3.04586E-04 3.62886E-21
3.35803E-04 2.98338E-21
3.68542E-04 2.47507E-21
4.02802E-04 2.07039E-21
4.38585E-04 1.74498E-21
4.75889E-04 1.48096E-21
5.14715E-04 1.26492E-21
5.55063E-04 1.08680E-21
5.96931E-04 9.38882E-22
6.40321E-04 8.15225E-22
6.85233E-04 7.11216E-22
7.31665E-04 6.23226E-22
7.79618E-04 5.48391E-22
8.29092E-04 4.84419E-22
8.80086E-04 4.29476E-22
9.32601E-04 3.82075E-22
9.86636E-04 3.41010E-22
1.04219E-03 3.05293E-22
1.09927E-03 2.74110E-22
1.15786E-03 2.46789E-22
1.21797E-03 2.22771E-22
1.27961E-03 2.01589E-22
1.34276E-03 1.82851E-22
1.40743E-03 1.66227E-22
1.47362E-03 1.51438E-22
1.54133E-03 1.38247E-22
1.61056E-03 1.26451E-22
1.68131E-03 1.15878E-22
1.75357E-03 1.06378E-22
1.82735E-03 9.78249E-23
1.90265E-03 9.01067E-23
1.97947E-03 8.31283E-23
2.05780E-03 7.68064E-23
2.13765E-03 7.10685E-23
2.21902E-03 6.58512E-23
2.30190E-03 6.10991E-23
2.38630E-03 5.67634E-23
2.47222E-03 5.28013E-23
2.55965E-03 4.91750E-23
2.64859E-03 4.58510E-23
2.73905E-03 4.27997E-23
2.83103E-03 3.99949E-23
2.92452E-03 3.74130E-23
3.01952E-03 3.50333E-23
3.11604E-03 3.28372E-23
3.21407E-03 3.08079E-23
3.31362E-03 2.89307E-23
3.41468E-03 2.71921E-23
3.51725E-03 2.55801E-23
3.62133E-03 2.40838E-23
3.72692E-03 2.26935E-23
3.83403E-03 2.14003E-23
3.94265E-03 2.01963E-23
4.05278E-03 1.90742E-23
4.16442E-03 1.80275E-23
4.27757E-03 1.70503E-23
4.39223E-03 1.61370E-23
4.50840E-03 1.52828E-23
4.62608E-03 1.44832E-23
4.74527E-03 1.37341E-23
4.86597E-03 1.30318E-23
4.98817E-03 1.23727E-23
5.11188E-03 1.17538E-23
5.23711E-03 1.11722E-23
5.36383E-03 1.06253E-23
5.49207E-03 1.01106E-23
5.62181E-03 9.62591E-24
5.75306E-03 9.16915E-24
5.88581E-03 8.73844E-24
6.02007E-03 8.33204E-24
6.15583E-03 7.94834E-24
6.29310E-03 7.58585E-24
6.43187E-03 7.24318E-24
6.57214E-03 6.91908E-24
6.71392E-03 6.61235E-24
6.85720E-03 6.32191E-24
7.00198E-03 6.04675E-24
7.14827E-03 5.78591E-24
7.29605E-03 5.53852E-24
7.44534E-03 5.30378E-24
7.59612E-03 5.08092E-24
7.97965E-03 4.57125E-24
8.37255E-03 4.12181E-24
8.77480E-03 3.72435E-24
9.18641E-03 3.37194E-24
9.60736E-03 3.05867E-24
1.00376E-02 2.77951E-24
1.04773E-02 2.53018E-24
1.09262E-02 2.30700E-24
1.13844E-02 2.10680E-24
1.18520E-02 1.92686E-24
1.23288E-02 1.76481E-24
1.28150E-02 1.61859E-24
1.33104E-02 1.48644E-24
1.38150E-02 1.36679E-24
1.43290E-02 1.25829E-24
1.48521E-02 1.15973E-24
1.53845E-02 1.07008E-24
1.59262E-02 9.88404E-25
1.64770E-02 9.13895E-25
1.70371E-02 8.45832E-25
1.76063E-02 7.83575E-25
1.81848E-02 7.26558E-25
1.87724E-02 6.74278E-25
1.93692E-02 6.26285E-25
1.99751E-02 5.82178E-25
2.05901E-02 5.41598E-25
2.12143E-02 5.04224E-25
2.18476E-02 4.69769E-25
2.24900E-02 4.37972E-25
2.31415E-02 4.08602E-25
2.38021E-02 3.81449E-25
2.44717E-02 3.56322E-25
2.51504E-02 3.33051E-25
2.58382E-02 3.11482E-25
2.65349E-02 2.91472E-25
2.72407E-02 2.72896E-25
2.79555E-02 2.55638E-25
2.86793E-02 2.39592E-25
2.94120E-02 2.24663E-25
3.01537E-02 2.10763E-25
3.09043E-02 1.97814E-25
3.16639E-02 1.85742E-25
3.24324E-02 1.74481E-25
3.32098E-02 1.63970E-25
3.39961E-02 1.54153E-25
3.47912E-02 1.44980E-25
3.55952E-02 1.36403E-25
3.64081E-02 1.28380E-25
3.72297E-02 1.20871E-25
3.80602E-02 1.13838E-25
3.88995E-02 1.07250E-25
3.97476E-02 1.01074E-25
4.06044E-02 9.52833E-26
4.14700E-02 8.98501E-26
4.23443E-02 8.47507E-26
4.32273E-02 7.99623E-26
4.41190E-02 7.54644E-26
4.50194E-02 7.12375E-26
4.59284E-02 6.72638E-26
4.68461E-02 6.35267E-26
4.87074E-02 5.67023E-26
5.06030E-02 5.06538E-26
5.25328E-02 4.52862E-26
5.44967E-02 4.05169E-26
5.64946E-02 3.62744E-26
5.85262E-02 3.24963E-26
6.05914E-02 2.91285E-26
6.26901E-02 2.61234E-26
6.48222E-02 2.34397E-26
6.69873E-02 2.10410E-26
6.91854E-02 1.88952E-26
7.14163E-02 1.69744E-26
7.36799E-02 1.52538E-26
7.59760E-02 1.37115E-26
7.83043E-02 1.23283E-26
8.06647E-02 1.10870E-26
8.30571E-02 9.97254E-27
8.54812E-02 8.97153E-27
8.79369E-02 8.07201E-27
9.04240E-02 7.26339E-27
9.29422E-02 6.53623E-27
9.54915E-02 5.88213E-27
9.80716E-02 5.29357E-27
1.00682E-01 4.76387E-27
1.03323E-01 4.28703E-27
1.05995E-01 3.85771E-27
1.08696E-01 3.47111E-27
1.11427E-01 3.12294E-27
1.14188E-01 2.80936E-27
1.16978E-01 2.52690E-27
1.19797E-01 2.27247E-27
1.22645E-01 2.04329E-27
1.25522E-01 1.83686E-27
1.28428E-01 1.65092E-27
1.31361E-01 1.48346E-27
1.34323E-01 1.33265E-27
1.37313E-01 1.19685E-27
1.40330E-01 1.07459E-27
1.43375E-01 9.64538E-28
1.46447E-01 8.65489E-28
1.49545E-01 7.76364E-28
1.52671E-01 6.96189E-28
1.55823E-01 6.24083E-28
1.59001E-01 5.59252E-28
1.62205E-01 5.00980E-28
1.65435E-01 4.48621E-28
1.68690E-01 4.01591E-28
1.71970E-01 3.59363E-28
1.75276E-01 3.21462E-28
1.78606E-01 2.87457E-28
1.81961E-01 2.56963E-28
1.85340E-01 2.29627E-28
1.88743E-01 2.05136E-28
1.92169E-01 1.83203E-28
1.95619E-01 1.63572E-28
1.99092E-01 1.46010E-28
2.02589E-01 1.30307E-28
2.06107E-01 1.16274E-28
2.09649E-01 1.03741E-28
2.13212E-01 9.25546E-29
2.16797E-01 8.25755E-29
2.20404E-01 7.36790E-29
2.24032E-01 6.57526E-29
2.27680E-01 5.86949E-29
2.31350E-01 5.24146E-29
2.35040E-01 4.68297E-29
2.38751E-01 4.18662E-29
2.42481E-01 3.74577E-29
2.46231E-01 3.35447E-29
2.50000E-01 3.00733E-29
2.53788E-01 2.69956E-29
2.57595E-01 2.42684E-29
2.61421E-01 2.18528E-29
2.65264E-01 1.97144E-29
2.69126E-01 1.78219E-29
2.73005E-01 1.61476E-29
2.76901E-01 1.46667E-29
2.80814E-01 1.33569E-29
2.84744E-01 1.21985E-29
2.88691E-01 1.11738E-29
2.92653E-01 1.02671E-29
2.96632E-01 9.46433E-30
3.00625E-01 8.75304E-30
3.04634E-01 8.12221E-30
3.08658E-01 7.56200E-30
3.12697E-01 7.06374E-30
3.16749E-01 6.61973E-30
3.20816E-01 6.22317E-30
3.24896E-01 5.86808E-30
3.28990E-01 5.54917E-30
3.33097E-01 5.26179E-30
3.37216E-01 5.00187E-30
3.41348E-01 4.76582E-30
3.45492E-01 4.55053E-30
3.49647E-01 4.35325E-30
3.53814E-01 4.17161E-30
3.57992E-01 4.00354E-30
3.62181E-01 3.84725E-30
3.66381E-01 3.70118E-30
3.70590E-01 3.56400E-30
3.74810E-01 3.43456E-30
3.79039E-01 3.31187E-30
3.83277E-01 3.19509E-30
3.87524E-01 3.08350E-30
3.91780E-01 2.97650E-30
3.96044E-01 2.87358E-30
4.00316E-01 2.77429E-30
4.04596E-01 2.67829E-30
4.08882E-01 2.58528E-30
4.13176E-01 2.49500E-30
4.17476E-01 2.40726E-30
4.21783E-01 2.32189E-30
4.26095E-01 2.23875E-30
4.30413E-01 2.15775E-30
4.34737E-01 2.07879E-30
4.39065E-01 2.00181E-30
4.43398E-01 1.92676E-30
4.47736E-01 1.85360E-30
4.52077E-01 1.78229E-30
4.56422E-01 1.71281E-30
4.60770E-01 1.64515E-30
4.65122E-01 1.57928E-30
4.69476E-01 1.51520E-30
4.73832E-01 1.45290E-30
4.78190E-01 1.39237E-30
4.82550E-01 1.33359E-30
4.86912E-01 1.27656E-30
4.91274E-01 1.22127E-30
4.95637E-01 1.16770E-30
5.00000E-01 1.11584E-30
5.04363E-01 1.06567E-30
5.08726E-01 1.01718E-30
5.13088E-01 9.70339E-31
5.17450E-01 9.25135E-31
5.21810E-01 8.81542E-31
5.26168E-01 8.39534E-31
5.30524E-01 7.99084E-31
5.34878E-01 7.60165E-31
5.39230E-01 7.22746E-31
5.43578E-01 6.86795E-31
5.47923E-01 6.52282E-31
5.52264E-01 6.19171E-31
5.56602E-01 5.87429E-31
5.60935E-01 5.57020E-31
5.65263E-01 5.27909E-31
5.69587E-01 5.00059E-31
5.73905E-01 4.73434E-31
5.78217E-01 4.47997E-31
5.82524E-01 4.23710E-31
5.86824E-01 4.00537E-31
5.91118E-01 3.78442E-31
5.95404E-01 3.57386E-31
5.99684E-01 3.37334E-31
6.03956E-01 3.18249E-31
6.08220E-01 3.00097E-31
6.12476E-01 2.82841E-31
6.16723E-01 2.66447E-31
6.20961E-01 2.50882E-31
6.25190E-01 2.36112E-31
6.29410E-01 2.22104E-31
6.33619E-01 2.08827E-31
6.37819E-01 1.96250E-31
6.42008E-01 1.84342E-31
6.46186E-01 1.73074E-31
6.50353E-01 1.62417E-31
6.54508E-01 1.52345E-31
6.58652E-01 1.42829E-31
6.62784E-01 1.33844E-31
6.66903E-01 1.25365E-31
6.71010E-01 1.17368E-31
6.75104E-01 1.09829E-31
6.79184E-01 1.02726E-31
6.83251E-01 9.60370E-32
6.87303E-01 8.97411E-32
6.91342E-01 8.38185E-32
6.95366E-01 7.82499E-32
6.99375E-01 7.30168E-32
7.03368E-01 6.81016E-32
7.07347E-01 6.34874E-32
7.11309E-01 5.91579E-32
7.15256E-01 5.50978E-32
7.19186E-01 5.12922E-32
7.23099E-01 4.77271E-32
7.26995E-01 4.43890E-32
7.30874E-01 4.12650E-32
7.34736E-01 3.83430E-32
7.38579E-01 3.56115E-32
7.42405E-01 3.30592E-32
7.46212E-01 3.06758E-32
7.50000E-01 2.84512E-32
7.53769E-01 2.63760E-32
7.57519E-01 2.44412E-32
7.61249E-01 2.26383E-32
7.64960E-01 2.09592E-32
7.68650E-01 1.93964E-32
7.72320E-01 1.79425E-32
7.75968E-01 1.65908E-32
7.79596E-01 1.53348E-32
7.83203E-01 1.41683E-32
7.86788E-01 1.30857E-32
7.90351E-01 1.20815E-32
7.93893E-01 1.11505E-32
7.97411E-01 1.02880E-32
8.00908E-01 9.48937E-33
8.04381E-01 8.75037E-33
8.07831E-01 8.06696E-33
8.11257E-01 7.43534E-33
8.14660E-01 6.85197E-33
8.18039E-01 6.31349E-33
8.21394E-01 5.81678E-33
8.24724E-01 5.35888E-33
8.28030E-01 4.93704E-33
8.31310E-01 4.54866E-33
8.34565E-01 4.19133E-33
8.37795E-01 3.86278E-33
8.40999E-01 3.56089E-33
8.44177E-01 3.28367E-33
8.47329E-01 3.02927E-33
8.50455E-01 2.79597E-33
8.53553E-01 2.58215E-33
8.56625E-01 2.38630E-33
8.59670E-01 2.20702E-33
8.62687E-01 2.04301E-33
8.65677E-01 1.89304E-33
8.68639E-01 1.75599E-33
8.71572E-01 1.63081E-33
8.74478E-01 1.51651E-33
8.77355E-01 1.41220E-33
8.80203E-01 1.31704E-33
8.83022E-01 1.23024E-33
8.85812E-01 1.15109E-33
8.88573E-01 1.07891E-33
8.91304E-01 1.01309E-33
8.94005E-01 9.53068E-34
8.96677E-01 8.98313E-34
8.99318E-01 8.48337E-34
9.01928E-01 8.02704E-34
9.04508E-01 7.60995E-34
9.07058E-01 7.22839E-34
9.09576E-01 6.87887E-34
9.12063E-01 6.55823E-34
9.14519E-01 6.26358E-34
9.16943E-01 5.99227E-34
9.19335E-01 5.74188E-34
9.21696E-01 5.51020E-34
9.24024E-01 5.29522E-34
9.26320E-01 5.09511E-34
9.28584E-01 4.90823E-34
9.30815E-01 4.73311E-34
9.33013E-01 4.56832E-34
9.35178E-01 4.41272E-34
9.37310E-01 4.26519E-34
9.39409E-01 4.12474E-34
9.41474E-01 3.99051E-34
9.43505E-01 3.86171E-34
9.45503E-01 3.73767E-34
9.47467E-01 3.61776E-34
9.49397E-01 3.50144E-34
9.51293E-01 3.38831E-34
9.53154E-01 3.27786E-34
9.54981E-01 3.16980E-34
9.56773E-01 3.06383E-34
9.58530E-01 2.95972E-34
9.60252E-01 2.85718E-34
9.61940E-01 2.75612E-34
9.63592E-01 2.65639E-34
9.65209E-01 2.55787E-34
9.66790E-01 2.46047E-34
9.68336E-01 2.36413E-34
9.69846E-01 2.26888E-34
9.71321E-01 2.17464E-34
9.72759E-01 2.08146E-34
9.74162E-01 1.98934E-34
9.75528E-01 1.89835E-34
9.76858E-01 1.80847E-34
9.78152E-01 1.71985E-34
9.79410E-01 1.63244E-34
9.80631E-01 1.54641E-34
9.81815E-01 1.46177E-34
9.82963E-01 1.37863E-34
9.84074E-01 1.29713E-34
9.85148E-01 1.21727E-34
9.86185E-01 1.13919E-34
9.87185E-01 1.06297E-34
9.88148E-01 9.88712E-35
9.89074E-01 9.16513E-35
9.89962E-01 8.46447E-35
9.90814E-01 7.78613E-35
9.91627E-01 7.13108E-35
9.92404E-01 6.50014E-35
9.93143E-01 5.89402E-35
9.93844E-01 5.31389E-35
9.94508E-01 4.76030E-35
9.95134E-01 4.23404E-35
9.95722E-01 3.73599E-35
9.96273E-01 3.26656E-35
9.96786E-01 2.82670E-35
9.97261E-01 2.41679E-35
9.97698E-01 2.03758E-35
9.98097E-01 1.68957E-35
9.98459E-01 1.37319E-35
9.98782E-01 1.08885E-35
9.99067E-01 8.37092E-36
9.99315E-01 6.18064E-36
9.99524E-01 4.32292E-36
9.99695E-01 2.79969E-36
9.99829E-01 1.61225E-36
9.99924E-01 7.62559E-37
9.99981E-01 2.52568E-37
1.00000E+00 8.30344E-38
