 #
 # Subroutine ELSEPA. Elastic scattering of electrons and positrons
 #                    by neutral atoms and positive ions
 #
 # Projectile: positron
 # Kinetic energy = 1.00000E+07 eV = 3.67493E+05 a.u.
 #
 # WARNING: High-energy factorization with free-atom DF screening.
 #          Absorption, polarization and exchange corrections are
 #          switched off.
 #          Phase shifts are calculated for the bare nucleus.
 #          Scattering amplitudes are not evaluated.
 #
 # Element: Rh,  Z =  45,  atomic weight = 1.02906E+02 g/mol
 #
 # Nuclear model: Fermi distribution
 #                Average radius = 5.01414E-13 cm
 #                Skin thickness = 5.46000E-14 cm
 #
 # Number of electrons = 45
 #
 # Total elastic cross section = 4.22136E-18 cm**2 = 1.50748E-01 a0**2
 # 1st transport cross section = 2.71869E-23 cm**2 = 9.70861E-07 a0**2
 # 2nd transport cross section = 7.87144E-23 cm**2 = 2.81094E-06 a0**2
 #
 #
 # Differential cross section:                       MU=(1-COS(THETA))/2
 #
 #  THETA        MU          DCS          DCS        Sherman      error
 #  (deg)                 (cm**2/sr)   (a0**2/sr)    function
 #----------------------------------------------------------------------
0.00000E+00 3.50791E-12
7.61557E-13 3.50781E-12
1.18994E-12 3.50776E-12
1.71346E-12 3.50769E-12
2.33225E-12 3.50761E-12
3.04617E-12 3.50752E-12
3.85530E-12 3.50742E-12
4.75964E-12 3.50731E-12
5.75917E-12 3.50719E-12
6.85391E-12 3.50705E-12
8.04379E-12 3.50691E-12
9.32893E-12 3.50675E-12
1.07092E-11 3.50658E-12
1.21847E-11 3.50640E-12
1.37554E-11 3.50620E-12
1.54213E-11 3.50600E-12
1.71823E-11 3.50578E-12
1.90386E-11 3.50555E-12
2.09900E-11 3.50531E-12
2.30367E-11 3.50506E-12
2.51785E-11 3.50480E-12
2.74156E-11 3.50453E-12
2.97478E-11 3.50424E-12
3.21752E-11 3.50394E-12
3.46979E-11 3.50363E-12
3.73157E-11 3.50331E-12
4.00286E-11 3.50298E-12
4.28368E-11 3.50264E-12
4.57402E-11 3.50228E-12
4.87388E-11 3.50192E-12
5.18325E-11 3.50154E-12
5.50215E-11 3.50115E-12
5.83057E-11 3.50075E-12
6.16850E-11 3.50034E-12
6.51595E-11 3.49991E-12
6.87293E-11 3.49948E-12
7.23943E-11 3.49903E-12
7.61544E-11 3.49857E-12
1.18991E-10 3.49336E-12
1.71347E-10 3.48702E-12
2.33223E-10 3.47955E-12
3.04617E-10 3.47098E-12
3.85531E-10 3.46131E-12
4.75965E-10 3.45057E-12
5.75917E-10 3.43877E-12
6.85389E-10 3.42594E-12
8.04380E-10 3.41209E-12
9.32891E-10 3.39726E-12
1.07092E-09 3.38147E-12
1.21847E-09 3.36475E-12
1.37554E-09 3.34712E-12
1.54213E-09 3.32862E-12
1.71823E-09 3.30927E-12
1.90386E-09 3.28911E-12
2.09900E-09 3.26815E-12
2.30367E-09 3.24634E-12
2.51785E-09 3.22387E-12
2.74156E-09 3.20078E-12
2.97478E-09 3.17711E-12
3.21752E-09 3.15291E-12
3.46978E-09 3.12786E-12
3.73156E-09 3.10229E-12
4.00286E-09 3.07631E-12
4.28368E-09 3.04993E-12
4.57402E-09 3.02321E-12
4.87388E-09 2.99586E-12
5.18326E-09 2.96806E-12
5.50215E-09 2.94002E-12
5.83057E-09 2.91178E-12
6.16850E-09 2.88337E-12
6.51596E-09 2.85459E-12
6.87293E-09 2.82536E-12
7.23942E-09 2.79607E-12
7.61544E-09 2.76674E-12
1.18991E-08 2.47009E-12
1.71347E-08 2.18231E-12
2.33223E-08 1.91654E-12
3.04617E-08 1.67851E-12
3.85531E-08 1.46915E-12
4.75965E-08 1.28678E-12
5.75917E-08 1.12860E-12
6.85389E-08 9.91447E-13
8.04380E-08 8.72449E-13
9.32891E-08 7.69137E-13
1.07092E-07 6.79275E-13
1.21847E-07 6.00960E-13
1.37554E-07 5.32582E-13
1.54213E-07 4.72774E-13
1.71823E-07 4.20379E-13
1.90386E-07 3.74411E-13
2.09900E-07 3.33694E-13
2.30367E-07 2.95538E-13
2.51785E-07 2.63463E-13
2.74156E-07 2.36323E-13
2.97478E-07 2.13214E-13
3.21752E-07 1.93420E-13
3.46978E-07 1.73735E-13
3.73156E-07 1.56449E-13
4.00286E-07 1.41531E-13
4.28368E-07 1.28594E-13
4.57402E-07 1.17322E-13
4.87388E-07 1.06772E-13
5.18325E-07 9.71793E-14
5.50215E-07 8.87572E-14
5.83057E-07 8.13352E-14
6.16850E-07 7.47705E-14
6.51596E-07 6.87872E-14
6.87293E-07 6.32596E-14
7.23942E-07 5.83352E-14
7.61543E-07 5.39349E-14
1.18991E-06 2.69072E-14
1.71347E-06 1.52491E-14
2.33223E-06 9.37654E-15
3.04617E-06 6.07081E-15
3.85531E-06 4.07505E-15
4.75964E-06 2.81632E-15
5.75916E-06 1.99734E-15
6.85388E-06 1.45075E-15
8.04378E-06 1.07804E-15
9.32888E-06 8.17752E-16
1.07092E-05 6.31777E-16
1.21846E-05 4.96177E-16
1.37553E-05 3.95476E-16
1.54212E-05 3.19375E-16
1.71822E-05 2.60906E-16
1.90385E-05 2.15262E-16
2.09899E-05 1.79289E-16
2.30365E-05 1.50468E-16
2.51783E-05 1.27361E-16
2.74153E-05 1.08369E-16
2.97475E-05 9.28756E-17
3.21749E-05 7.99670E-17
3.46974E-05 6.92679E-17
3.73152E-05 6.02598E-17
4.00281E-05 5.26877E-17
4.28362E-05 4.62458E-17
4.57395E-05 4.07616E-17
4.87380E-05 3.60549E-17
5.18317E-05 3.20056E-17
5.50205E-05 2.85035E-17
5.83045E-05 2.54641E-17
6.16838E-05 2.28179E-17
6.51582E-05 2.05041E-17
6.87277E-05 1.84769E-17
7.23925E-05 1.66920E-17
7.61524E-05 1.51183E-17
9.21439E-05 1.04019E-17
1.09658E-04 7.38685E-18
1.28695E-04 5.38915E-18
1.49255E-04 4.02317E-18
1.71338E-04 3.06414E-18
1.94942E-04 2.37464E-18
2.20070E-04 1.86871E-18
2.46720E-04 1.49066E-18
2.74892E-04 1.20354E-18
3.04586E-04 9.82336E-19
3.35803E-04 8.09663E-19
3.68542E-04 6.73296E-19
4.02802E-04 5.64439E-19
4.38585E-04 4.76690E-19
4.75889E-04 4.05329E-19
5.14715E-04 3.46812E-19
5.55063E-04 2.98469E-19
5.96931E-04 2.58246E-19
6.40321E-04 2.24564E-19
6.85233E-04 1.96187E-19
7.31665E-04 1.72143E-19
7.79618E-04 1.51665E-19
8.29092E-04 1.34136E-19
8.80086E-04 1.19061E-19
9.32601E-04 1.06041E-19
9.86636E-04 9.47476E-20
1.04219E-03 8.49149E-20
1.09927E-03 7.63217E-20
1.15786E-03 6.87857E-20
1.21797E-03 6.21546E-20
1.27961E-03 5.63015E-20
1.34276E-03 5.11194E-20
1.40743E-03 4.65183E-20
1.47362E-03 4.24220E-20
1.54133E-03 3.87654E-20
1.61056E-03 3.54932E-20
1.68131E-03 3.25581E-20
1.75357E-03 2.99192E-20
1.82735E-03 2.75416E-20
1.90265E-03 2.53948E-20
1.97947E-03 2.34524E-20
2.05780E-03 2.16917E-20
2.13765E-03 2.00925E-20
2.21902E-03 1.86376E-20
2.30190E-03 1.73117E-20
2.38630E-03 1.61011E-20
2.47222E-03 1.49942E-20
2.55965E-03 1.39805E-20
2.64859E-03 1.30507E-20
2.73905E-03 1.21967E-20
2.83103E-03 1.14111E-20
2.92452E-03 1.06875E-20
3.01952E-03 1.00203E-20
3.11604E-03 9.40405E-21
3.21407E-03 8.83430E-21
3.31362E-03 8.30690E-21
3.41468E-03 7.81813E-21
3.51725E-03 7.36465E-21
3.62133E-03 6.94345E-21
3.72692E-03 6.55181E-21
3.83403E-03 6.18729E-21
3.94265E-03 5.84768E-21
4.05278E-03 5.53096E-21
4.16442E-03 5.23530E-21
4.27757E-03 4.95906E-21
4.39223E-03 4.70072E-21
4.50840E-03 4.45892E-21
4.62608E-03 4.23240E-21
4.74527E-03 4.02003E-21
4.86597E-03 3.82075E-21
4.98817E-03 3.63362E-21
5.11188E-03 3.45775E-21
5.23711E-03 3.29235E-21
5.36383E-03 3.13667E-21
5.49207E-03 2.99005E-21
5.62181E-03 2.85186E-21
5.75306E-03 2.72152E-21
5.88581E-03 2.59851E-21
6.02007E-03 2.48234E-21
6.15583E-03 2.37256E-21
6.29310E-03 2.26875E-21
6.43187E-03 2.17053E-21
6.57214E-03 2.07754E-21
6.71392E-03 1.98945E-21
6.85720E-03 1.90597E-21
7.00198E-03 1.82679E-21
7.14827E-03 1.75166E-21
7.29605E-03 1.68033E-21
7.44534E-03 1.61258E-21
7.59612E-03 1.54819E-21
7.97965E-03 1.40067E-21
8.37255E-03 1.27022E-21
8.77480E-03 1.15453E-21
9.18641E-03 1.05166E-21
9.60736E-03 9.59926E-22
1.00376E-02 8.77929E-22
1.04773E-02 8.04456E-22
1.09262E-02 7.38467E-22
1.13844E-02 6.79070E-22
1.18520E-02 6.25492E-22
1.23288E-02 5.77064E-22
1.28150E-02 5.33205E-22
1.33104E-02 4.93409E-22
1.38150E-02 4.57234E-22
1.43290E-02 4.24293E-22
1.48521E-02 3.94247E-22
1.53845E-02 3.66797E-22
1.59262E-02 3.41678E-22
1.64770E-02 3.18659E-22
1.70371E-02 2.97532E-22
1.76063E-02 2.78115E-22
1.81848E-02 2.60245E-22
1.87724E-02 2.43778E-22
1.93692E-02 2.28582E-22
1.99751E-02 2.14544E-22
2.05901E-02 2.01559E-22
2.12143E-02 1.89533E-22
2.18476E-02 1.78385E-22
2.24900E-02 1.68037E-22
2.31415E-02 1.58423E-22
2.38021E-02 1.49481E-22
2.44717E-02 1.41156E-22
2.51504E-02 1.33398E-22
2.58382E-02 1.26160E-22
2.65349E-02 1.19403E-22
2.72407E-02 1.13088E-22
2.79555E-02 1.07181E-22
2.86793E-02 1.01652E-22
2.94120E-02 9.64714E-23
3.01537E-02 9.16136E-23
3.09043E-02 8.70547E-23
3.16639E-02 8.27732E-23
3.24324E-02 7.87491E-23
3.32098E-02 7.49643E-23
3.39961E-02 7.14020E-23
3.47912E-02 6.80466E-23
3.55952E-02 6.48841E-23
3.64081E-02 6.19012E-23
3.72297E-02 5.90860E-23
3.80602E-02 5.64273E-23
3.88995E-02 5.39149E-23
3.97476E-02 5.15394E-23
4.06044E-02 4.92919E-23
4.14700E-02 4.71641E-23
4.23443E-02 4.51487E-23
4.32273E-02 4.32385E-23
4.41190E-02 4.14271E-23
4.50194E-02 3.97085E-23
4.59284E-02 3.80772E-23
4.68461E-02 3.65277E-23
4.87074E-02 3.36555E-23
5.06030E-02 3.10569E-23
5.25328E-02 2.87014E-23
5.44967E-02 2.65624E-23
5.64946E-02 2.46164E-23
5.85262E-02 2.28433E-23
6.05914E-02 2.12250E-23
6.26901E-02 1.97456E-23
6.48222E-02 1.83911E-23
6.69873E-02 1.71492E-23
6.91854E-02 1.60090E-23
7.14163E-02 1.49606E-23
7.36799E-02 1.39954E-23
7.59760E-02 1.31057E-23
7.83043E-02 1.22845E-23
8.06647E-02 1.15256E-23
8.30571E-02 1.08236E-23
8.54812E-02 1.01733E-23
8.79369E-02 9.57033E-24
9.04240E-02 9.01071E-24
9.29422E-02 8.49064E-24
9.54915E-02 8.00691E-24
9.80716E-02 7.55660E-24
1.00682E-01 7.13688E-24
1.03323E-01 6.74540E-24
1.05995E-01 6.37991E-24
1.08696E-01 6.03835E-24
1.11427E-01 5.71892E-24
1.14188E-01 5.41994E-24
1.16978E-01 5.13983E-24
1.19797E-01 4.87723E-24
1.22645E-01 4.63085E-24
1.25522E-01 4.39949E-24
1.28428E-01 4.18210E-24
1.31361E-01 3.97769E-24
1.34323E-01 3.78533E-24
1.37313E-01 3.60420E-24
1.40330E-01 3.43353E-24
1.43375E-01 3.27260E-24
1.46447E-01 3.12077E-24
1.49545E-01 2.97744E-24
1.52671E-01 2.84203E-24
1.55823E-01 2.71405E-24
1.59001E-01 2.59300E-24
1.62205E-01 2.47846E-24
1.65435E-01 2.37000E-24
1.68690E-01 2.26725E-24
1.71970E-01 2.16985E-24
1.75276E-01 2.07749E-24
1.78606E-01 1.98985E-24
1.81961E-01 1.90665E-24
1.85340E-01 1.82763E-24
1.88743E-01 1.75253E-24
1.92169E-01 1.68114E-24
1.95619E-01 1.61324E-24
1.99092E-01 1.54862E-24
2.02589E-01 1.48710E-24
2.06107E-01 1.42851E-24
2.09649E-01 1.37268E-24
2.13212E-01 1.31946E-24
2.16797E-01 1.26871E-24
2.20404E-01 1.22029E-24
2.24032E-01 1.17408E-24
2.27680E-01 1.12996E-24
2.31350E-01 1.08781E-24
2.35040E-01 1.04754E-24
2.38751E-01 1.00905E-24
2.42481E-01 9.72237E-25
2.46231E-01 9.37025E-25
2.50000E-01 9.03330E-25
2.53788E-01 8.71076E-25
2.57595E-01 8.40189E-25
2.61421E-01 8.10603E-25
2.65264E-01 7.82253E-25
2.69126E-01 7.55078E-25
2.73005E-01 7.29022E-25
2.76901E-01 7.04030E-25
2.80814E-01 6.80052E-25
2.84744E-01 6.57040E-25
2.88691E-01 6.34947E-25
2.92653E-01 6.13731E-25
2.96632E-01 5.93352E-25
3.00625E-01 5.73770E-25
3.04634E-01 5.54949E-25
3.08658E-01 5.36854E-25
3.12697E-01 5.19453E-25
3.16749E-01 5.02715E-25
3.20816E-01 4.86610E-25
3.24896E-01 4.71110E-25
3.28990E-01 4.56188E-25
3.33097E-01 4.41820E-25
3.37216E-01 4.27981E-25
3.41348E-01 4.14648E-25
3.45492E-01 4.01800E-25
3.49647E-01 3.89416E-25
3.53814E-01 3.77478E-25
3.57992E-01 3.65965E-25
3.62181E-01 3.54860E-25
3.66381E-01 3.44146E-25
3.70590E-01 3.33808E-25
3.74810E-01 3.23830E-25
3.79039E-01 3.14197E-25
3.83277E-01 3.04896E-25
3.87524E-01 2.95912E-25
3.91780E-01 2.87234E-25
3.96044E-01 2.78849E-25
4.00316E-01 2.70746E-25
4.04596E-01 2.62914E-25
4.08882E-01 2.55341E-25
4.13176E-01 2.48019E-25
4.17476E-01 2.40937E-25
4.21783E-01 2.34087E-25
4.26095E-01 2.27459E-25
4.30413E-01 2.21045E-25
4.34737E-01 2.14837E-25
4.39065E-01 2.08828E-25
4.43398E-01 2.03009E-25
4.47736E-01 1.97375E-25
4.52077E-01 1.91917E-25
4.56422E-01 1.86630E-25
4.60770E-01 1.81508E-25
4.65122E-01 1.76544E-25
4.69476E-01 1.71733E-25
4.73832E-01 1.67070E-25
4.78190E-01 1.62548E-25
4.82550E-01 1.58164E-25
4.86912E-01 1.53912E-25
4.91274E-01 1.49787E-25
4.95637E-01 1.45786E-25
5.00000E-01 1.41904E-25
5.04363E-01 1.38137E-25
5.08726E-01 1.34480E-25
5.13088E-01 1.30931E-25
5.17450E-01 1.27485E-25
5.21810E-01 1.24139E-25
5.26168E-01 1.20890E-25
5.30524E-01 1.17735E-25
5.34878E-01 1.14669E-25
5.39230E-01 1.11691E-25
5.43578E-01 1.08798E-25
5.47923E-01 1.05986E-25
5.52264E-01 1.03253E-25
5.56602E-01 1.00597E-25
5.60935E-01 9.80146E-26
5.65263E-01 9.55040E-26
5.69587E-01 9.30627E-26
5.73905E-01 9.06886E-26
5.78217E-01 8.83795E-26
5.82524E-01 8.61333E-26
5.86824E-01 8.39482E-26
5.91118E-01 8.18221E-26
5.95404E-01 7.97533E-26
5.99684E-01 7.77400E-26
6.03956E-01 7.57805E-26
6.08220E-01 7.38731E-26
6.12476E-01 7.20163E-26
6.16723E-01 7.02085E-26
6.20961E-01 6.84482E-26
6.25190E-01 6.67340E-26
6.29410E-01 6.50646E-26
6.33619E-01 6.34385E-26
6.37819E-01 6.18546E-26
6.42008E-01 6.03115E-26
6.46186E-01 5.88081E-26
6.50353E-01 5.73431E-26
6.54508E-01 5.59156E-26
6.58652E-01 5.45244E-26
6.62784E-01 5.31684E-26
6.66903E-01 5.18466E-26
6.71010E-01 5.05581E-26
6.75104E-01 4.93019E-26
6.79184E-01 4.80771E-26
6.83251E-01 4.68828E-26
6.87303E-01 4.57181E-26
6.91342E-01 4.45823E-26
6.95366E-01 4.34744E-26
6.99375E-01 4.23938E-26
7.03368E-01 4.13397E-26
7.07347E-01 4.03113E-26
7.11309E-01 3.93080E-26
7.15256E-01 3.83290E-26
7.19186E-01 3.73737E-26
7.23099E-01 3.64415E-26
7.26995E-01 3.55317E-26
7.30874E-01 3.46438E-26
7.34736E-01 3.37771E-26
7.38579E-01 3.29311E-26
7.42405E-01 3.21052E-26
7.46212E-01 3.12990E-26
7.50000E-01 3.05118E-26
7.53769E-01 2.97432E-26
7.57519E-01 2.89928E-26
7.61249E-01 2.82600E-26
7.64960E-01 2.75443E-26
7.68650E-01 2.68454E-26
7.72320E-01 2.61628E-26
7.75968E-01 2.54961E-26
7.79596E-01 2.48449E-26
7.83203E-01 2.42089E-26
7.86788E-01 2.35875E-26
7.90351E-01 2.29805E-26
7.93893E-01 2.23875E-26
7.97411E-01 2.18081E-26
8.00908E-01 2.12420E-26
8.04381E-01 2.06890E-26
8.07831E-01 2.01486E-26
8.11257E-01 1.96205E-26
8.14660E-01 1.91046E-26
8.18039E-01 1.86003E-26
8.21394E-01 1.81076E-26
8.24724E-01 1.76261E-26
8.28030E-01 1.71555E-26
8.31310E-01 1.66956E-26
8.34565E-01 1.62462E-26
8.37795E-01 1.58069E-26
8.40999E-01 1.53776E-26
8.44177E-01 1.49579E-26
8.47329E-01 1.45478E-26
8.50455E-01 1.41470E-26
8.53553E-01 1.37552E-26
8.56625E-01 1.33723E-26
8.59670E-01 1.29980E-26
8.62687E-01 1.26322E-26
8.65677E-01 1.22747E-26
8.68639E-01 1.19252E-26
8.71572E-01 1.15837E-26
8.74478E-01 1.12499E-26
8.77355E-01 1.09236E-26
8.80203E-01 1.06048E-26
8.83022E-01 1.02932E-26
8.85812E-01 9.98863E-27
8.88573E-01 9.69104E-27
8.91304E-01 9.40023E-27
8.94005E-01 9.11606E-27
8.96677E-01 8.83839E-27
8.99318E-01 8.56709E-27
9.01928E-01 8.30202E-27
9.04508E-01 8.04306E-27
9.07058E-01 7.79008E-27
9.09576E-01 7.54296E-27
9.12063E-01 7.30159E-27
9.14519E-01 7.06584E-27
9.16943E-01 6.83561E-27
9.19335E-01 6.61078E-27
9.21696E-01 6.39126E-27
9.24024E-01 6.17694E-27
9.26320E-01 5.96772E-27
9.28584E-01 5.76350E-27
9.30815E-01 5.56420E-27
9.33013E-01 5.36971E-27
9.35178E-01 5.17995E-27
9.37310E-01 4.99483E-27
9.39409E-01 4.81427E-27
9.41474E-01 4.63819E-27
9.43505E-01 4.46651E-27
9.45503E-01 4.29914E-27
9.47467E-01 4.13602E-27
9.49397E-01 3.97708E-27
9.51293E-01 3.82223E-27
9.53154E-01 3.67142E-27
9.54981E-01 3.52458E-27
9.56773E-01 3.38164E-27
9.58530E-01 3.24254E-27
9.60252E-01 3.10722E-27
9.61940E-01 2.97562E-27
9.63592E-01 2.84768E-27
9.65209E-01 2.72335E-27
9.66790E-01 2.60258E-27
9.68336E-01 2.48530E-27
9.69846E-01 2.37148E-27
9.71321E-01 2.26106E-27
9.72759E-01 2.15399E-27
9.74162E-01 2.05024E-27
9.75528E-01 1.94975E-27
9.76858E-01 1.85249E-27
9.78152E-01 1.75840E-27
9.79410E-01 1.66746E-27
9.80631E-01 1.57963E-27
9.81815E-01 1.49486E-27
9.82963E-01 1.41312E-27
9.84074E-01 1.33438E-27
9.85148E-01 1.25861E-27
9.86185E-01 1.18577E-27
9.87185E-01 1.11583E-27
9.88148E-01 1.04876E-27
9.89074E-01 9.84546E-28
9.89962E-01 9.23148E-28
9.90814E-01 8.64544E-28
9.91627E-01 8.08710E-28
9.92404E-01 7.55624E-28
9.93143E-01 7.05263E-28
9.93844E-01 6.57607E-28
9.94508E-01 6.12635E-28
9.95134E-01 5.70331E-28
9.95722E-01 5.30676E-28
9.96273E-01 4.93655E-28
9.96786E-01 4.59252E-28
9.97261E-01 4.27453E-28
9.97698E-01 3.98245E-28
9.98097E-01 3.71616E-28
9.98459E-01 3.47556E-28
9.98782E-01 3.26055E-28
9.99067E-01 3.07104E-28
9.99315E-01 2.90695E-28
9.99524E-01 2.76822E-28
9.99695E-01 2.65479E-28
9.99829E-01 2.56661E-28
9.99924E-01 2.50366E-28
9.99981E-01 2.46589E-28
1.00000E+00 2.45330E-28
