 #
 # Subroutine ELSEPA. Elastic scattering of electrons and positrons
 #                    by neutral atoms and positive ions
 #
 # Projectile: electron
 # Kinetic energy = 4.50000E+08 eV = 1.65372E+07 a.u.
 #
 # WARNING: High-energy factorization with free-atom DF screening.
 #          Absorption, polarization and exchange corrections are
 #          switched off.
 #          Phase shifts are calculated for the bare nucleus.
 #          Scattering amplitudes are not evaluated.
 #
 # Element: Pd,  Z =  46,  atomic weight = 1.06420E+02 g/mol
 #
 # Nuclear model: Fermi distribution
 #                Average radius = 5.07059E-13 cm
 #                Skin thickness = 5.46000E-14 cm
 #
 # Number of electrons = 46
 #
 # Total elastic cross section = 4.05381E-18 cm**2 = 1.44764E-01 a0**2
 # 1st transport cross section = 2.06722E-26 cm**2 = 7.38219E-10 a0**2
 # 2nd transport cross section = 6.19859E-26 cm**2 = 2.21356E-09 a0**2
 #
 #
 # Differential cross section:                       MU=(1-COS(THETA))/2
 #
 #  THETA        MU          DCS          DCS        Sherman      error
 #  (deg)                 (cm**2/sr)   (a0**2/sr)    function
 #----------------------------------------------------------------------
0.00000E+00 4.31776E-09
7.61557E-13 4.21104E-09
1.18994E-12 4.15292E-09
1.71346E-12 4.08396E-09
2.33225E-12 4.00462E-09
3.04617E-12 3.91642E-09
3.85530E-12 3.82064E-09
4.75964E-12 3.71858E-09
5.75917E-12 3.61149E-09
6.85391E-12 3.49915E-09
8.04379E-12 3.38361E-09
9.32893E-12 3.26624E-09
1.07092E-11 3.14803E-09
1.21847E-11 3.02983E-09
1.37554E-11 2.91196E-09
1.54213E-11 2.79415E-09
1.71823E-11 2.67836E-09
1.90386E-11 2.56503E-09
2.09900E-11 2.45455E-09
2.30367E-11 2.34718E-09
2.51785E-11 2.24223E-09
2.74156E-11 2.14040E-09
2.97478E-11 2.04230E-09
3.21752E-11 1.94799E-09
3.46979E-11 1.85745E-09
3.73157E-11 1.77060E-09
4.00286E-11 1.68659E-09
4.28368E-11 1.60636E-09
4.57402E-11 1.52980E-09
4.87388E-11 1.45680E-09
5.18325E-11 1.38723E-09
5.50215E-11 1.32068E-09
5.83057E-11 1.25707E-09
6.16850E-11 1.19660E-09
6.51595E-11 1.13916E-09
6.87293E-11 1.08458E-09
7.23943E-11 1.03274E-09
7.61544E-11 9.83177E-10
1.18991E-10 6.02986E-10
1.71347E-10 3.81268E-10
2.33223E-10 2.46985E-10
3.04617E-10 1.66063E-10
3.85531E-10 1.15583E-10
4.75965E-10 8.30953E-11
5.75917E-10 6.15492E-11
6.85389E-10 4.67584E-11
8.04380E-10 3.63418E-11
9.32891E-10 2.87914E-11
1.07092E-09 2.31728E-11
1.21847E-09 1.88945E-11
1.37554E-09 1.55656E-11
1.54213E-09 1.29226E-11
1.71823E-09 1.08119E-11
1.90386E-09 9.10740E-12
2.09900E-09 7.71781E-12
2.30367E-09 6.57587E-12
2.51785E-09 5.62785E-12
2.74156E-09 4.83978E-12
2.97478E-09 4.18082E-12
3.21752E-09 3.62743E-12
3.46978E-09 3.16110E-12
3.73156E-09 2.76633E-12
4.00286E-09 2.43016E-12
4.28368E-09 2.14342E-12
4.57402E-09 1.89769E-12
4.87388E-09 1.68620E-12
5.18326E-09 1.50340E-12
5.50215E-09 1.34470E-12
5.83057E-09 1.20646E-12
6.16850E-09 1.08569E-12
6.51596E-09 9.79822E-13
6.87293E-09 8.86716E-13
7.23942E-09 8.04568E-13
7.61544E-09 7.31820E-13
1.18991E-08 3.17123E-13
1.71347E-08 1.59394E-13
2.33223E-08 8.84975E-14
3.04617E-08 5.28679E-14
3.85531E-08 3.34409E-14
4.75965E-08 2.21521E-14
5.75917E-08 1.52436E-14
6.85389E-08 1.08293E-14
8.04380E-08 7.90386E-15
9.32891E-08 5.90358E-15
1.07092E-07 4.49849E-15
1.21847E-07 3.48806E-15
1.37554E-07 2.74632E-15
1.54213E-07 2.19183E-15
1.71823E-07 1.77058E-15
1.90386E-07 1.44588E-15
2.09900E-07 1.19234E-15
2.30367E-07 9.92021E-16
2.51785E-07 8.32058E-16
2.74156E-07 7.03072E-16
2.97478E-07 5.98132E-16
3.21752E-07 5.12053E-16
3.46978E-07 4.40909E-16
3.73156E-07 3.81696E-16
4.00286E-07 3.32091E-16
4.28368E-07 2.90284E-16
4.57402E-07 2.54849E-16
4.87388E-07 2.24655E-16
5.18325E-07 1.98801E-16
5.50215E-07 1.76558E-16
5.83057E-07 1.57338E-16
6.16850E-07 1.40662E-16
6.51596E-07 1.26137E-16
6.87293E-07 1.13437E-16
7.23942E-07 1.02295E-16
7.61543E-07 9.24871E-17
1.18991E-06 3.80103E-17
1.71347E-06 1.83646E-17
2.33223E-06 9.92413E-18
3.04617E-06 5.82186E-18
3.85531E-06 3.63662E-18
4.75964E-06 2.38704E-18
5.75916E-06 1.63098E-18
6.85388E-06 1.15194E-18
8.04378E-06 8.36566E-19
9.32888E-06 6.22115E-19
1.07092E-05 4.72192E-19
1.21846E-05 3.64837E-19
1.37553E-05 2.86335E-19
1.54212E-05 2.27859E-19
1.71822E-05 1.83581E-19
1.90385E-05 1.49523E-19
2.09899E-05 1.23071E-19
2.30365E-05 1.02214E-19
2.51783E-05 8.55834E-20
2.74153E-05 7.21938E-20
2.97475E-05 6.13197E-20
3.21749E-05 5.24179E-20
3.46974E-05 4.50771E-20
3.73152E-05 3.89808E-20
4.00281E-05 3.38835E-20
4.28362E-05 2.95943E-20
4.57395E-05 2.59632E-20
4.87380E-05 2.28717E-20
5.18317E-05 2.02263E-20
5.50205E-05 1.79521E-20
5.83045E-05 1.59886E-20
6.16838E-05 1.42866E-20
6.51582E-05 1.28055E-20
6.87277E-05 1.15119E-20
7.23925E-05 1.03779E-20
7.61524E-05 9.39642E-21
9.21439E-05 6.41936E-21
1.09658E-04 4.53236E-21
1.28695E-04 3.29010E-21
1.49255E-04 2.44499E-21
1.71338E-04 1.85422E-21
1.94942E-04 1.43110E-21
2.20070E-04 1.12172E-21
2.46720E-04 8.91289E-22
2.74892E-04 7.16823E-22
3.04586E-04 5.82811E-22
3.35803E-04 4.78497E-22
3.68542E-04 3.96343E-22
4.02802E-04 3.30938E-22
4.38585E-04 2.78356E-22
4.75889E-04 2.35703E-22
5.14715E-04 2.00816E-22
5.55063E-04 1.72067E-22
5.96931E-04 1.48207E-22
6.40321E-04 1.28276E-22
6.85233E-04 1.11527E-22
7.31665E-04 9.73719E-23
7.79618E-04 8.53466E-23
8.29092E-04 7.50799E-23
8.80086E-04 6.62744E-23
9.32601E-04 5.86895E-23
9.86636E-04 5.21293E-23
1.04219E-03 4.64338E-23
1.09927E-03 4.14708E-23
1.15786E-03 3.71317E-23
1.21797E-03 3.33255E-23
1.27961E-03 2.99767E-23
1.34276E-03 2.70218E-23
1.40743E-03 2.44072E-23
1.47362E-03 2.20877E-23
1.54133E-03 2.00248E-23
1.61056E-03 1.81859E-23
1.68131E-03 1.65428E-23
1.75357E-03 1.50717E-23
1.82735E-03 1.37517E-23
1.90265E-03 1.25650E-23
1.97947E-03 1.14962E-23
2.05780E-03 1.05318E-23
2.13765E-03 9.66007E-24
2.21902E-03 8.87088E-24
2.30190E-03 8.15527E-24
2.38630E-03 7.50538E-24
2.47222E-03 6.91433E-24
2.55965E-03 6.37604E-24
2.64859E-03 5.88515E-24
2.73905E-03 5.43690E-24
2.83103E-03 5.02709E-24
2.92452E-03 4.65197E-24
3.01952E-03 4.30821E-24
3.11604E-03 3.99286E-24
3.21407E-03 3.70325E-24
3.31362E-03 3.43701E-24
3.41468E-03 3.19202E-24
3.51725E-03 2.96636E-24
3.62133E-03 2.75833E-24
3.72692E-03 2.56638E-24
3.83403E-03 2.38911E-24
3.94265E-03 2.22528E-24
4.05278E-03 2.07374E-24
4.16442E-03 1.93346E-24
4.27757E-03 1.80352E-24
4.39223E-03 1.68306E-24
4.50840E-03 1.57132E-24
4.62608E-03 1.46761E-24
4.74527E-03 1.37127E-24
4.86597E-03 1.28174E-24
4.98817E-03 1.19849E-24
5.11188E-03 1.12103E-24
5.23711E-03 1.04892E-24
5.36383E-03 9.81750E-25
5.49207E-03 9.19156E-25
5.62181E-03 8.60797E-25
5.75306E-03 8.06361E-25
5.88581E-03 7.55560E-25
6.02007E-03 7.08132E-25
6.15583E-03 6.63834E-25
6.29310E-03 6.22443E-25
6.43187E-03 5.83753E-25
6.57214E-03 5.47574E-25
6.71392E-03 5.13732E-25
6.85720E-03 4.82065E-25
7.00198E-03 4.52423E-25
7.14827E-03 4.24668E-25
7.29605E-03 3.98671E-25
7.44534E-03 3.74316E-25
7.59612E-03 3.51491E-25
7.97965E-03 3.00474E-25
8.37255E-03 2.57005E-25
8.77480E-03 2.19918E-25
9.18641E-03 1.88237E-25
9.60736E-03 1.61147E-25
1.00376E-02 1.37963E-25
1.04773E-02 1.18108E-25
1.09262E-02 1.01092E-25
1.13844E-02 8.65041E-26
1.18520E-02 7.39934E-26
1.23288E-02 6.32621E-26
1.28150E-02 5.40565E-26
1.33104E-02 4.61602E-26
1.38150E-02 3.93882E-26
1.43290E-02 3.35820E-26
1.48521E-02 2.86060E-26
1.53845E-02 2.43437E-26
1.59262E-02 2.06952E-26
1.64770E-02 1.75743E-26
1.70371E-02 1.49072E-26
1.76063E-02 1.26300E-26
1.81848E-02 1.06880E-26
1.87724E-02 9.03383E-27
1.93692E-02 7.62672E-27
1.99751E-02 6.43152E-27
2.05901E-02 5.41793E-27
2.12143E-02 4.55981E-27
2.18476E-02 3.83465E-27
2.24900E-02 3.22302E-27
2.31415E-02 2.70823E-27
2.38021E-02 2.27587E-27
2.44717E-02 1.91357E-27
2.51504E-02 1.61071E-27
2.58382E-02 1.35814E-27
2.65349E-02 1.14805E-27
2.72407E-02 9.73724E-28
2.79555E-02 8.29446E-28
2.86793E-02 7.10321E-28
2.94120E-02 6.12186E-28
3.01537E-02 5.31503E-28
3.09043E-02 4.65270E-28
3.16639E-02 4.10951E-28
3.24324E-02 3.66407E-28
3.32098E-02 3.29842E-28
3.39961E-02 2.99751E-28
3.47912E-02 2.74880E-28
3.55952E-02 2.54189E-28
3.64081E-02 2.36819E-28
3.72297E-02 2.22066E-28
3.80602E-02 2.09355E-28
3.88995E-02 1.98222E-28
3.97476E-02 1.88295E-28
4.06044E-02 1.79278E-28
4.14700E-02 1.70942E-28
4.23443E-02 1.63108E-28
4.32273E-02 1.55641E-28
4.41190E-02 1.48444E-28
4.50194E-02 1.41446E-28
4.59284E-02 1.34600E-28
4.68461E-02 1.27877E-28
4.87074E-02 1.14746E-28
5.06030E-02 1.02043E-28
5.25328E-02 8.98460E-29
5.44967E-02 7.82708E-29
5.64946E-02 6.74343E-29
5.85262E-02 5.74356E-29
6.05914E-02 4.83452E-29
6.26901E-02 4.02019E-29
6.48222E-02 3.30137E-29
6.69873E-02 2.67611E-29
6.91854E-02 2.14020E-29
7.14163E-02 1.68772E-29
7.36799E-02 1.31152E-29
7.59760E-02 1.00374E-29
7.83043E-02 7.56199E-30
8.06647E-02 5.60753E-30
8.30571E-02 4.09551E-30
8.54812E-02 2.95239E-30
8.79369E-02 2.11100E-30
9.04240E-02 1.51130E-30
9.29422E-02 1.10077E-30
9.54915E-02 8.34412E-31
9.80716E-02 6.74452E-31
1.00682E-01 5.89876E-31
1.03323E-01 5.55813E-31
1.05995E-01 5.52838E-31
1.08696E-01 5.66257E-31
1.11427E-01 5.85381E-31
1.14188E-01 6.02837E-31
1.16978E-01 6.13933E-31
1.19797E-01 6.16078E-31
1.22645E-01 6.08275E-31
1.25522E-01 5.90683E-31
1.28428E-01 5.64256E-31
1.31361E-01 5.30439E-31
1.34323E-01 4.90936E-31
1.37313E-01 4.47523E-31
1.40330E-01 4.01922E-31
1.43375E-01 3.55702E-31
1.46447E-01 3.10222E-31
1.49545E-01 2.66605E-31
1.52671E-01 2.25721E-31
1.55823E-01 1.88200E-31
1.59001E-01 1.54446E-31
1.62205E-01 1.24665E-31
1.65435E-01 9.88902E-32
1.68690E-01 7.70192E-32
1.71970E-01 5.88406E-32
1.75276E-01 4.40644E-32
1.78606E-01 3.23487E-32
1.81961E-01 2.33227E-32
1.85340E-01 1.66058E-32
1.88743E-01 1.18240E-32
1.92169E-01 8.62149E-33
1.95619E-01 6.67004E-33
1.99092E-01 5.67473E-33
2.02589E-01 5.37742E-33
2.06107E-01 5.55801E-33
2.09649E-01 6.03398E-33
2.13212E-01 6.65861E-33
2.16797E-01 7.31819E-33
2.20404E-01 7.92867E-33
2.24032E-01 8.43184E-33
2.27680E-01 8.79142E-33
2.31350E-01 8.98921E-33
2.35040E-01 9.02134E-33
2.38751E-01 8.89493E-33
2.42481E-01 8.62499E-33
2.46231E-01 8.23175E-33
2.50000E-01 7.73847E-33
2.53788E-01 7.16955E-33
2.57595E-01 6.54906E-33
2.61421E-01 5.89967E-33
2.65264E-01 5.24187E-33
2.69126E-01 4.59344E-33
2.73005E-01 3.96917E-33
2.76901E-01 3.38082E-33
2.80814E-01 2.83716E-33
2.84744E-01 2.34417E-33
2.88691E-01 1.90529E-33
2.92653E-01 1.52177E-33
2.96632E-01 1.19299E-33
3.00625E-01 9.16805E-34
3.04634E-01 6.89910E-34
3.08658E-01 5.08155E-34
3.12697E-01 3.66831E-34
3.16749E-01 2.60930E-34
3.20816E-01 1.85364E-34
3.24896E-01 1.35147E-34
3.28990E-01 1.05530E-34
3.33097E-01 9.21168E-35
3.37216E-01 9.09307E-35
3.41348E-01 9.84632E-35
3.45492E-01 1.11694E-34
3.49647E-01 1.28091E-34
3.53814E-01 1.45594E-34
3.57992E-01 1.62586E-34
3.62181E-01 1.77854E-34
3.66381E-01 1.90547E-34
3.70590E-01 2.00128E-34
3.74810E-01 2.06322E-34
3.79039E-01 2.09076E-34
3.83277E-01 2.08506E-34
3.87524E-01 2.04861E-34
3.91780E-01 1.98482E-34
3.96044E-01 1.89772E-34
4.00316E-01 1.79164E-34
4.04596E-01 1.67100E-34
4.08882E-01 1.54012E-34
4.13176E-01 1.40305E-34
4.17476E-01 1.26349E-34
4.21783E-01 1.12473E-34
4.26095E-01 9.89555E-35
4.30413E-01 8.60272E-35
4.34737E-01 7.38704E-35
4.39065E-01 6.26204E-35
4.43398E-01 5.23695E-35
4.47736E-01 4.31708E-35
4.52077E-01 3.50430E-35
4.56422E-01 2.79757E-35
4.60770E-01 2.19339E-35
4.65122E-01 1.68636E-35
4.69476E-01 1.26959E-35
4.73832E-01 9.35192E-36
4.78190E-01 6.74603E-36
4.82550E-01 4.78970E-36
4.86912E-01 3.39418E-36
4.91274E-01 2.47296E-36
4.95637E-01 1.94361E-36
5.00000E-01 1.72928E-36
5.04363E-01 1.75969E-36
5.08726E-01 1.97186E-36
5.13088E-01 2.31039E-36
5.17450E-01 2.72756E-36
5.21810E-01 3.18320E-36
5.26168E-01 3.64431E-36
5.30524E-01 4.08466E-36
5.34878E-01 4.48415E-36
5.39230E-01 4.82824E-36
5.43578E-01 5.10725E-36
5.47923E-01 5.31570E-36
5.52264E-01 5.45167E-36
5.56602E-01 5.51612E-36
5.60935E-01 5.51234E-36
5.65263E-01 5.44536E-36
5.69587E-01 5.32153E-36
5.73905E-01 5.14800E-36
5.78217E-01 4.93243E-36
5.82524E-01 4.68260E-36
5.86824E-01 4.40620E-36
5.91118E-01 4.11063E-36
5.95404E-01 3.80278E-36
5.99684E-01 3.48897E-36
6.03956E-01 3.17485E-36
6.08220E-01 2.86535E-36
6.12476E-01 2.56467E-36
6.16723E-01 2.27629E-36
6.20961E-01 2.00299E-36
6.25190E-01 1.74687E-36
6.29410E-01 1.50943E-36
6.33619E-01 1.29163E-36
6.37819E-01 1.09390E-36
6.42008E-01 9.16288E-37
6.46186E-01 7.58439E-37
6.50353E-01 6.19715E-37
6.54508E-01 4.99232E-37
6.58652E-01 3.95917E-37
6.62784E-01 3.08562E-37
6.66903E-01 2.35865E-37
6.71010E-01 1.76473E-37
6.75104E-01 1.29017E-37
6.79184E-01 9.21367E-38
6.83251E-01 6.45106E-38
6.87303E-01 4.48710E-38
6.91342E-01 3.20210E-38
6.95366E-01 2.48446E-38
6.99375E-01 2.23156E-38
7.03368E-01 2.35013E-38
7.07347E-01 2.75642E-38
7.11309E-01 3.37627E-38
7.15256E-01 4.14481E-38
7.19186E-01 5.00618E-38
7.23099E-01 5.91291E-38
7.26995E-01 6.82554E-38
7.30874E-01 7.71192E-38
7.34736E-01 8.54646E-38
7.38579E-01 9.30957E-38
7.42405E-01 9.98694E-38
7.46212E-01 1.05689E-37
7.50000E-01 1.10497E-37
7.53769E-01 1.14271E-37
7.57519E-01 1.17015E-37
7.61249E-01 1.18755E-37
7.64960E-01 1.19539E-37
7.68650E-01 1.19425E-37
7.72320E-01 1.18483E-37
7.75968E-01 1.16791E-37
7.79596E-01 1.14430E-37
7.83203E-01 1.11482E-37
7.86788E-01 1.08031E-37
7.90351E-01 1.04158E-37
7.93893E-01 9.99418E-38
7.97411E-01 9.54567E-38
8.00908E-01 9.07721E-38
8.04381E-01 8.59522E-38
8.07831E-01 8.10568E-38
8.11257E-01 7.61378E-38
8.14660E-01 7.12430E-38
8.18039E-01 6.64133E-38
8.21394E-01 6.16843E-38
8.24724E-01 5.70858E-38
8.28030E-01 5.26435E-38
8.31310E-01 4.83773E-38
8.34565E-01 4.43020E-38
8.37795E-01 4.04302E-38
8.40999E-01 3.67687E-38
8.44177E-01 3.33233E-38
8.47329E-01 3.00946E-38
8.50455E-01 2.70826E-38
8.53553E-01 2.42843E-38
8.56625E-01 2.16949E-38
8.59670E-01 1.93082E-38
8.62687E-01 1.71176E-38
8.65677E-01 1.51141E-38
8.68639E-01 1.32895E-38
8.71572E-01 1.16341E-38
8.74478E-01 1.01384E-38
8.77355E-01 8.79240E-39
8.80203E-01 7.58635E-39
8.83022E-01 6.51034E-39
8.85812E-01 5.55482E-39
8.88573E-01 4.71014E-39
8.91304E-01 3.96729E-39
8.94005E-01 3.31749E-39
8.96677E-01 2.75218E-39
8.99318E-01 2.26349E-39
9.01928E-01 1.84380E-39
9.04508E-01 1.00000E-45
9.07058E-01 1.00000E-45
9.09576E-01 1.00000E-45
9.12063E-01 1.00000E-45
9.14519E-01 1.00000E-45
9.16943E-01 1.00000E-45
9.19335E-01 1.00000E-45
9.21696E-01 1.00000E-45
9.24024E-01 1.00000E-45
9.26320E-01 1.00000E-45
9.28584E-01 1.00000E-45
9.30815E-01 1.00000E-45
9.33013E-01 1.00000E-45
9.35178E-01 1.00000E-45
9.37310E-01 1.00000E-45
9.39409E-01 1.00000E-45
9.41474E-01 1.00000E-45
9.43505E-01 1.00000E-45
9.45503E-01 1.00000E-45
9.47467E-01 1.00000E-45
9.49397E-01 1.00000E-45
9.51293E-01 1.00000E-45
9.53154E-01 1.00000E-45
9.54981E-01 1.00000E-45
9.56773E-01 1.00000E-45
9.58530E-01 1.00000E-45
9.60252E-01 1.00000E-45
9.61940E-01 1.00000E-45
9.63592E-01 1.00000E-45
9.65209E-01 1.00000E-45
9.66790E-01 1.00000E-45
9.68336E-01 1.00000E-45
9.69846E-01 1.00000E-45
9.71321E-01 1.00000E-45
9.72759E-01 1.00000E-45
9.74162E-01 1.00000E-45
9.75528E-01 1.00000E-45
9.76858E-01 1.00000E-45
9.78152E-01 1.00000E-45
9.79410E-01 1.00000E-45
9.80631E-01 1.00000E-45
9.81815E-01 1.00000E-45
9.82963E-01 1.00000E-45
9.84074E-01 1.00000E-45
9.85148E-01 1.00000E-45
9.86185E-01 1.00000E-45
9.87185E-01 1.00000E-45
9.88148E-01 1.00000E-45
9.89074E-01 1.00000E-45
9.89962E-01 1.00000E-45
9.90814E-01 1.00000E-45
9.91627E-01 1.00000E-45
9.92404E-01 1.00000E-45
9.93143E-01 1.00000E-45
9.93844E-01 1.00000E-45
9.94508E-01 1.00000E-45
9.95134E-01 1.00000E-45
9.95722E-01 1.00000E-45
9.96273E-01 1.00000E-45
9.96786E-01 1.00000E-45
9.97261E-01 1.00000E-45
9.97698E-01 1.00000E-45
9.98097E-01 1.00000E-45
9.98459E-01 1.00000E-45
9.98782E-01 1.00000E-45
9.99067E-01 1.00000E-45
9.99315E-01 1.00000E-45
9.99524E-01 1.00000E-45
9.99695E-01 1.00000E-45
9.99829E-01 1.00000E-45
9.99924E-01 1.00000E-45
9.99981E-01 1.00000E-45
1.00000E+00 1.00000E-45
