 #
 # Subroutine ELSEPA. Elastic scattering of electrons and positrons
 #                    by neutral atoms and positive ions
 #
 # Projectile: electron
 # Kinetic energy = 6.00000E+07 eV = 2.20496E+06 a.u.
 #
 # WARNING: High-energy factorization with free-atom DF screening.
 #          Absorption, polarization and exchange corrections are
 #          switched off.
 #          Phase shifts are calculated for the bare nucleus.
 #          Scattering amplitudes are not evaluated.
 #
 # Element: Pd,  Z =  46,  atomic weight = 1.06420E+02 g/mol
 #
 # Nuclear model: Fermi distribution
 #                Average radius = 5.07059E-13 cm
 #                Skin thickness = 5.46000E-14 cm
 #
 # Number of electrons = 46
 #
 # Total elastic cross section = 4.05409E-18 cm**2 = 1.44774E-01 a0**2
 # 1st transport cross section = 1.14577E-24 cm**2 = 4.09163E-08 a0**2
 # 2nd transport cross section = 3.37436E-24 cm**2 = 1.20501E-07 a0**2
 #
 #
 # Differential cross section:                       MU=(1-COS(THETA))/2
 #
 #  THETA        MU          DCS          DCS        Sherman      error
 #  (deg)                 (cm**2/sr)   (a0**2/sr)    function
 #----------------------------------------------------------------------
0.00000E+00 7.78963E-11
7.61557E-13 7.78604E-11
1.18994E-12 7.78403E-11
1.71346E-12 7.78159E-11
2.33225E-12 7.77871E-11
3.04617E-12 7.77538E-11
3.85530E-12 7.77162E-11
4.75964E-12 7.76742E-11
5.75917E-12 7.76278E-11
6.85391E-12 7.75771E-11
8.04379E-12 7.75221E-11
9.32893E-12 7.74627E-11
1.07092E-11 7.73991E-11
1.21847E-11 7.73311E-11
1.37554E-11 7.72589E-11
1.54213E-11 7.71825E-11
1.71823E-11 7.71018E-11
1.90386E-11 7.70170E-11
2.09900E-11 7.69279E-11
2.30367E-11 7.68348E-11
2.51785E-11 7.67375E-11
2.74156E-11 7.66361E-11
2.97478E-11 7.65306E-11
3.21752E-11 7.64212E-11
3.46979E-11 7.63077E-11
3.73157E-11 7.61903E-11
4.00286E-11 7.60689E-11
4.28368E-11 7.59436E-11
4.57402E-11 7.58145E-11
4.87388E-11 7.56815E-11
5.18325E-11 7.55447E-11
5.50215E-11 7.54042E-11
5.83057E-11 7.52599E-11
6.16850E-11 7.51120E-11
6.51595E-11 7.49583E-11
6.87293E-11 7.48006E-11
7.23943E-11 7.46400E-11
7.61544E-11 7.44766E-11
1.18991E-10 7.26675E-11
1.71347E-10 7.05591E-11
2.33223E-10 6.82025E-11
3.04617E-10 6.56499E-11
3.85531E-10 6.29525E-11
4.75965E-10 6.01532E-11
5.75917E-10 5.72866E-11
6.85389E-10 5.44051E-11
8.04380E-10 5.15425E-11
9.32891E-10 4.87266E-11
1.07092E-09 4.59798E-11
1.21847E-09 4.33194E-11
1.37554E-09 4.07582E-11
1.54213E-09 3.83051E-11
1.71823E-09 3.59658E-11
1.90386E-09 3.37374E-11
2.09900E-09 3.16229E-11
2.30367E-09 2.96269E-11
2.51785E-09 2.77470E-11
2.74156E-09 2.59799E-11
2.97478E-09 2.43215E-11
3.21752E-09 2.27670E-11
3.46978E-09 2.13116E-11
3.73156E-09 1.99503E-11
4.00286E-09 1.86778E-11
4.28368E-09 1.74861E-11
4.57402E-09 1.63731E-11
4.87388E-09 1.53348E-11
5.18326E-09 1.43665E-11
5.50215E-09 1.34635E-11
5.83057E-09 1.26217E-11
6.16850E-09 1.18369E-11
6.51596E-09 1.10519E-11
6.87293E-09 1.03186E-11
7.23942E-09 9.65514E-12
7.61544E-09 9.05343E-12
1.18991E-08 5.00927E-12
1.71347E-08 2.93062E-12
2.33223E-08 1.81927E-12
3.04617E-08 1.19503E-12
3.85531E-08 8.24703E-13
4.75965E-08 5.92399E-13
5.75917E-08 4.38825E-13
6.85389E-08 3.32984E-13
8.04380E-08 2.57405E-13
9.32891E-08 2.01925E-13
1.07092E-07 1.60330E-13
1.21847E-07 1.28634E-13
1.37554E-07 1.04170E-13
1.54213E-07 8.51049E-14
1.71823E-07 7.00661E-14
1.90386E-07 5.81280E-14
2.09900E-07 4.85907E-14
2.30367E-07 4.09179E-14
2.51785E-07 3.46961E-14
2.74156E-07 2.96118E-14
2.97478E-07 2.54267E-14
3.21752E-07 2.19582E-14
3.46978E-07 1.90654E-14
3.73156E-07 1.66384E-14
4.00286E-07 1.45904E-14
4.28368E-07 1.28520E-14
4.57402E-07 1.13684E-14
4.87388E-07 1.00954E-14
5.18325E-07 8.99753E-15
5.50215E-07 8.04612E-15
5.83057E-07 7.21805E-15
6.16850E-07 6.49448E-15
6.51596E-07 5.85758E-15
6.87293E-07 5.29799E-15
7.23942E-07 4.80578E-15
7.61543E-07 4.37075E-15
1.18991E-06 1.87320E-15
1.71347E-06 9.27908E-16
2.33223E-06 5.09228E-16
3.04617E-06 3.01889E-16
3.85531E-06 1.90076E-16
4.75964E-06 1.25580E-16
5.75916E-06 8.62865E-17
6.85388E-06 6.12431E-17
8.04378E-06 4.46690E-17
9.32888E-06 3.33455E-17
1.07092E-05 2.53956E-17
1.21846E-05 1.96809E-17
1.37553E-05 1.54872E-17
1.54212E-05 1.23534E-17
1.71822E-05 9.97359E-18
1.90385E-05 8.13831E-18
2.09899E-05 6.70959E-18
2.30365E-05 5.58056E-18
2.51783E-05 4.67866E-18
2.74153E-05 3.95125E-18
2.97475E-05 3.35956E-18
3.21749E-05 2.87451E-18
3.46974E-05 2.47401E-18
3.73152E-05 2.14101E-18
4.00281E-05 1.86231E-18
4.28362E-05 1.62755E-18
4.57395E-05 1.42864E-18
4.87380E-05 1.25916E-18
5.18317E-05 1.11403E-18
5.50205E-05 9.89184E-19
5.83045E-05 8.81327E-19
6.16838E-05 7.87780E-19
6.51582E-05 7.06335E-19
6.87277E-05 6.35167E-19
7.23925E-05 5.72752E-19
7.61524E-05 5.17993E-19
9.21439E-05 3.54354E-19
1.09658E-04 2.50529E-19
1.28695E-04 1.82120E-19
1.49255E-04 1.35547E-19
1.71338E-04 1.02968E-19
1.94942E-04 7.96190E-20
2.20070E-04 6.25337E-20
2.46720E-04 4.97996E-20
2.74892E-04 4.01503E-20
3.04586E-04 3.27319E-20
3.35803E-04 2.69519E-20
3.68542E-04 2.23949E-20
4.02802E-04 1.87628E-20
4.38585E-04 1.58390E-20
4.75889E-04 1.34641E-20
5.14715E-04 1.15187E-20
5.55063E-04 9.91288E-21
5.96931E-04 8.57786E-21
6.40321E-04 7.46059E-21
6.85233E-04 6.51978E-21
7.31665E-04 5.72298E-21
7.79618E-04 5.04451E-21
8.29092E-04 4.46386E-21
8.80086E-04 3.96459E-21
9.32601E-04 3.53336E-21
9.86636E-04 3.15932E-21
1.04219E-03 2.83361E-21
1.09927E-03 2.54890E-21
1.15786E-03 2.29916E-21
1.21797E-03 2.07934E-21
1.27961E-03 1.88525E-21
1.34276E-03 1.71333E-21
1.40743E-03 1.56063E-21
1.47362E-03 1.42460E-21
1.54133E-03 1.30312E-21
1.61056E-03 1.19436E-21
1.68131E-03 1.09673E-21
1.75357E-03 1.00891E-21
1.82735E-03 9.29731E-22
1.90265E-03 8.58189E-22
1.97947E-03 7.93418E-22
2.05780E-03 7.34664E-22
2.13765E-03 6.81262E-22
2.21902E-03 6.32640E-22
2.30190E-03 5.88294E-22
2.38630E-03 5.47775E-22
2.47222E-03 5.10698E-22
2.55965E-03 4.76714E-22
2.64859E-03 4.45517E-22
2.73905E-03 4.16842E-22
2.83103E-03 3.90439E-22
2.92452E-03 3.66106E-22
3.01952E-03 3.43641E-22
3.11604E-03 3.22879E-22
3.21407E-03 3.03667E-22
3.31362E-03 2.85866E-22
3.41468E-03 2.69355E-22
3.51725E-03 2.54022E-22
3.62133E-03 2.39768E-22
3.72692E-03 2.26503E-22
3.83403E-03 2.14145E-22
3.94265E-03 2.02622E-22
4.05278E-03 1.91865E-22
4.16442E-03 1.81814E-22
4.27757E-03 1.72415E-22
4.39223E-03 1.63617E-22
4.50840E-03 1.55375E-22
4.62608E-03 1.47646E-22
4.74527E-03 1.40394E-22
4.86597E-03 1.33582E-22
4.98817E-03 1.27180E-22
5.11188E-03 1.21157E-22
5.23711E-03 1.15488E-22
5.36383E-03 1.10147E-22
5.49207E-03 1.05111E-22
5.62181E-03 1.00361E-22
5.75306E-03 9.58772E-23
5.88581E-03 9.16412E-23
6.02007E-03 8.76370E-23
6.15583E-03 8.38496E-23
6.29310E-03 8.02649E-23
6.43187E-03 7.68701E-23
6.57214E-03 7.36532E-23
6.71392E-03 7.06031E-23
6.85720E-03 6.77094E-23
7.00198E-03 6.49627E-23
7.14827E-03 6.23541E-23
7.29605E-03 5.98752E-23
7.44534E-03 5.75185E-23
7.59612E-03 5.52767E-23
7.97965E-03 5.01322E-23
8.37255E-03 4.55729E-23
8.77480E-03 4.15204E-23
9.18641E-03 3.79086E-23
9.60736E-03 3.46810E-23
1.00376E-02 3.17894E-23
1.04773E-02 2.91928E-23
1.09262E-02 2.68557E-23
1.13844E-02 2.47474E-23
1.18520E-02 2.28416E-23
1.23288E-02 2.11154E-23
1.28150E-02 1.95487E-23
1.33104E-02 1.81242E-23
1.38150E-02 1.68267E-23
1.43290E-02 1.56428E-23
1.48521E-02 1.45607E-23
1.53845E-02 1.35702E-23
1.59262E-02 1.26620E-23
1.64770E-02 1.18280E-23
1.70371E-02 1.10612E-23
1.76063E-02 1.03551E-23
1.81848E-02 9.70405E-24
1.87724E-02 9.10296E-24
1.93692E-02 8.54729E-24
1.99751E-02 8.03301E-24
2.05901E-02 7.55645E-24
2.12143E-02 7.11436E-24
2.18476E-02 6.70378E-24
2.24900E-02 6.32206E-24
2.31415E-02 5.96680E-24
2.38021E-02 5.63584E-24
2.44717E-02 5.32720E-24
2.51504E-02 5.03911E-24
2.58382E-02 4.76995E-24
2.65349E-02 4.51825E-24
2.72407E-02 4.28267E-24
2.79555E-02 4.06199E-24
2.86793E-02 3.85511E-24
2.94120E-02 3.66099E-24
3.01537E-02 3.47870E-24
3.09043E-02 3.30741E-24
3.16639E-02 3.14631E-24
3.24324E-02 2.99471E-24
3.32098E-02 2.85193E-24
3.39961E-02 2.71736E-24
3.47912E-02 2.59046E-24
3.55952E-02 2.47071E-24
3.64081E-02 2.35762E-24
3.72297E-02 2.25077E-24
3.80602E-02 2.14974E-24
3.88995E-02 2.05417E-24
3.97476E-02 1.96371E-24
4.06044E-02 1.87802E-24
4.14700E-02 1.79683E-24
4.23443E-02 1.71984E-24
4.32273E-02 1.64681E-24
4.41190E-02 1.57748E-24
4.50194E-02 1.51165E-24
4.59284E-02 1.44911E-24
4.68461E-02 1.38965E-24
4.87074E-02 1.27931E-24
5.06030E-02 1.17932E-24
5.25328E-02 1.08856E-24
5.44967E-02 1.00604E-24
5.64946E-02 9.30877E-25
5.85262E-02 8.62318E-25
6.05914E-02 7.99686E-25
6.26901E-02 7.42384E-25
6.48222E-02 6.89886E-25
6.69873E-02 6.41725E-25
6.91854E-02 5.97485E-25
7.14163E-02 5.56796E-25
7.36799E-02 5.19329E-25
7.59760E-02 4.84787E-25
7.83043E-02 4.52907E-25
8.06647E-02 4.23452E-25
8.30571E-02 3.96209E-25
8.54812E-02 3.70986E-25
8.79369E-02 3.47611E-25
9.04240E-02 3.25928E-25
9.29422E-02 3.05796E-25
9.54915E-02 2.87088E-25
9.80716E-02 2.69687E-25
1.00682E-01 2.53490E-25
1.03323E-01 2.38400E-25
1.05995E-01 2.24332E-25
1.08696E-01 2.11206E-25
1.11427E-01 1.98949E-25
1.14188E-01 1.87498E-25
1.16978E-01 1.76790E-25
1.19797E-01 1.66771E-25
1.22645E-01 1.57392E-25
1.25522E-01 1.48604E-25
1.28428E-01 1.40367E-25
1.31361E-01 1.32641E-25
1.34323E-01 1.25390E-25
1.37313E-01 1.18581E-25
1.40330E-01 1.12183E-25
1.43375E-01 1.06170E-25
1.46447E-01 1.00514E-25
1.49545E-01 9.51915E-26
1.52671E-01 9.01810E-26
1.55823E-01 8.54618E-26
1.59001E-01 8.10148E-26
1.62205E-01 7.68224E-26
1.65435E-01 7.28684E-26
1.68690E-01 6.91377E-26
1.71970E-01 6.56162E-26
1.75276E-01 6.22908E-26
1.78606E-01 5.91494E-26
1.81961E-01 5.61807E-26
1.85340E-01 5.33742E-26
1.88743E-01 5.07200E-26
1.92169E-01 4.82091E-26
1.95619E-01 4.58328E-26
1.99092E-01 4.35832E-26
2.02589E-01 4.14530E-26
2.06107E-01 3.94350E-26
2.09649E-01 3.75228E-26
2.13212E-01 3.57104E-26
2.16797E-01 3.39920E-26
2.20404E-01 3.23623E-26
2.24032E-01 3.08162E-26
2.27680E-01 2.93492E-26
2.31350E-01 2.79568E-26
2.35040E-01 2.66348E-26
2.38751E-01 2.53795E-26
2.42481E-01 2.41870E-26
2.46231E-01 2.30542E-26
2.50000E-01 2.19776E-26
2.53788E-01 2.09543E-26
2.57595E-01 1.99814E-26
2.61421E-01 1.90563E-26
2.65264E-01 1.81765E-26
2.69126E-01 1.73395E-26
2.73005E-01 1.65431E-26
2.76901E-01 1.57851E-26
2.80814E-01 1.50637E-26
2.84744E-01 1.43769E-26
2.88691E-01 1.37230E-26
2.92653E-01 1.31002E-26
2.96632E-01 1.25070E-26
3.00625E-01 1.19419E-26
3.04634E-01 1.14035E-26
3.08658E-01 1.08903E-26
3.12697E-01 1.04013E-26
3.16749E-01 9.93513E-27
3.20816E-01 9.49069E-27
3.24896E-01 9.06692E-27
3.28990E-01 8.66280E-27
3.33097E-01 8.27737E-27
3.37216E-01 7.90971E-27
3.41348E-01 7.55897E-27
3.45492E-01 7.22433E-27
3.49647E-01 6.90500E-27
3.53814E-01 6.60026E-27
3.57992E-01 6.30940E-27
3.62181E-01 6.03176E-27
3.66381E-01 5.76672E-27
3.70590E-01 5.51367E-27
3.74810E-01 5.27205E-27
3.79039E-01 5.04132E-27
3.83277E-01 4.82097E-27
3.87524E-01 4.61051E-27
3.91780E-01 4.40949E-27
3.96044E-01 4.21745E-27
4.00316E-01 4.03399E-27
4.04596E-01 3.85871E-27
4.08882E-01 3.69122E-27
4.13176E-01 3.53118E-27
4.17476E-01 3.37823E-27
4.21783E-01 3.23205E-27
4.26095E-01 3.09234E-27
4.30413E-01 2.95879E-27
4.34737E-01 2.83113E-27
4.39065E-01 2.70910E-27
4.43398E-01 2.59242E-27
4.47736E-01 2.48087E-27
4.52077E-01 2.37421E-27
4.56422E-01 2.27222E-27
4.60770E-01 2.17469E-27
4.65122E-01 2.08142E-27
4.69476E-01 1.99222E-27
4.73832E-01 1.90691E-27
4.78190E-01 1.82531E-27
4.82550E-01 1.74727E-27
4.86912E-01 1.67261E-27
4.91274E-01 1.60120E-27
4.95637E-01 1.53288E-27
5.00000E-01 1.46752E-27
5.04363E-01 1.40499E-27
5.08726E-01 1.34516E-27
5.13088E-01 1.28792E-27
5.17450E-01 1.23315E-27
5.21810E-01 1.18075E-27
5.26168E-01 1.13060E-27
5.30524E-01 1.08261E-27
5.34878E-01 1.03669E-27
5.39230E-01 9.92744E-28
5.43578E-01 9.50686E-28
5.47923E-01 9.10435E-28
5.52264E-01 8.71911E-28
5.56602E-01 8.35040E-28
5.60935E-01 7.99750E-28
5.65263E-01 7.65972E-28
5.69587E-01 7.33640E-28
5.73905E-01 7.02691E-28
5.78217E-01 6.73066E-28
5.82524E-01 6.44708E-28
5.86824E-01 6.17560E-28
5.91118E-01 5.91572E-28
5.95404E-01 5.66694E-28
5.99684E-01 5.42876E-28
6.03956E-01 5.20074E-28
6.08220E-01 4.98243E-28
6.12476E-01 4.77342E-28
6.16723E-01 4.57331E-28
6.20961E-01 4.38171E-28
6.25190E-01 4.19826E-28
6.29410E-01 4.02261E-28
6.33619E-01 3.85442E-28
6.37819E-01 3.69338E-28
6.42008E-01 3.53917E-28
6.46186E-01 3.39150E-28
6.50353E-01 3.25010E-28
6.54508E-01 3.11468E-28
6.58652E-01 2.98501E-28
6.62784E-01 2.86083E-28
6.66903E-01 2.74190E-28
6.71010E-01 2.62800E-28
6.75104E-01 2.51892E-28
6.79184E-01 2.41445E-28
6.83251E-01 2.31439E-28
6.87303E-01 2.21855E-28
6.91342E-01 2.12676E-28
6.95366E-01 2.03884E-28
6.99375E-01 1.95462E-28
7.03368E-01 1.87395E-28
7.07347E-01 1.79667E-28
7.11309E-01 1.72265E-28
7.15256E-01 1.65174E-28
7.19186E-01 1.58380E-28
7.23099E-01 1.51872E-28
7.26995E-01 1.45637E-28
7.30874E-01 1.39663E-28
7.34736E-01 1.33939E-28
7.38579E-01 1.28455E-28
7.42405E-01 1.23200E-28
7.46212E-01 1.18165E-28
7.50000E-01 1.13340E-28
7.53769E-01 1.08716E-28
7.57519E-01 1.04285E-28
7.61249E-01 1.00038E-28
7.64960E-01 9.59677E-29
7.68650E-01 9.20667E-29
7.72320E-01 8.83275E-29
7.75968E-01 8.47434E-29
7.79596E-01 8.13076E-29
7.83203E-01 7.80139E-29
7.86788E-01 7.48562E-29
7.90351E-01 7.18288E-29
7.93893E-01 6.89262E-29
7.97411E-01 6.61429E-29
8.00908E-01 6.34740E-29
8.04381E-01 6.09146E-29
8.07831E-01 5.84600E-29
8.11257E-01 5.61058E-29
8.14660E-01 5.38477E-29
8.18039E-01 5.16817E-29
8.21394E-01 4.96039E-29
8.24724E-01 4.76105E-29
8.28030E-01 4.56979E-29
8.31310E-01 4.38627E-29
8.34565E-01 4.21017E-29
8.37795E-01 4.04118E-29
8.40999E-01 3.87898E-29
8.44177E-01 3.72330E-29
8.47329E-01 3.57386E-29
8.50455E-01 3.43040E-29
8.53553E-01 3.29267E-29
8.56625E-01 3.16042E-29
8.59670E-01 3.03342E-29
8.62687E-01 2.91146E-29
8.65677E-01 2.79432E-29
8.68639E-01 2.68181E-29
8.71572E-01 2.57372E-29
8.74478E-01 2.46988E-29
8.77355E-01 2.37011E-29
8.80203E-01 2.27423E-29
8.83022E-01 2.18209E-29
8.85812E-01 2.09353E-29
8.88573E-01 2.00841E-29
8.91304E-01 1.92658E-29
8.94005E-01 1.84790E-29
8.96677E-01 1.77225E-29
8.99318E-01 1.69950E-29
9.01928E-01 1.62953E-29
9.04508E-01 1.56224E-29
9.07058E-01 1.49750E-29
9.09576E-01 1.43523E-29
9.12063E-01 1.37531E-29
9.14519E-01 1.31765E-29
9.16943E-01 1.26217E-29
9.19335E-01 1.20878E-29
9.21696E-01 1.15738E-29
9.24024E-01 1.10791E-29
9.26320E-01 1.06029E-29
9.28584E-01 1.01444E-29
9.30815E-01 9.70300E-30
9.33013E-01 9.27796E-30
9.35178E-01 8.86868E-30
9.37310E-01 8.47455E-30
9.39409E-01 8.09499E-30
9.41474E-01 7.72944E-30
9.43505E-01 7.37738E-30
9.45503E-01 7.03830E-30
9.47467E-01 6.71171E-30
9.49397E-01 6.39717E-30
9.51293E-01 6.09422E-30
9.53154E-01 5.80244E-30
9.54981E-01 5.52143E-30
9.56773E-01 5.25081E-30
9.58530E-01 4.99020E-30
9.60252E-01 4.73927E-30
9.61940E-01 4.49767E-30
9.63592E-01 4.26508E-30
9.65209E-01 4.04121E-30
9.66790E-01 3.82575E-30
9.68336E-01 3.61844E-30
9.69846E-01 3.41900E-30
9.71321E-01 3.22718E-30
9.72759E-01 3.04276E-30
9.74162E-01 2.86548E-30
9.75528E-01 2.69514E-30
9.76858E-01 2.53153E-30
9.78152E-01 2.37445E-30
9.79410E-01 2.22371E-30
9.80631E-01 2.07913E-30
9.81815E-01 1.94054E-30
9.82963E-01 1.80778E-30
9.84074E-01 1.68069E-30
9.85148E-01 1.55913E-30
9.86185E-01 1.44296E-30
9.87185E-01 1.33205E-30
9.88148E-01 1.22627E-30
9.89074E-01 1.12550E-30
9.89962E-01 1.02964E-30
9.90814E-01 9.38569E-31
9.91627E-01 8.52199E-31
9.92404E-01 7.70432E-31
9.93143E-01 6.93180E-31
9.93844E-01 6.20361E-31
9.94508E-01 5.51897E-31
9.95134E-01 4.87715E-31
9.95722E-01 4.27749E-31
9.96273E-01 3.71934E-31
9.96786E-01 3.20214E-31
9.97261E-01 2.72534E-31
9.97698E-01 2.28846E-31
9.98097E-01 1.89104E-31
9.98459E-01 1.53267E-31
9.98782E-01 1.21299E-31
9.99067E-01 9.31681E-32
9.99315E-01 6.88449E-32
9.99524E-01 4.83051E-32
9.99695E-01 3.15279E-32
9.99829E-01 1.84965E-32
9.99924E-01 9.19767E-33
9.99981E-01 3.62206E-33
1.00000E+00 1.76432E-33
