 #
 # Subroutine ELSEPA. Elastic scattering of electrons and positrons
 #                    by neutral atoms and positive ions
 #
 # Projectile: electron
 # Kinetic energy = 8.00000E+08 eV = 2.93995E+07 a.u.
 #
 # WARNING: High-energy factorization with free-atom DF screening.
 #          Absorption, polarization and exchange corrections are
 #          switched off.
 #          Phase shifts are calculated for the bare nucleus.
 #          Scattering amplitudes are not evaluated.
 #
 # Element: Pd,  Z =  46,  atomic weight = 1.06420E+02 g/mol
 #
 # Nuclear model: Fermi distribution
 #                Average radius = 5.07059E-13 cm
 #                Skin thickness = 5.46000E-14 cm
 #
 # Number of electrons = 46
 #
 # Total elastic cross section = 4.05213E-18 cm**2 = 1.44704E-01 a0**2
 # 1st transport cross section = 6.54090E-27 cm**2 = 2.33580E-10 a0**2
 # 2nd transport cross section = 1.96196E-26 cm**2 = 7.00627E-10 a0**2
 #
 #
 # Differential cross section:                       MU=(1-COS(THETA))/2
 #
 #  THETA        MU          DCS          DCS        Sherman      error
 #  (deg)                 (cm**2/sr)   (a0**2/sr)    function
 #----------------------------------------------------------------------
0.00000E+00 1.36327E-08
7.61557E-13 1.26158E-08
1.18994E-12 1.20995E-08
1.71346E-12 1.15175E-08
2.33225E-12 1.08891E-08
3.04617E-12 1.02330E-08
3.85530E-12 9.56931E-09
4.75964E-12 8.90612E-09
5.75917E-12 8.26314E-09
6.85391E-12 7.63799E-09
8.04379E-12 7.04796E-09
9.32893E-12 6.48590E-09
1.07092E-11 5.96303E-09
1.21847E-11 5.47356E-09
1.37554E-11 5.02142E-09
1.54213E-11 4.60323E-09
1.71823E-11 4.21846E-09
1.90386E-11 3.86553E-09
2.09900E-11 3.54144E-09
2.30367E-11 3.24584E-09
2.51785E-11 2.97462E-09
2.74156E-11 2.72816E-09
2.97478E-11 2.50204E-09
3.21752E-11 2.29678E-09
3.46979E-11 2.10893E-09
3.73157E-11 1.92830E-09
4.00286E-11 1.76194E-09
4.28368E-11 1.61603E-09
4.57402E-11 1.48757E-09
4.87388E-11 1.37405E-09
5.18325E-11 1.27339E-09
5.50215E-11 1.18381E-09
5.83057E-11 1.09253E-09
6.16850E-11 1.00727E-09
6.51595E-11 9.31227E-10
6.87293E-11 8.63196E-10
7.23943E-11 8.02164E-10
7.61544E-11 7.47262E-10
1.18991E-10 3.80089E-10
1.71347E-10 2.14286E-10
2.33223E-10 1.31857E-10
3.04617E-10 8.66598E-11
3.85531E-10 5.97518E-11
4.75965E-10 4.25442E-11
5.75917E-10 3.10855E-11
6.85389E-10 2.31192E-11
8.04380E-10 1.75033E-11
9.32891E-10 1.34379E-11
1.07092E-09 1.04637E-11
1.21847E-09 8.25533E-12
1.37554E-09 6.59708E-12
1.54213E-09 5.33367E-12
1.71823E-09 4.35885E-12
1.90386E-09 3.59780E-12
2.09900E-09 2.99695E-12
2.30367E-09 2.51797E-12
2.51785E-09 2.13207E-12
2.74156E-09 1.81837E-12
2.97478E-09 1.56072E-12
3.21752E-09 1.34758E-12
3.46978E-09 1.16975E-12
3.73156E-09 1.02009E-12
4.00286E-09 8.93893E-13
4.28368E-09 7.87223E-13
4.57402E-09 6.95427E-13
4.87388E-09 6.16827E-13
5.18326E-09 5.49262E-13
5.50215E-09 4.90235E-13
5.83057E-09 4.39131E-13
6.16850E-09 3.94506E-13
6.51596E-09 3.55244E-13
6.87293E-09 3.20861E-13
7.23942E-09 2.90436E-13
7.61544E-09 2.63496E-13
1.18991E-08 1.11037E-13
1.71347E-08 5.44114E-14
2.33223E-08 2.96901E-14
3.04617E-08 1.75511E-14
3.85531E-08 1.10333E-14
4.75965E-08 7.28136E-15
5.75917E-08 4.99802E-15
6.85389E-08 3.54382E-15
8.04380E-08 2.58212E-15
9.32891E-08 1.92558E-15
1.07092E-07 1.46498E-15
1.21847E-07 1.13417E-15
1.37554E-07 8.91633E-16
1.54213E-07 7.10555E-16
1.71823E-07 5.73170E-16
1.90386E-07 4.67420E-16
2.09900E-07 3.84954E-16
2.30367E-07 3.19887E-16
2.51785E-07 2.67996E-16
2.74156E-07 2.26206E-16
2.97478E-07 1.92249E-16
3.21752E-07 1.64427E-16
3.46978E-07 1.41458E-16
3.73156E-07 1.22362E-16
4.00286E-07 1.06380E-16
4.28368E-07 9.29229E-17
4.57402E-07 8.15272E-17
4.87388E-07 7.18254E-17
5.18325E-07 6.35242E-17
5.50215E-07 5.63879E-17
5.83057E-07 5.02259E-17
6.16850E-07 4.48827E-17
6.51596E-07 4.02314E-17
6.87293E-07 3.61671E-17
7.23942E-07 3.26032E-17
7.61543E-07 2.94675E-17
1.18991E-06 1.20827E-17
1.71347E-06 5.83055E-18
2.33223E-06 3.14853E-18
3.04617E-06 1.84621E-18
3.85531E-06 1.15290E-18
4.75964E-06 7.56595E-19
5.75916E-06 5.16877E-19
6.85388E-06 3.65024E-19
8.04378E-06 2.65069E-19
9.32888E-06 1.97107E-19
1.07092E-05 1.49599E-19
1.21846E-05 1.15582E-19
1.37553E-05 9.07089E-20
1.54212E-05 7.21826E-20
1.71822E-05 5.81544E-20
1.90385E-05 4.73647E-20
2.09899E-05 3.89851E-20
2.30365E-05 3.23776E-20
2.51783E-05 2.71095E-20
2.74153E-05 2.28680E-20
2.97475E-05 1.94233E-20
3.21749E-05 1.66035E-20
3.46974E-05 1.42781E-20
3.73152E-05 1.23470E-20
4.00281E-05 1.07324E-20
4.28362E-05 9.37373E-21
4.57395E-05 8.22352E-21
4.87380E-05 7.24430E-21
5.18317E-05 6.40638E-21
5.50205E-05 5.68603E-21
5.83045E-05 5.06410E-21
6.16838E-05 4.52499E-21
6.51582E-05 4.05587E-21
6.87277E-05 3.64614E-21
7.23925E-05 3.28695E-21
7.61524E-05 2.94944E-21
9.21439E-05 2.00805E-21
1.09658E-04 1.41217E-21
1.28695E-04 1.02050E-21
1.49255E-04 7.54544E-22
1.71338E-04 5.69031E-22
1.94942E-04 4.36493E-22
2.20070E-04 3.39848E-22
2.46720E-04 2.68091E-22
2.74892E-04 2.13945E-22
3.04586E-04 1.72509E-22
3.35803E-04 1.40387E-22
3.68542E-04 1.15199E-22
4.02802E-04 9.52413E-23
4.38585E-04 7.92773E-23
4.75889E-04 6.63981E-23
5.14715E-04 5.59245E-23
5.55063E-04 4.73462E-23
5.96931E-04 4.02729E-23
6.40321E-04 3.44049E-23
6.85233E-04 2.95092E-23
7.31665E-04 2.54030E-23
7.79618E-04 2.19424E-23
8.29092E-04 1.90126E-23
8.80086E-04 1.65217E-23
9.32601E-04 1.43957E-23
9.86636E-04 1.25744E-23
1.04219E-03 1.10088E-23
1.09927E-03 9.65876E-24
1.15786E-03 8.49108E-24
1.21797E-03 7.47829E-24
1.27961E-03 6.59755E-24
1.34276E-03 5.82975E-24
1.40743E-03 5.15885E-24
1.47362E-03 4.57138E-24
1.54133E-03 4.05589E-24
1.61056E-03 3.60273E-24
1.68131E-03 3.20363E-24
1.75357E-03 2.85155E-24
1.82735E-03 2.54048E-24
1.90265E-03 2.26523E-24
1.97947E-03 2.02135E-24
2.05780E-03 1.80497E-24
2.13765E-03 1.61277E-24
2.21902E-03 1.44185E-24
2.30190E-03 1.28971E-24
2.38630E-03 1.15414E-24
2.47222E-03 1.03323E-24
2.55965E-03 9.25307E-25
2.64859E-03 8.28904E-25
2.73905E-03 7.42727E-25
2.83103E-03 6.65645E-25
2.92452E-03 5.96655E-25
3.01952E-03 5.34876E-25
3.11604E-03 4.79527E-25
3.21407E-03 4.29919E-25
3.31362E-03 3.85439E-25
3.41468E-03 3.45544E-25
3.51725E-03 3.09752E-25
3.62133E-03 2.77633E-25
3.72692E-03 2.48805E-25
3.83403E-03 2.22928E-25
3.94265E-03 1.99696E-25
4.05278E-03 1.78839E-25
4.16442E-03 1.60114E-25
4.27757E-03 1.43303E-25
4.39223E-03 1.28212E-25
4.50840E-03 1.14666E-25
4.62608E-03 1.02509E-25
4.74527E-03 9.16015E-26
4.86597E-03 8.18165E-26
4.98817E-03 7.30413E-26
5.11188E-03 6.51740E-26
5.23711E-03 5.81234E-26
5.36383E-03 5.18071E-26
5.49207E-03 4.61512E-26
5.62181E-03 4.10890E-26
5.75306E-03 3.65606E-26
5.88581E-03 3.25120E-26
6.02007E-03 2.88945E-26
6.15583E-03 2.56643E-26
6.29310E-03 2.27819E-26
6.43187E-03 2.02118E-26
6.57214E-03 1.79217E-26
6.71392E-03 1.58830E-26
6.85720E-03 1.40695E-26
7.00198E-03 1.24578E-26
7.14827E-03 1.10268E-26
7.29605E-03 9.75742E-27
7.44534E-03 8.63262E-27
7.59612E-03 7.63696E-27
7.97965E-03 5.62519E-27
8.37255E-03 4.15657E-27
8.77480E-03 3.09255E-27
9.18641E-03 2.32760E-27
9.60736E-03 1.78174E-27
1.00376E-02 1.39466E-27
1.04773E-02 1.12128E-27
1.09262E-02 9.28120E-28
1.13844E-02 7.90635E-28
1.18520E-02 6.91021E-28
1.23288E-02 6.16577E-28
1.28150E-02 5.58409E-28
1.33104E-02 5.10446E-28
1.38150E-02 4.68675E-28
1.43290E-02 4.30559E-28
1.48521E-02 3.94604E-28
1.53845E-02 3.60026E-28
1.59262E-02 3.26509E-28
1.64770E-02 2.94027E-28
1.70371E-02 2.62718E-28
1.76063E-02 2.32796E-28
1.81848E-02 2.04492E-28
1.87724E-02 1.78015E-28
1.93692E-02 1.53531E-28
1.99751E-02 1.31153E-28
2.05901E-02 1.10939E-28
2.12143E-02 9.28924E-29
2.18476E-02 7.69689E-29
2.24900E-02 6.30844E-29
2.31415E-02 5.11230E-29
2.38021E-02 4.09450E-29
2.44717E-02 3.23951E-29
2.51504E-02 2.53092E-29
2.58382E-02 1.95207E-29
2.65349E-02 1.48653E-29
2.72407E-02 1.11851E-29
2.79555E-02 8.33161E-30
2.86793E-02 6.16783E-30
2.94120E-02 4.56979E-30
3.01537E-02 3.42713E-30
3.09043E-02 2.64323E-30
3.16639E-02 2.13498E-30
3.24324E-02 1.83210E-30
3.32098E-02 1.67626E-30
3.39961E-02 1.62004E-30
3.47912E-02 1.62580E-30
3.55952E-02 1.66443E-30
3.64081E-02 1.71423E-30
3.72297E-02 1.75973E-30
3.80602E-02 1.79059E-30
3.88995E-02 1.80069E-30
3.97476E-02 1.78715E-30
4.06044E-02 1.74960E-30
4.14700E-02 1.68950E-30
4.23443E-02 1.60954E-30
4.32273E-02 1.51316E-30
4.41190E-02 1.40420E-30
4.50194E-02 1.28659E-30
4.59284E-02 1.16411E-30
4.68461E-02 1.04022E-30
4.87074E-02 7.99962E-31
5.06030E-02 5.84424E-31
5.25328E-02 4.04386E-31
5.44967E-02 2.63761E-31
5.64946E-02 1.61230E-31
5.85262E-02 9.20574E-32
6.05914E-02 4.97377E-32
6.26901E-02 2.73186E-32
6.48222E-02 1.83284E-32
6.69873E-02 1.73300E-32
6.91854E-02 2.01612E-32
7.14163E-02 2.39412E-32
7.36799E-02 2.69244E-32
7.59760E-02 2.82730E-32
7.83043E-02 2.78043E-32
8.06647E-02 2.57522E-32
8.30571E-02 2.25659E-32
8.54812E-02 1.87585E-32
8.79369E-02 1.48033E-32
9.04240E-02 1.10755E-32
9.29422E-02 7.82915E-33
9.54915E-02 5.19871E-33
9.80716E-02 3.21737E-33
1.00682E-01 1.84272E-33
1.03323E-01 9.84133E-34
1.05995E-01 5.27612E-34
1.08696E-01 3.55744E-34
1.11427E-01 3.61773E-34
1.14188E-01 4.57989E-34
1.16978E-01 5.79226E-34
1.19797E-01 6.82616E-34
1.22645E-01 7.44851E-34
1.25522E-01 7.58074E-34
1.28428E-01 7.25329E-34
1.31361E-01 6.56255E-34
1.34323E-01 5.63446E-34
1.37313E-01 4.59690E-34
1.40330E-01 3.56124E-34
1.43375E-01 2.61222E-34
1.46447E-01 1.80459E-34
1.49545E-01 1.16470E-34
1.52671E-01 6.95276E-35
1.55823E-01 3.81602E-35
1.59001E-01 1.98061E-35
1.62205E-01 1.14010E-35
1.65435E-01 9.85144E-36
1.68690E-01 1.23729E-35
1.71970E-01 1.66927E-35
1.75276E-01 2.11358E-35
1.78606E-01 2.46179E-35
1.81961E-01 2.65764E-35
1.85340E-01 2.68636E-35
1.88743E-01 2.56278E-35
1.92169E-01 2.31978E-35
1.95619E-01 1.99835E-35
1.99092E-01 1.63980E-35
2.02589E-01 1.28045E-35
2.06107E-01 9.48458E-36
2.09649E-01 6.62734E-36
2.13212E-01 4.33151E-36
2.16797E-01 2.61836E-36
2.20404E-01 1.44973E-36
2.24032E-01 7.47711E-37
2.27680E-01 4.13278E-37
2.31350E-01 3.42062E-37
2.35040E-01 4.36281E-37
2.38751E-01 6.12635E-37
2.42481E-01 8.06473E-37
2.46231E-01 9.72839E-37
2.50000E-01 1.08519E-36
2.53788E-01 1.13260E-36
2.57595E-01 1.11614E-36
2.61421E-01 1.04508E-36
2.65264E-01 9.33355E-37
2.69126E-01 7.96590E-37
2.73005E-01 6.49768E-37
2.76901E-01 5.05699E-37
2.80814E-01 3.74150E-37
2.84744E-01 2.61557E-37
2.88691E-01 1.71190E-37
2.92653E-01 1.03612E-37
2.96632E-01 5.72985E-38
3.00625E-01 1.00000E-45
3.04634E-01 1.00000E-45
3.08658E-01 1.00000E-45
3.12697E-01 1.00000E-45
3.16749E-01 1.00000E-45
3.20816E-01 1.00000E-45
3.24896E-01 1.00000E-45
3.28990E-01 1.00000E-45
3.33097E-01 1.00000E-45
3.37216E-01 1.00000E-45
3.41348E-01 1.00000E-45
3.45492E-01 1.00000E-45
3.49647E-01 1.00000E-45
3.53814E-01 1.00000E-45
3.57992E-01 1.00000E-45
3.62181E-01 1.00000E-45
3.66381E-01 1.00000E-45
3.70590E-01 1.00000E-45
3.74810E-01 1.00000E-45
3.79039E-01 1.00000E-45
3.83277E-01 1.00000E-45
3.87524E-01 1.00000E-45
3.91780E-01 1.00000E-45
3.96044E-01 1.00000E-45
4.00316E-01 1.00000E-45
4.04596E-01 1.00000E-45
4.08882E-01 1.00000E-45
4.13176E-01 1.00000E-45
4.17476E-01 1.00000E-45
4.21783E-01 1.00000E-45
4.26095E-01 1.00000E-45
4.30413E-01 1.00000E-45
4.34737E-01 1.00000E-45
4.39065E-01 1.00000E-45
4.43398E-01 1.00000E-45
4.47736E-01 1.00000E-45
4.52077E-01 1.00000E-45
4.56422E-01 1.00000E-45
4.60770E-01 1.00000E-45
4.65122E-01 1.00000E-45
4.69476E-01 1.00000E-45
4.73832E-01 1.00000E-45
4.78190E-01 1.00000E-45
4.82550E-01 1.00000E-45
4.86912E-01 1.00000E-45
4.91274E-01 1.00000E-45
4.95637E-01 1.00000E-45
5.00000E-01 1.00000E-45
5.04363E-01 1.00000E-45
5.08726E-01 1.00000E-45
5.13088E-01 1.00000E-45
5.17450E-01 1.00000E-45
5.21810E-01 1.00000E-45
5.26168E-01 1.00000E-45
5.30524E-01 1.00000E-45
5.34878E-01 1.00000E-45
5.39230E-01 1.00000E-45
5.43578E-01 1.00000E-45
5.47923E-01 1.00000E-45
5.52264E-01 1.00000E-45
5.56602E-01 1.00000E-45
5.60935E-01 1.00000E-45
5.65263E-01 1.00000E-45
5.69587E-01 1.00000E-45
5.73905E-01 1.00000E-45
5.78217E-01 1.00000E-45
5.82524E-01 1.00000E-45
5.86824E-01 1.00000E-45
5.91118E-01 1.00000E-45
5.95404E-01 1.00000E-45
5.99684E-01 1.00000E-45
6.03956E-01 1.00000E-45
6.08220E-01 1.00000E-45
6.12476E-01 1.00000E-45
6.16723E-01 1.00000E-45
6.20961E-01 1.00000E-45
6.25190E-01 1.00000E-45
6.29410E-01 1.00000E-45
6.33619E-01 1.00000E-45
6.37819E-01 1.00000E-45
6.42008E-01 1.00000E-45
6.46186E-01 1.00000E-45
6.50353E-01 1.00000E-45
6.54508E-01 1.00000E-45
6.58652E-01 1.00000E-45
6.62784E-01 1.00000E-45
6.66903E-01 1.00000E-45
6.71010E-01 1.00000E-45
6.75104E-01 1.00000E-45
6.79184E-01 1.00000E-45
6.83251E-01 1.00000E-45
6.87303E-01 1.00000E-45
6.91342E-01 1.00000E-45
6.95366E-01 1.00000E-45
6.99375E-01 1.00000E-45
7.03368E-01 1.00000E-45
7.07347E-01 1.00000E-45
7.11309E-01 1.00000E-45
7.15256E-01 1.00000E-45
7.19186E-01 1.00000E-45
7.23099E-01 1.00000E-45
7.26995E-01 1.00000E-45
7.30874E-01 1.00000E-45
7.34736E-01 1.00000E-45
7.38579E-01 1.00000E-45
7.42405E-01 1.00000E-45
7.46212E-01 1.00000E-45
7.50000E-01 1.00000E-45
7.53769E-01 1.00000E-45
7.57519E-01 1.00000E-45
7.61249E-01 1.00000E-45
7.64960E-01 1.00000E-45
7.68650E-01 1.00000E-45
7.72320E-01 1.00000E-45
7.75968E-01 1.00000E-45
7.79596E-01 1.00000E-45
7.83203E-01 1.00000E-45
7.86788E-01 1.00000E-45
7.90351E-01 1.00000E-45
7.93893E-01 1.00000E-45
7.97411E-01 1.00000E-45
8.00908E-01 1.00000E-45
8.04381E-01 1.00000E-45
8.07831E-01 1.00000E-45
8.11257E-01 1.00000E-45
8.14660E-01 1.00000E-45
8.18039E-01 1.00000E-45
8.21394E-01 1.00000E-45
8.24724E-01 1.00000E-45
8.28030E-01 1.00000E-45
8.31310E-01 1.00000E-45
8.34565E-01 1.00000E-45
8.37795E-01 1.00000E-45
8.40999E-01 1.00000E-45
8.44177E-01 1.00000E-45
8.47329E-01 1.00000E-45
8.50455E-01 1.00000E-45
8.53553E-01 1.00000E-45
8.56625E-01 1.00000E-45
8.59670E-01 1.00000E-45
8.62687E-01 1.00000E-45
8.65677E-01 1.00000E-45
8.68639E-01 1.00000E-45
8.71572E-01 1.00000E-45
8.74478E-01 1.00000E-45
8.77355E-01 1.00000E-45
8.80203E-01 1.00000E-45
8.83022E-01 1.00000E-45
8.85812E-01 1.00000E-45
8.88573E-01 1.00000E-45
8.91304E-01 1.00000E-45
8.94005E-01 1.00000E-45
8.96677E-01 1.00000E-45
8.99318E-01 1.00000E-45
9.01928E-01 1.00000E-45
9.04508E-01 1.00000E-45
9.07058E-01 1.00000E-45
9.09576E-01 1.00000E-45
9.12063E-01 1.00000E-45
9.14519E-01 1.00000E-45
9.16943E-01 1.00000E-45
9.19335E-01 1.00000E-45
9.21696E-01 1.00000E-45
9.24024E-01 1.00000E-45
9.26320E-01 1.00000E-45
9.28584E-01 1.00000E-45
9.30815E-01 1.00000E-45
9.33013E-01 1.00000E-45
9.35178E-01 1.00000E-45
9.37310E-01 1.00000E-45
9.39409E-01 1.00000E-45
9.41474E-01 1.00000E-45
9.43505E-01 1.00000E-45
9.45503E-01 1.00000E-45
9.47467E-01 1.00000E-45
9.49397E-01 1.00000E-45
9.51293E-01 1.00000E-45
9.53154E-01 1.00000E-45
9.54981E-01 1.00000E-45
9.56773E-01 1.00000E-45
9.58530E-01 1.00000E-45
9.60252E-01 1.00000E-45
9.61940E-01 1.00000E-45
9.63592E-01 1.00000E-45
9.65209E-01 1.00000E-45
9.66790E-01 1.00000E-45
9.68336E-01 1.00000E-45
9.69846E-01 1.00000E-45
9.71321E-01 1.00000E-45
9.72759E-01 1.00000E-45
9.74162E-01 1.00000E-45
9.75528E-01 1.00000E-45
9.76858E-01 1.00000E-45
9.78152E-01 1.00000E-45
9.79410E-01 1.00000E-45
9.80631E-01 1.00000E-45
9.81815E-01 1.00000E-45
9.82963E-01 1.00000E-45
9.84074E-01 1.00000E-45
9.85148E-01 1.00000E-45
9.86185E-01 1.00000E-45
9.87185E-01 1.00000E-45
9.88148E-01 1.00000E-45
9.89074E-01 1.00000E-45
9.89962E-01 1.00000E-45
9.90814E-01 1.00000E-45
9.91627E-01 1.00000E-45
9.92404E-01 1.00000E-45
9.93143E-01 1.00000E-45
9.93844E-01 1.00000E-45
9.94508E-01 1.00000E-45
9.95134E-01 1.00000E-45
9.95722E-01 1.00000E-45
9.96273E-01 1.00000E-45
9.96786E-01 1.00000E-45
9.97261E-01 1.00000E-45
9.97698E-01 1.00000E-45
9.98097E-01 1.00000E-45
9.98459E-01 1.00000E-45
9.98782E-01 1.00000E-45
9.99067E-01 1.00000E-45
9.99315E-01 1.00000E-45
9.99524E-01 1.00000E-45
9.99695E-01 1.00000E-45
9.99829E-01 1.00000E-45
9.99924E-01 1.00000E-45
9.99981E-01 1.00000E-45
1.00000E+00 1.00000E-45
