 #
 # Subroutine ELSEPA. Elastic scattering of electrons and positrons
 #                    by neutral atoms and positive ions
 #
 # Projectile: electron
 # Kinetic energy = 5.00000E+06 eV = 1.83747E+05 a.u.
 #
 # WARNING: High-energy factorization with free-atom DF screening.
 #          Absorption, polarization and exchange corrections are
 #          switched off.
 #          Phase shifts are calculated for the bare nucleus.
 #          Scattering amplitudes are not evaluated.
 #
 # Element: Pd,  Z =  46,  atomic weight = 1.06420E+02 g/mol
 #
 # Nuclear model: Fermi distribution
 #                Average radius = 5.07059E-13 cm
 #                Skin thickness = 5.46000E-14 cm
 #
 # Number of electrons = 46
 #
 # Total elastic cross section = 4.10168E-18 cm**2 = 1.46474E-01 a0**2
 # 1st transport cross section = 1.11943E-22 cm**2 = 3.99757E-06 a0**2
 # 2nd transport cross section = 3.13272E-22 cm**2 = 1.11871E-05 a0**2
 #
 #
 # Differential cross section:                       MU=(1-COS(THETA))/2
 #
 #  THETA        MU          DCS          DCS        Sherman      error
 #  (deg)                 (cm**2/sr)   (a0**2/sr)    function
 #----------------------------------------------------------------------
0.00000E+00 6.46113E-13
7.61557E-13 6.46111E-13
1.18994E-12 6.46110E-13
1.71346E-12 6.46108E-13
2.33225E-12 6.46106E-13
3.04617E-12 6.46104E-13
3.85530E-12 6.46101E-13
4.75964E-12 6.46098E-13
5.75917E-12 6.46095E-13
6.85391E-12 6.46092E-13
8.04379E-12 6.46088E-13
9.32893E-12 6.46084E-13
1.07092E-11 6.46079E-13
1.21847E-11 6.46075E-13
1.37554E-11 6.46070E-13
1.54213E-11 6.46064E-13
1.71823E-11 6.46059E-13
1.90386E-11 6.46053E-13
2.09900E-11 6.46047E-13
2.30367E-11 6.46040E-13
2.51785E-11 6.46033E-13
2.74156E-11 6.46026E-13
2.97478E-11 6.46019E-13
3.21752E-11 6.46011E-13
3.46979E-11 6.46003E-13
3.73157E-11 6.45995E-13
4.00286E-11 6.45986E-13
4.28368E-11 6.45977E-13
4.57402E-11 6.45968E-13
4.87388E-11 6.45959E-13
5.18325E-11 6.45949E-13
5.50215E-11 6.45939E-13
5.83057E-11 6.45928E-13
6.16850E-11 6.45918E-13
6.51595E-11 6.45907E-13
6.87293E-11 6.45895E-13
7.23943E-11 6.45884E-13
7.61544E-11 6.45872E-13
1.18991E-10 6.45736E-13
1.71347E-10 6.45570E-13
2.33223E-10 6.45374E-13
3.04617E-10 6.45148E-13
3.85531E-10 6.44892E-13
4.75965E-10 6.44606E-13
5.75917E-10 6.44291E-13
6.85389E-10 6.43945E-13
8.04380E-10 6.43570E-13
9.32891E-10 6.43165E-13
1.07092E-09 6.42731E-13
1.21847E-09 6.42268E-13
1.37554E-09 6.41775E-13
1.54213E-09 6.41253E-13
1.71823E-09 6.40702E-13
1.90386E-09 6.40122E-13
2.09900E-09 6.39513E-13
2.30367E-09 6.38876E-13
2.51785E-09 6.38210E-13
2.74156E-09 6.37516E-13
2.97478E-09 6.36794E-13
3.21752E-09 6.36044E-13
3.46978E-09 6.35266E-13
3.73156E-09 6.34460E-13
4.00286E-09 6.33627E-13
4.28368E-09 6.32767E-13
4.57402E-09 6.31880E-13
4.87388E-09 6.30966E-13
5.18326E-09 6.30025E-13
5.50215E-09 6.29058E-13
5.83057E-09 6.28065E-13
6.16850E-09 6.27046E-13
6.51596E-09 6.26001E-13
6.87293E-09 6.24931E-13
7.23942E-09 6.23835E-13
7.61544E-09 6.22714E-13
1.18991E-08 6.10190E-13
1.71347E-08 5.95465E-13
2.33223E-08 5.78838E-13
3.04617E-08 5.60626E-13
3.85531E-08 5.41148E-13
4.75965E-08 5.20715E-13
5.75917E-08 4.99622E-13
6.85389E-08 4.78141E-13
8.04380E-08 4.56515E-13
9.32891E-08 4.34956E-13
1.07092E-07 4.13646E-13
1.21847E-07 3.92736E-13
1.37554E-07 3.72348E-13
1.54213E-07 3.52579E-13
1.71823E-07 3.33500E-13
1.90386E-07 3.15163E-13
2.09900E-07 2.97603E-13
2.30367E-07 2.80837E-13
2.51785E-07 2.64874E-13
2.74156E-07 2.49709E-13
2.97478E-07 2.35332E-13
3.21752E-07 2.21724E-13
3.46978E-07 2.08864E-13
3.73156E-07 1.96725E-13
4.00286E-07 1.85280E-13
4.28368E-07 1.74498E-13
4.57402E-07 1.64350E-13
4.87388E-07 1.54803E-13
5.18325E-07 1.45828E-13
5.50215E-07 1.37393E-13
5.83057E-07 1.29469E-13
6.16850E-07 1.22028E-13
6.51596E-07 1.15041E-13
6.87293E-07 1.08482E-13
7.23942E-07 1.02325E-13
7.61543E-07 9.65471E-14
1.18991E-06 5.50707E-14
1.71347E-06 3.28167E-14
2.33223E-06 2.05492E-14
3.04617E-06 1.35272E-14
3.85531E-06 9.32604E-15
4.75964E-06 6.69125E-15
5.75916E-06 4.96046E-15
6.85388E-06 3.77410E-15
8.04378E-06 2.93043E-15
9.32888E-06 2.31196E-15
1.07092E-05 1.84749E-15
1.21846E-05 1.49200E-15
1.37553E-05 1.21589E-15
1.54212E-05 9.98916E-16
1.71822E-05 8.26777E-16
1.90385E-05 6.89099E-16
2.09899E-05 5.78188E-16
2.30365E-05 4.88243E-16
2.51783E-05 4.14840E-16
2.74153E-05 3.54570E-16
2.97475E-05 3.04785E-16
3.21749E-05 2.63420E-16
3.46974E-05 2.28852E-16
3.73152E-05 1.99801E-16
4.00281E-05 1.75252E-16
4.28362E-05 1.54397E-16
4.57395E-05 1.36588E-16
4.87380E-05 1.21306E-16
5.18317E-05 1.08128E-16
5.50205E-05 9.67150E-17
5.83045E-05 8.67867E-17
6.16838E-05 7.81148E-17
6.51582E-05 7.05109E-17
6.87277E-05 6.38188E-17
7.23925E-05 5.79088E-17
7.61524E-05 5.26725E-17
9.21439E-05 3.68361E-17
1.09658E-04 2.65341E-17
1.28695E-04 1.95889E-17
1.49255E-04 1.47671E-17
1.71338E-04 1.13357E-17
1.94942E-04 8.84128E-18
2.20070E-04 6.99406E-18
2.46720E-04 5.60345E-18
2.74892E-04 4.54102E-18
3.04586E-04 3.71845E-18
3.35803E-04 3.07381E-18
3.68542E-04 2.56299E-18
4.02802E-04 2.15407E-18
4.38585E-04 1.82365E-18
4.75889E-04 1.55432E-18
5.14715E-04 1.33303E-18
5.55063E-04 1.14986E-18
5.96931E-04 9.97177E-19
6.40321E-04 8.69090E-19
6.85233E-04 7.60988E-19
7.31665E-04 6.69236E-19
7.79618E-04 5.90951E-19
8.29092E-04 5.23822E-19
8.80086E-04 4.65993E-19
9.32601E-04 4.15954E-19
9.86636E-04 3.72479E-19
1.04219E-03 3.34556E-19
1.09927E-03 3.01356E-19
1.15786E-03 2.72187E-19
1.21797E-03 2.46475E-19
1.27961E-03 2.23739E-19
1.34276E-03 2.03574E-19
1.40743E-03 1.85637E-19
1.47362E-03 1.69640E-19
1.54133E-03 1.55335E-19
1.61056E-03 1.42511E-19
1.68131E-03 1.30989E-19
1.75357E-03 1.20611E-19
1.82735E-03 1.11244E-19
1.90265E-03 1.02773E-19
1.97947E-03 9.50950E-20
2.05780E-03 8.81235E-20
2.13765E-03 8.17815E-20
2.21902E-03 7.60019E-20
2.30190E-03 7.07257E-20
2.38630E-03 6.59012E-20
2.47222E-03 6.14826E-20
2.55965E-03 5.74295E-20
2.64859E-03 5.37063E-20
2.73905E-03 5.02811E-20
2.83103E-03 4.71257E-20
2.92452E-03 4.42150E-20
3.01952E-03 4.15265E-20
3.11604E-03 3.90401E-20
3.21407E-03 3.67378E-20
3.31362E-03 3.46035E-20
3.41468E-03 3.26226E-20
3.51725E-03 3.07821E-20
3.62133E-03 2.90701E-20
3.72692E-03 2.74761E-20
3.83403E-03 2.59904E-20
3.94265E-03 2.46043E-20
4.05278E-03 2.33097E-20
4.16442E-03 2.20997E-20
4.27757E-03 2.09675E-20
4.39223E-03 1.99073E-20
4.50840E-03 1.89136E-20
4.62608E-03 1.79815E-20
4.74527E-03 1.71065E-20
4.86597E-03 1.62843E-20
4.98817E-03 1.55112E-20
5.11188E-03 1.47837E-20
5.23711E-03 1.40986E-20
5.36383E-03 1.34529E-20
5.49207E-03 1.28441E-20
5.62181E-03 1.22695E-20
5.75306E-03 1.17269E-20
5.88581E-03 1.12141E-20
6.02007E-03 1.07292E-20
6.15583E-03 1.02705E-20
6.29310E-03 9.83614E-21
6.43187E-03 9.42467E-21
6.57214E-03 9.03464E-21
6.71392E-03 8.66472E-21
6.85720E-03 8.31368E-21
7.00198E-03 7.98035E-21
7.14827E-03 7.66369E-21
7.29605E-03 7.36270E-21
7.44534E-03 7.07644E-21
7.59612E-03 6.80407E-21
7.97965E-03 6.17874E-21
8.37255E-03 5.62413E-21
8.77480E-03 5.13084E-21
9.18641E-03 4.69088E-21
9.60736E-03 4.29745E-21
1.00376E-02 3.94475E-21
1.04773E-02 3.62780E-21
1.09262E-02 3.34232E-21
1.13844E-02 3.08462E-21
1.18520E-02 2.85151E-21
1.23288E-02 2.64021E-21
1.28150E-02 2.44830E-21
1.33104E-02 2.27368E-21
1.38150E-02 2.11451E-21
1.43290E-02 1.96916E-21
1.48521E-02 1.83622E-21
1.53845E-02 1.71442E-21
1.59262E-02 1.60266E-21
1.64770E-02 1.49996E-21
1.70371E-02 1.40544E-21
1.76063E-02 1.31833E-21
1.81848E-02 1.23794E-21
1.87724E-02 1.16365E-21
1.93692E-02 1.09492E-21
1.99751E-02 1.03125E-21
2.05901E-02 9.72192E-22
2.12143E-02 9.17353E-22
2.18476E-02 8.66371E-22
2.24900E-02 8.18927E-22
2.31415E-02 7.74725E-22
2.38021E-02 7.33503E-22
2.44717E-02 6.95019E-22
2.51504E-02 6.59061E-22
2.58382E-02 6.25425E-22
2.65349E-02 5.93937E-22
2.72407E-02 5.64431E-22
2.79555E-02 5.36758E-22
2.86793E-02 5.10783E-22
2.94120E-02 4.86382E-22
3.01537E-02 4.63439E-22
3.09043E-02 4.41852E-22
3.16639E-02 4.21524E-22
3.24324E-02 4.02368E-22
3.32098E-02 3.84302E-22
3.39961E-02 3.67253E-22
3.47912E-02 3.51152E-22
3.55952E-02 3.35936E-22
3.64081E-02 3.21547E-22
3.72297E-02 3.07931E-22
3.80602E-02 2.95038E-22
3.88995E-02 2.82823E-22
3.97476E-02 2.71242E-22
4.06044E-02 2.60256E-22
4.14700E-02 2.49828E-22
4.23443E-02 2.39926E-22
4.32273E-02 2.30516E-22
4.41190E-02 2.21569E-22
4.50194E-02 2.13059E-22
4.59284E-02 2.04959E-22
4.68461E-02 1.97246E-22
4.87074E-02 1.82893E-22
5.06030E-02 1.69840E-22
5.25328E-02 1.57947E-22
5.44967E-02 1.47091E-22
5.64946E-02 1.37165E-22
5.85262E-02 1.28073E-22
6.05914E-02 1.19733E-22
6.26901E-02 1.12070E-22
6.48222E-02 1.05018E-22
6.69873E-02 9.85196E-23
6.91854E-02 9.25229E-23
7.14163E-02 8.69817E-23
7.36799E-02 8.18545E-23
7.59760E-02 7.71044E-23
7.83043E-02 7.26982E-23
8.06647E-02 6.86063E-23
8.30571E-02 6.48017E-23
8.54812E-02 6.12605E-23
8.79369E-02 5.79609E-23
9.04240E-02 5.48829E-23
9.29422E-02 5.20090E-23
9.54915E-02 4.93227E-23
9.80716E-02 4.68096E-23
1.00682E-01 4.44561E-23
1.03323E-01 4.22503E-23
1.05995E-01 4.01810E-23
1.08696E-01 3.82381E-23
1.11427E-01 3.64122E-23
1.14188E-01 3.46950E-23
1.16978E-01 3.30786E-23
1.19797E-01 3.15561E-23
1.22645E-01 3.01208E-23
1.25522E-01 2.87669E-23
1.28428E-01 2.74886E-23
1.31361E-01 2.62811E-23
1.34323E-01 2.51395E-23
1.37313E-01 2.40595E-23
1.40330E-01 2.30372E-23
1.43375E-01 2.20689E-23
1.46447E-01 2.11511E-23
1.49545E-01 2.02807E-23
1.52671E-01 1.94547E-23
1.55823E-01 1.86705E-23
1.59001E-01 1.79254E-23
1.62205E-01 1.72171E-23
1.65435E-01 1.65435E-23
1.68690E-01 1.59026E-23
1.71970E-01 1.52923E-23
1.75276E-01 1.47110E-23
1.78606E-01 1.41570E-23
1.81961E-01 1.36288E-23
1.85340E-01 1.31248E-23
1.88743E-01 1.26439E-23
1.92169E-01 1.21847E-23
1.95619E-01 1.17460E-23
1.99092E-01 1.13267E-23
2.02589E-01 1.09259E-23
2.06107E-01 1.05425E-23
2.09649E-01 1.01756E-23
2.13212E-01 9.82433E-24
2.16797E-01 9.48798E-24
2.20404E-01 9.16574E-24
2.24032E-01 8.85689E-24
2.27680E-01 8.56076E-24
2.31350E-01 8.27673E-24
2.35040E-01 8.00420E-24
2.38751E-01 7.74263E-24
2.42481E-01 7.49148E-24
2.46231E-01 7.25026E-24
2.50000E-01 7.01848E-24
2.53788E-01 6.79570E-24
2.57595E-01 6.58151E-24
2.61421E-01 6.37550E-24
2.65264E-01 6.17731E-24
2.69126E-01 5.98659E-24
2.73005E-01 5.80299E-24
2.76901E-01 5.62620E-24
2.80814E-01 5.45589E-24
2.84744E-01 5.29180E-24
2.88691E-01 5.13364E-24
2.92653E-01 4.98118E-24
2.96632E-01 4.83416E-24
3.00625E-01 4.69236E-24
3.04634E-01 4.55553E-24
3.08658E-01 4.42348E-24
3.12697E-01 4.29600E-24
3.16749E-01 4.17290E-24
3.20816E-01 4.05401E-24
3.24896E-01 3.93917E-24
3.28990E-01 3.82820E-24
3.33097E-01 3.72094E-24
3.37216E-01 3.61724E-24
3.41348E-01 3.51695E-24
3.45492E-01 3.41994E-24
3.49647E-01 3.32612E-24
3.53814E-01 3.23535E-24
3.57992E-01 3.14748E-24
3.62181E-01 3.06241E-24
3.66381E-01 2.98003E-24
3.70590E-01 2.90026E-24
3.74810E-01 2.82299E-24
3.79039E-01 2.74814E-24
3.83277E-01 2.67560E-24
3.87524E-01 2.60528E-24
3.91780E-01 2.53712E-24
3.96044E-01 2.47102E-24
4.00316E-01 2.40692E-24
4.04596E-01 2.34475E-24
4.08882E-01 2.28443E-24
4.13176E-01 2.22591E-24
4.17476E-01 2.16911E-24
4.21783E-01 2.11397E-24
4.26095E-01 2.06044E-24
4.30413E-01 2.00846E-24
4.34737E-01 1.95799E-24
4.39065E-01 1.90896E-24
4.43398E-01 1.86132E-24
4.47736E-01 1.81504E-24
4.52077E-01 1.77007E-24
4.56422E-01 1.72635E-24
4.60770E-01 1.68385E-24
4.65122E-01 1.64254E-24
4.69476E-01 1.60236E-24
4.73832E-01 1.56329E-24
4.78190E-01 1.52528E-24
4.82550E-01 1.48831E-24
4.86912E-01 1.45233E-24
4.91274E-01 1.41732E-24
4.95637E-01 1.38325E-24
5.00000E-01 1.35009E-24
5.04363E-01 1.31781E-24
5.08726E-01 1.28637E-24
5.13088E-01 1.25576E-24
5.17450E-01 1.22596E-24
5.21810E-01 1.19692E-24
5.26168E-01 1.16863E-24
5.30524E-01 1.14108E-24
5.34878E-01 1.11423E-24
5.39230E-01 1.08806E-24
5.43578E-01 1.06256E-24
5.47923E-01 1.03771E-24
5.52264E-01 1.01347E-24
5.56602E-01 9.89848E-25
5.60935E-01 9.66812E-25
5.65263E-01 9.44348E-25
5.69587E-01 9.22440E-25
5.73905E-01 9.01070E-25
5.78217E-01 8.80224E-25
5.82524E-01 8.59886E-25
5.86824E-01 8.40042E-25
5.91118E-01 8.20679E-25
5.95404E-01 8.01782E-25
5.99684E-01 7.83339E-25
6.03956E-01 7.65337E-25
6.08220E-01 7.47764E-25
6.12476E-01 7.30606E-25
6.16723E-01 7.13854E-25
6.20961E-01 6.97496E-25
6.25190E-01 6.81522E-25
6.29410E-01 6.65920E-25
6.33619E-01 6.50682E-25
6.37819E-01 6.35797E-25
6.42008E-01 6.21255E-25
6.46186E-01 6.07049E-25
6.50353E-01 5.93168E-25
6.54508E-01 5.79604E-25
6.58652E-01 5.66349E-25
6.62784E-01 5.53395E-25
6.66903E-01 5.40734E-25
6.71010E-01 5.28359E-25
6.75104E-01 5.16261E-25
6.79184E-01 5.04434E-25
6.83251E-01 4.92872E-25
6.87303E-01 4.81567E-25
6.91342E-01 4.70512E-25
6.95366E-01 4.59702E-25
6.99375E-01 4.49131E-25
7.03368E-01 4.38792E-25
7.07347E-01 4.28679E-25
7.11309E-01 4.18788E-25
7.15256E-01 4.09113E-25
7.19186E-01 3.99647E-25
7.23099E-01 3.90387E-25
7.26995E-01 3.81328E-25
7.30874E-01 3.72463E-25
7.34736E-01 3.63790E-25
7.38579E-01 3.55303E-25
7.42405E-01 3.46997E-25
7.46212E-01 3.38869E-25
7.50000E-01 3.30914E-25
7.53769E-01 3.23129E-25
7.57519E-01 3.15508E-25
7.61249E-01 3.08050E-25
7.64960E-01 3.00748E-25
7.68650E-01 2.93601E-25
7.72320E-01 2.86605E-25
7.75968E-01 2.79755E-25
7.79596E-01 2.73049E-25
7.83203E-01 2.66484E-25
7.86788E-01 2.60056E-25
7.90351E-01 2.53763E-25
7.93893E-01 2.47600E-25
7.97411E-01 2.41566E-25
8.00908E-01 2.35658E-25
8.04381E-01 2.29872E-25
8.07831E-01 2.24207E-25
8.11257E-01 2.18659E-25
8.14660E-01 2.13226E-25
8.18039E-01 2.07906E-25
8.21394E-01 2.02695E-25
8.24724E-01 1.97593E-25
8.28030E-01 1.92596E-25
8.31310E-01 1.87702E-25
8.34565E-01 1.82909E-25
8.37795E-01 1.78216E-25
8.40999E-01 1.73619E-25
8.44177E-01 1.69117E-25
8.47329E-01 1.64709E-25
8.50455E-01 1.60391E-25
8.53553E-01 1.56163E-25
8.56625E-01 1.52022E-25
8.59670E-01 1.47967E-25
8.62687E-01 1.43996E-25
8.65677E-01 1.40107E-25
8.68639E-01 1.36299E-25
8.71572E-01 1.32571E-25
8.74478E-01 1.28920E-25
8.77355E-01 1.25345E-25
8.80203E-01 1.21845E-25
8.83022E-01 1.18418E-25
8.85812E-01 1.15063E-25
8.88573E-01 1.11778E-25
8.91304E-01 1.08563E-25
8.94005E-01 1.05416E-25
8.96677E-01 1.02336E-25
8.99318E-01 9.93208E-26
9.01928E-01 9.63703E-26
9.04508E-01 9.34829E-26
9.07058E-01 9.06576E-26
9.09576E-01 8.78932E-26
9.12063E-01 8.51888E-26
9.14519E-01 8.25432E-26
9.16943E-01 7.99555E-26
9.19335E-01 7.74247E-26
9.21696E-01 7.49498E-26
9.24024E-01 7.25298E-26
9.26320E-01 7.01640E-26
9.28584E-01 6.78513E-26
9.30815E-01 6.55910E-26
9.33013E-01 6.33821E-26
9.35178E-01 6.12239E-26
9.37310E-01 5.91156E-26
9.39409E-01 5.70564E-26
9.41474E-01 5.50456E-26
9.43505E-01 5.30824E-26
9.45503E-01 5.11660E-26
9.47467E-01 4.92959E-26
9.49397E-01 4.74714E-26
9.51293E-01 4.56917E-26
9.53154E-01 4.39562E-26
9.54981E-01 4.22644E-26
9.56773E-01 4.06156E-26
9.58530E-01 3.90092E-26
9.60252E-01 3.74448E-26
9.61940E-01 3.59216E-26
9.63592E-01 3.44392E-26
9.65209E-01 3.29971E-26
9.66790E-01 3.15947E-26
9.68336E-01 3.02316E-26
9.69846E-01 2.89073E-26
9.71321E-01 2.76213E-26
9.72759E-01 2.63732E-26
9.74162E-01 2.51626E-26
9.75528E-01 2.39890E-26
9.76858E-01 2.28520E-26
9.78152E-01 2.17513E-26
9.79410E-01 2.06865E-26
9.80631E-01 1.96572E-26
9.81815E-01 1.86630E-26
9.82963E-01 1.77037E-26
9.84074E-01 1.67789E-26
9.85148E-01 1.58882E-26
9.86185E-01 1.50314E-26
9.87185E-01 1.42082E-26
9.88148E-01 1.34184E-26
9.89074E-01 1.26615E-26
9.89962E-01 1.19375E-26
9.90814E-01 1.12460E-26
9.91627E-01 1.05869E-26
9.92404E-01 9.95985E-27
9.93143E-01 9.36470E-27
9.93844E-01 8.80124E-27
9.94508E-01 8.26929E-27
9.95134E-01 7.76867E-27
9.95722E-01 7.29922E-27
9.96273E-01 6.86077E-27
9.96786E-01 6.45319E-27
9.97261E-01 6.07634E-27
9.97698E-01 5.73009E-27
9.98097E-01 5.41433E-27
9.98459E-01 5.12896E-27
9.98782E-01 4.87387E-27
9.99067E-01 4.64900E-27
9.99315E-01 4.45426E-27
9.99524E-01 4.28958E-27
9.99695E-01 4.15492E-27
9.99829E-01 4.05023E-27
9.99924E-01 3.97548E-27
9.99981E-01 3.93064E-27
1.00000E+00 3.91569E-27
