 #
 # Subroutine ELSEPA. Elastic scattering of electrons and positrons
 #                    by neutral atoms and positive ions
 #
 # Projectile: electron
 # Kinetic energy = 1.00000E+08 eV = 3.67493E+06 a.u.
 #
 # WARNING: High-energy factorization with free-atom DF screening.
 #          Absorption, polarization and exchange corrections are
 #          switched off.
 #          Phase shifts are calculated for the bare nucleus.
 #          Scattering amplitudes are not evaluated.
 #
 # Element: Pd,  Z =  46,  atomic weight = 1.06420E+02 g/mol
 #
 # Nuclear model: Fermi distribution
 #                Average radius = 5.07059E-13 cm
 #                Skin thickness = 5.46000E-14 cm
 #
 # Number of electrons = 46
 #
 # Total elastic cross section = 4.05754E-18 cm**2 = 1.44897E-01 a0**2
 # 1st transport cross section = 4.16743E-25 cm**2 = 1.48822E-08 a0**2
 # 2nd transport cross section = 1.23990E-24 cm**2 = 4.42775E-08 a0**2
 #
 #
 # Differential cross section:                       MU=(1-COS(THETA))/2
 #
 #  THETA        MU          DCS          DCS        Sherman      error
 #  (deg)                 (cm**2/sr)   (a0**2/sr)    function
 #----------------------------------------------------------------------
0.00000E+00 2.14919E-10
7.61557E-13 2.14647E-10
1.18994E-12 2.14496E-10
1.71346E-12 2.14310E-10
2.33225E-12 2.14092E-10
3.04617E-12 2.13841E-10
3.85530E-12 2.13556E-10
4.75964E-12 2.13239E-10
5.75917E-12 2.12890E-10
6.85391E-12 2.12509E-10
8.04379E-12 2.12096E-10
9.32893E-12 2.11651E-10
1.07092E-11 2.11176E-10
1.21847E-11 2.10670E-10
1.37554E-11 2.10133E-10
1.54213E-11 2.09567E-10
1.71823E-11 2.08971E-10
1.90386E-11 2.08346E-10
2.09900E-11 2.07692E-10
2.30367E-11 2.07008E-10
2.51785E-11 2.06288E-10
2.74156E-11 2.05545E-10
2.97478E-11 2.04781E-10
3.21752E-11 2.03998E-10
3.46979E-11 2.03196E-10
3.73157E-11 2.02349E-10
4.00286E-11 2.01474E-10
4.28368E-11 2.00583E-10
4.57402E-11 1.99677E-10
4.87388E-11 1.98758E-10
5.18325E-11 1.97813E-10
5.50215E-11 1.96819E-10
5.83057E-11 1.95813E-10
6.16850E-11 1.94798E-10
6.51595E-11 1.93775E-10
6.87293E-11 1.92744E-10
7.23943E-11 1.91658E-10
7.61544E-11 1.90553E-10
1.18991E-10 1.78890E-10
1.71347E-10 1.66231E-10
2.33223E-10 1.53068E-10
3.04617E-10 1.39950E-10
3.85531E-10 1.27235E-10
4.75965E-10 1.15167E-10
5.75917E-10 1.03895E-10
6.85389E-10 9.34890E-11
8.04380E-10 8.39397E-11
9.32891E-10 7.52823E-11
1.07092E-09 6.74753E-11
1.21847E-09 6.04629E-11
1.37554E-09 5.41826E-11
1.54213E-09 4.85668E-11
1.71823E-09 4.35441E-11
1.90386E-09 3.90702E-11
2.09900E-09 3.50872E-11
2.30367E-09 3.14858E-11
2.51785E-09 2.80792E-11
2.74156E-09 2.51918E-11
2.97478E-09 2.27296E-11
3.21752E-09 2.06180E-11
3.46978E-09 1.87969E-11
3.73156E-09 1.70044E-11
4.00286E-09 1.53705E-11
4.28368E-09 1.39529E-11
4.57402E-09 1.27174E-11
4.87388E-09 1.16361E-11
5.18326E-09 1.06592E-11
5.50215E-09 9.72277E-12
5.83057E-09 8.89766E-12
6.16850E-09 8.16801E-12
6.51596E-09 7.52056E-12
6.87293E-09 6.94418E-12
7.23942E-09 6.40134E-12
7.61544E-09 5.90902E-12
1.18991E-08 2.92984E-12
1.71347E-08 1.65182E-12
2.33223E-08 1.01570E-12
3.04617E-08 6.61179E-13
3.85531E-08 4.47364E-13
4.75965E-08 3.11644E-13
5.75917E-08 2.22529E-13
6.85389E-08 1.62346E-13
8.04380E-08 1.20933E-13
9.32891E-08 9.18677E-14
1.07092E-07 7.10283E-14
1.21847E-07 5.57945E-14
1.37554E-07 4.44643E-14
1.54213E-07 3.59012E-14
1.71823E-07 2.93270E-14
1.90386E-07 2.42056E-14
2.09900E-07 2.01628E-14
2.30367E-07 1.69321E-14
2.51785E-07 1.43216E-14
2.74156E-07 1.22101E-14
2.97478E-07 1.04618E-14
3.21752E-07 9.02355E-15
3.46978E-07 7.81827E-15
3.73156E-07 6.80986E-15
4.00286E-07 5.95697E-15
4.28368E-07 5.23324E-15
4.57402E-07 4.61586E-15
4.87388E-07 4.08552E-15
5.18325E-07 3.62977E-15
5.50215E-07 3.23437E-15
5.83057E-07 2.89218E-15
6.16850E-07 2.59271E-15
6.51596E-07 2.33163E-15
6.87293E-07 2.10183E-15
7.23942E-07 1.89990E-15
7.61543E-07 1.72136E-15
1.18991E-06 7.18645E-16
1.71347E-06 3.50869E-16
2.33223E-06 1.91186E-16
3.04617E-06 1.12922E-16
3.85531E-06 7.09353E-17
4.75964E-06 4.67775E-17
5.75916E-06 3.20830E-17
6.85388E-06 2.27307E-17
8.04378E-06 1.65499E-17
9.32888E-06 1.23334E-17
1.07092E-05 9.37761E-18
1.21846E-05 7.25615E-18
1.37553E-05 5.70182E-18
1.54212E-05 4.54207E-18
1.71822E-05 3.66265E-18
1.90385E-05 2.98538E-18
2.09899E-05 2.45883E-18
2.30365E-05 2.04323E-18
2.51783E-05 1.71162E-18
2.74153E-05 1.44444E-18
2.97475E-05 1.22732E-18
3.21749E-05 1.04949E-18
3.46974E-05 9.02771E-19
3.73152E-05 7.80874E-19
4.00281E-05 6.78919E-19
4.28362E-05 5.93096E-19
4.57395E-05 5.20416E-19
4.87380E-05 4.58524E-19
5.18317E-05 4.05550E-19
5.50205E-05 3.59998E-19
5.83045E-05 3.20662E-19
6.16838E-05 2.86558E-19
6.51582E-05 2.56876E-19
6.87277E-05 2.30947E-19
7.23925E-05 2.08215E-19
7.61524E-05 1.88342E-19
9.21439E-05 1.28777E-19
1.09658E-04 9.10115E-20
1.28695E-04 6.61420E-20
1.49255E-04 4.92176E-20
1.71338E-04 3.73822E-20
1.94942E-04 2.89020E-20
2.20070E-04 2.26979E-20
2.46720E-04 1.80745E-20
2.74892E-04 1.45715E-20
3.04586E-04 1.18785E-20
3.35803E-04 9.78053E-21
3.68542E-04 8.12652E-21
4.02802E-04 6.80827E-21
4.38585E-04 5.74711E-21
4.75889E-04 4.88519E-21
5.14715E-04 4.17916E-21
5.55063E-04 3.59637E-21
5.96931E-04 3.11188E-21
6.40321E-04 2.70640E-21
6.85233E-04 2.36498E-21
7.31665E-04 2.07581E-21
7.79618E-04 1.82958E-21
8.29092E-04 1.61887E-21
8.80086E-04 1.43767E-21
9.32601E-04 1.28118E-21
9.86636E-04 1.14544E-21
1.04219E-03 1.02724E-21
1.09927E-03 9.23923E-22
1.15786E-03 8.33297E-22
1.21797E-03 7.53527E-22
1.27961E-03 6.83093E-22
1.34276E-03 6.20712E-22
1.40743E-03 5.65300E-22
1.47362E-03 5.15945E-22
1.54133E-03 4.71867E-22
1.61056E-03 4.32402E-22
1.68131E-03 3.96983E-22
1.75357E-03 3.65121E-22
1.82735E-03 3.36396E-22
1.90265E-03 3.10442E-22
1.97947E-03 2.86946E-22
2.05780E-03 2.65632E-22
2.13765E-03 2.46263E-22
2.21902E-03 2.28628E-22
2.30190E-03 2.12544E-22
2.38630E-03 1.97850E-22
2.47222E-03 1.84405E-22
2.55965E-03 1.72082E-22
2.64859E-03 1.60772E-22
2.73905E-03 1.50376E-22
2.83103E-03 1.40806E-22
2.92452E-03 1.31985E-22
3.01952E-03 1.23844E-22
3.11604E-03 1.16320E-22
3.21407E-03 1.09358E-22
3.31362E-03 1.02909E-22
3.41468E-03 9.69279E-23
3.51725E-03 9.13742E-23
3.62133E-03 8.62119E-23
3.72692E-03 8.14084E-23
3.83403E-03 7.69341E-23
3.94265E-03 7.27622E-23
4.05278E-03 6.88687E-23
4.16442E-03 6.52313E-23
4.27757E-03 6.18303E-23
4.39223E-03 5.86473E-23
4.50840E-03 5.56659E-23
4.62608E-03 5.28708E-23
4.74527E-03 5.02482E-23
4.86597E-03 4.77856E-23
4.98817E-03 4.54714E-23
5.11188E-03 4.32949E-23
5.23711E-03 4.12464E-23
5.36383E-03 3.93171E-23
5.49207E-03 3.74986E-23
5.62181E-03 3.57835E-23
5.75306E-03 3.41647E-23
5.88581E-03 3.26358E-23
6.02007E-03 3.11910E-23
6.15583E-03 2.98247E-23
6.29310E-03 2.85318E-23
6.43187E-03 2.73077E-23
6.57214E-03 2.61481E-23
6.71392E-03 2.50488E-23
6.85720E-03 2.40063E-23
7.00198E-03 2.30169E-23
7.14827E-03 2.20775E-23
7.29605E-03 2.11852E-23
7.44534E-03 2.03370E-23
7.59612E-03 1.95304E-23
7.97965E-03 1.76804E-23
8.37255E-03 1.60421E-23
8.77480E-03 1.45871E-23
9.18641E-03 1.32915E-23
9.60736E-03 1.21346E-23
1.00376E-02 1.10992E-23
1.04773E-02 1.01703E-23
1.09262E-02 9.33500E-24
1.13844E-02 8.58229E-24
1.18520E-02 7.90260E-24
1.23288E-02 7.28762E-24
1.28150E-02 6.73013E-24
1.33104E-02 6.22383E-24
1.38150E-02 5.76321E-24
1.43290E-02 5.34344E-24
1.48521E-02 4.96027E-24
1.53845E-02 4.60998E-24
1.59262E-02 4.28924E-24
1.64770E-02 3.99515E-24
1.70371E-02 3.72511E-24
1.76063E-02 3.47682E-24
1.81848E-02 3.24823E-24
1.87724E-02 3.03751E-24
1.93692E-02 2.84302E-24
1.99751E-02 2.66331E-24
2.05901E-02 2.49707E-24
2.12143E-02 2.34310E-24
2.18476E-02 2.20036E-24
2.24900E-02 2.06789E-24
2.31415E-02 1.94483E-24
2.38021E-02 1.83040E-24
2.44717E-02 1.72389E-24
2.51504E-02 1.62466E-24
2.58382E-02 1.53213E-24
2.65349E-02 1.44579E-24
2.72407E-02 1.36514E-24
2.79555E-02 1.28975E-24
2.86793E-02 1.21922E-24
2.94120E-02 1.15319E-24
3.01537E-02 1.09132E-24
3.09043E-02 1.03331E-24
3.16639E-02 9.78884E-25
3.24324E-02 9.27782E-25
3.32098E-02 8.79770E-25
3.39961E-02 8.34631E-25
3.47912E-02 7.92166E-25
3.55952E-02 7.52193E-25
3.64081E-02 7.14543E-25
3.72297E-02 6.79061E-25
3.80602E-02 6.45601E-25
3.88995E-02 6.14032E-25
3.97476E-02 5.84231E-25
4.06044E-02 5.56083E-25
4.14700E-02 5.29484E-25
4.23443E-02 5.04335E-25
4.32273E-02 4.80546E-25
4.41190E-02 4.58032E-25
4.50194E-02 4.36716E-25
4.59284E-02 4.16524E-25
4.68461E-02 3.97389E-25
4.87074E-02 3.62039E-25
5.06030E-02 3.30212E-25
5.25328E-02 3.01511E-25
5.44967E-02 2.75589E-25
5.64946E-02 2.52143E-25
5.85262E-02 2.30907E-25
6.05914E-02 2.11647E-25
6.26901E-02 1.94157E-25
6.48222E-02 1.78256E-25
6.69873E-02 1.63781E-25
6.91854E-02 1.50592E-25
7.14163E-02 1.38559E-25
7.36799E-02 1.27572E-25
7.59760E-02 1.17530E-25
7.83043E-02 1.08342E-25
8.06647E-02 9.99281E-26
8.30571E-02 9.22173E-26
8.54812E-02 8.51447E-26
8.79369E-02 7.86524E-26
9.04240E-02 7.26884E-26
9.29422E-02 6.72057E-26
9.54915E-02 6.21621E-26
9.80716E-02 5.75193E-26
1.00682E-01 5.32429E-26
1.03323E-01 4.93015E-26
1.05995E-01 4.56669E-26
1.08696E-01 4.23133E-26
1.11427E-01 3.92174E-26
1.14188E-01 3.63579E-26
1.16978E-01 3.37156E-26
1.19797E-01 3.12729E-26
1.22645E-01 2.90136E-26
1.25522E-01 2.69232E-26
1.28428E-01 2.49883E-26
1.31361E-01 2.31967E-26
1.34323E-01 2.15370E-26
1.37313E-01 1.99992E-26
1.40330E-01 1.85739E-26
1.43375E-01 1.72523E-26
1.46447E-01 1.60266E-26
1.49545E-01 1.48895E-26
1.52671E-01 1.38344E-26
1.55823E-01 1.28551E-26
1.59001E-01 1.19460E-26
1.62205E-01 1.11018E-26
1.65435E-01 1.03178E-26
1.68690E-01 9.58951E-27
1.71970E-01 8.91293E-27
1.75276E-01 8.28425E-27
1.78606E-01 7.70000E-27
1.81961E-01 7.15698E-27
1.85340E-01 6.65221E-27
1.88743E-01 6.18295E-27
1.92169E-01 5.74666E-27
1.95619E-01 5.34099E-27
1.99092E-01 4.96377E-27
2.02589E-01 4.61299E-27
2.06107E-01 4.28676E-27
2.09649E-01 3.98336E-27
2.13212E-01 3.70119E-27
2.16797E-01 3.43875E-27
2.20404E-01 3.19467E-27
2.24032E-01 2.96766E-27
2.27680E-01 2.75652E-27
2.31350E-01 2.56016E-27
2.35040E-01 2.37754E-27
2.38751E-01 2.20772E-27
2.42481E-01 2.04979E-27
2.46231E-01 1.90294E-27
2.50000E-01 1.76639E-27
2.53788E-01 1.63944E-27
2.57595E-01 1.52142E-27
2.61421E-01 1.41171E-27
2.65264E-01 1.30974E-27
2.69126E-01 1.21497E-27
2.73005E-01 1.12691E-27
2.76901E-01 1.04508E-27
2.80814E-01 9.69060E-28
2.84744E-01 8.98447E-28
2.88691E-01 8.32864E-28
2.92653E-01 7.71964E-28
2.96632E-01 7.15421E-28
3.00625E-01 6.62933E-28
3.04634E-01 6.14218E-28
3.08658E-01 5.69013E-28
3.12697E-01 5.27073E-28
3.16749E-01 4.88170E-28
3.20816E-01 4.52092E-28
3.24896E-01 4.18642E-28
3.28990E-01 3.87634E-28
3.33097E-01 3.58897E-28
3.37216E-01 3.32271E-28
3.41348E-01 3.07607E-28
3.45492E-01 2.84765E-28
3.49647E-01 2.63618E-28
3.53814E-01 2.44043E-28
3.57992E-01 2.25930E-28
3.62181E-01 2.09173E-28
3.66381E-01 1.93675E-28
3.70590E-01 1.79345E-28
3.74810E-01 1.66099E-28
3.79039E-01 1.53859E-28
3.83277E-01 1.42551E-28
3.87524E-01 1.32108E-28
3.91780E-01 1.22466E-28
3.96044E-01 1.13566E-28
4.00316E-01 1.05354E-28
4.04596E-01 9.77784E-29
4.08882E-01 9.07919E-29
4.13176E-01 8.43506E-29
4.17476E-01 7.84135E-29
4.21783E-01 7.29427E-29
4.26095E-01 6.79028E-29
4.30413E-01 6.32611E-29
4.34737E-01 5.89871E-29
4.39065E-01 5.50526E-29
4.43398E-01 5.14312E-29
4.47736E-01 4.80988E-29
4.52077E-01 4.50327E-29
4.56422E-01 4.22120E-29
4.60770E-01 3.96174E-29
4.65122E-01 3.72309E-29
4.69476E-01 3.50359E-29
4.73832E-01 3.30169E-29
4.78190E-01 3.11598E-29
4.82550E-01 2.94514E-29
4.86912E-01 2.78795E-29
4.91274E-01 2.64328E-29
4.95637E-01 2.51010E-29
5.00000E-01 2.38745E-29
5.04363E-01 2.27445E-29
5.08726E-01 2.17027E-29
5.13088E-01 2.07416E-29
5.17450E-01 1.98544E-29
5.21810E-01 1.90346E-29
5.26168E-01 1.82764E-29
5.30524E-01 1.75743E-29
5.34878E-01 1.69235E-29
5.39230E-01 1.63194E-29
5.43578E-01 1.57577E-29
5.47923E-01 1.52347E-29
5.52264E-01 1.47469E-29
5.56602E-01 1.42911E-29
5.60935E-01 1.38642E-29
5.65263E-01 1.34637E-29
5.69587E-01 1.30870E-29
5.73905E-01 1.27321E-29
5.78217E-01 1.23967E-29
5.82524E-01 1.20791E-29
5.86824E-01 1.17777E-29
5.91118E-01 1.14908E-29
5.95404E-01 1.12170E-29
5.99684E-01 1.09552E-29
6.03956E-01 1.07042E-29
6.08220E-01 1.04630E-29
6.12476E-01 1.02307E-29
6.16723E-01 1.00064E-29
6.20961E-01 9.78932E-30
6.25190E-01 9.57890E-30
6.29410E-01 9.37451E-30
6.33619E-01 9.17560E-30
6.37819E-01 8.98172E-30
6.42008E-01 8.79243E-30
6.46186E-01 8.60736E-30
6.50353E-01 8.42618E-30
6.54508E-01 8.24861E-30
6.58652E-01 8.07439E-30
6.62784E-01 7.90329E-30
6.66903E-01 7.73513E-30
6.71010E-01 7.56973E-30
6.75104E-01 7.40695E-30
6.79184E-01 7.24667E-30
6.83251E-01 7.08878E-30
6.87303E-01 6.93320E-30
6.91342E-01 6.77984E-30
6.95366E-01 6.62865E-30
6.99375E-01 6.47958E-30
7.03368E-01 6.33258E-30
7.07347E-01 6.18763E-30
7.11309E-01 6.04469E-30
7.15256E-01 5.90376E-30
7.19186E-01 5.76480E-30
7.23099E-01 5.62783E-30
7.26995E-01 5.49283E-30
7.30874E-01 5.35979E-30
7.34736E-01 5.22872E-30
7.38579E-01 5.09963E-30
7.42405E-01 4.97250E-30
7.46212E-01 4.84735E-30
7.50000E-01 4.72419E-30
7.53769E-01 4.60301E-30
7.57519E-01 4.48382E-30
7.61249E-01 4.36662E-30
7.64960E-01 4.25142E-30
7.68650E-01 4.13822E-30
7.72320E-01 4.02702E-30
7.75968E-01 3.91783E-30
7.79596E-01 3.81063E-30
7.83203E-01 3.70544E-30
7.86788E-01 3.60225E-30
7.90351E-01 3.50105E-30
7.93893E-01 3.40185E-30
7.97411E-01 3.30462E-30
8.00908E-01 3.20937E-30
8.04381E-01 3.11608E-30
8.07831E-01 3.02475E-30
8.11257E-01 2.93537E-30
8.14660E-01 2.84791E-30
8.18039E-01 2.76236E-30
8.21394E-01 2.67872E-30
8.24724E-01 2.59696E-30
8.28030E-01 2.51707E-30
8.31310E-01 2.43902E-30
8.34565E-01 2.36280E-30
8.37795E-01 2.28838E-30
8.40999E-01 2.21575E-30
8.44177E-01 2.14488E-30
8.47329E-01 2.07575E-30
8.50455E-01 2.00834E-30
8.53553E-01 1.94262E-30
8.56625E-01 1.87856E-30
8.59670E-01 1.81614E-30
8.62687E-01 1.75534E-30
8.65677E-01 1.69613E-30
8.68639E-01 1.63848E-30
8.71572E-01 1.58237E-30
8.74478E-01 1.52776E-30
8.77355E-01 1.47463E-30
8.80203E-01 1.42296E-30
8.83022E-01 1.37271E-30
8.85812E-01 1.32386E-30
8.88573E-01 1.27638E-30
8.91304E-01 1.23024E-30
8.94005E-01 1.18541E-30
8.96677E-01 1.14187E-30
8.99318E-01 1.09959E-30
9.01928E-01 1.05855E-30
9.04508E-01 1.01870E-30
9.07058E-01 9.80039E-31
9.09576E-01 9.42525E-31
9.12063E-01 9.06135E-31
9.14519E-01 8.70844E-31
9.16943E-01 8.36625E-31
9.19335E-01 8.03453E-31
9.21696E-01 7.71303E-31
9.24024E-01 7.40149E-31
9.26320E-01 7.09967E-31
9.28584E-01 6.80733E-31
9.30815E-01 6.52423E-31
9.33013E-01 6.25013E-31
9.35178E-01 5.98482E-31
9.37310E-01 5.72805E-31
9.39409E-01 5.47961E-31
9.41474E-01 5.23929E-31
9.43505E-01 5.00686E-31
9.45503E-01 4.78212E-31
9.47467E-01 4.56487E-31
9.49397E-01 4.35491E-31
9.51293E-01 4.15204E-31
9.53154E-01 3.95608E-31
9.54981E-01 3.76683E-31
9.56773E-01 3.58411E-31
9.58530E-01 3.40775E-31
9.60252E-01 3.23758E-31
9.61940E-01 3.07342E-31
9.63592E-01 2.91512E-31
9.65209E-01 2.76251E-31
9.66790E-01 2.61544E-31
9.68336E-01 2.47377E-31
9.69846E-01 2.33733E-31
9.71321E-01 2.20601E-31
9.72759E-01 2.07964E-31
9.74162E-01 1.95812E-31
9.75528E-01 1.84129E-31
9.76858E-01 1.72905E-31
9.78152E-01 1.62126E-31
9.79410E-01 1.51782E-31
9.80631E-01 1.41862E-31
9.81815E-01 1.32353E-31
9.82963E-01 1.23246E-31
9.84074E-01 1.14532E-31
9.85148E-01 1.06199E-31
9.86185E-01 9.82395E-32
9.87185E-01 9.06440E-32
9.88148E-01 8.34039E-32
9.89074E-01 7.65112E-32
9.89962E-01 6.99581E-32
9.90814E-01 6.37370E-32
9.91627E-01 5.78410E-32
9.92404E-01 5.22632E-32
9.93143E-01 4.69973E-32
9.93844E-01 4.20371E-32
9.94508E-01 3.73771E-32
9.95134E-01 3.30117E-32
9.95722E-01 2.89359E-32
9.96273E-01 2.51449E-32
9.96786E-01 2.16344E-32
9.97261E-01 1.84003E-32
9.97698E-01 1.54387E-32
9.98097E-01 1.27461E-32
9.98459E-01 1.03195E-32
9.98782E-01 8.15594E-33
9.99067E-01 6.25288E-33
9.99315E-01 4.60809E-33
9.99524E-01 3.21962E-33
9.99695E-01 2.08583E-33
9.99829E-01 1.20538E-33
9.99924E-01 5.77234E-34
9.99981E-01 2.00643E-34
1.00000E+00 7.51585E-35
