 #
 # Subroutine ELSEPA. Elastic scattering of electrons and positrons
 #                    by neutral atoms and positive ions
 #
 # Projectile: electron
 # Kinetic energy = 3.00000E+08 eV = 1.10248E+07 a.u.
 #
 # WARNING: High-energy factorization with free-atom DF screening.
 #          Absorption, polarization and exchange corrections are
 #          switched off.
 #          Phase shifts are calculated for the bare nucleus.
 #          Scattering amplitudes are not evaluated.
 #
 # Element: Pd,  Z =  46,  atomic weight = 1.06420E+02 g/mol
 #
 # Nuclear model: Fermi distribution
 #                Average radius = 5.07059E-13 cm
 #                Skin thickness = 5.46000E-14 cm
 #
 # Number of electrons = 46
 #
 # Total elastic cross section = 4.05296E-18 cm**2 = 1.44734E-01 a0**2
 # 1st transport cross section = 4.65135E-26 cm**2 = 1.66103E-09 a0**2
 # 2nd transport cross section = 1.39388E-25 cm**2 = 4.97762E-09 a0**2
 #
 #
 # Differential cross section:                       MU=(1-COS(THETA))/2
 #
 #  THETA        MU          DCS          DCS        Sherman      error
 #  (deg)                 (cm**2/sr)   (a0**2/sr)    function
 #----------------------------------------------------------------------
0.00000E+00 1.92118E-09
7.61557E-13 1.89978E-09
1.18994E-12 1.88794E-09
1.71346E-12 1.87365E-09
2.33225E-12 1.85700E-09
3.04617E-12 1.83792E-09
3.85530E-12 1.81705E-09
4.75964E-12 1.79384E-09
5.75917E-12 1.76925E-09
6.85391E-12 1.74242E-09
8.04379E-12 1.71454E-09
9.32893E-12 1.68491E-09
1.07092E-11 1.65431E-09
1.21847E-11 1.62256E-09
1.37554E-11 1.58982E-09
1.54213E-11 1.55661E-09
1.71823E-11 1.52231E-09
1.90386E-11 1.48822E-09
2.09900E-11 1.45290E-09
2.30367E-11 1.41825E-09
2.51785E-11 1.38260E-09
2.74156E-11 1.34763E-09
2.97478E-11 1.31230E-09
3.21752E-11 1.27740E-09
3.46979E-11 1.24274E-09
3.73157E-11 1.20826E-09
4.00286E-11 1.17454E-09
4.28368E-11 1.14074E-09
4.57402E-11 1.10818E-09
4.87388E-11 1.07529E-09
5.18325E-11 1.04377E-09
5.50215E-11 1.01223E-09
5.83057E-11 9.81803E-10
6.16850E-11 9.51775E-10
6.51595E-11 9.22558E-10
6.87293E-11 8.94082E-10
7.23943E-11 8.66144E-10
7.61544E-11 8.39229E-10
1.18991E-10 6.06530E-10
1.71347E-10 4.36986E-10
2.33223E-10 3.16040E-10
3.04617E-10 2.27127E-10
3.85531E-10 1.69412E-10
4.75965E-10 1.25928E-10
5.75917E-10 9.62815E-11
6.85389E-10 7.37635E-11
8.04380E-10 5.78372E-11
9.32891E-10 4.58162E-11
1.07092E-09 3.69067E-11
1.21847E-09 3.00984E-11
1.37554E-09 2.48565E-11
1.54213E-09 2.07687E-11
1.71823E-09 1.75123E-11
1.90386E-09 1.49201E-11
2.09900E-09 1.27881E-11
2.30367E-09 1.10574E-11
2.51785E-09 9.60038E-12
2.74156E-09 8.39184E-12
2.97478E-09 7.36198E-12
3.21752E-09 6.48887E-12
3.46978E-09 5.73946E-12
3.73156E-09 5.09203E-12
4.00286E-09 4.53418E-12
4.28368E-09 4.04464E-12
4.57402E-09 3.62192E-12
4.87388E-09 3.24629E-12
5.18326E-09 2.92015E-12
5.50215E-09 2.62986E-12
5.83057E-09 2.37536E-12
6.16850E-09 2.14918E-12
6.51596E-09 1.94864E-12
6.87293E-09 1.77003E-12
7.23942E-09 1.61073E-12
7.61544E-09 1.46897E-12
1.18991E-08 6.42906E-13
1.71347E-08 3.24945E-13
2.33223E-08 1.82497E-13
3.04617E-08 1.10508E-13
3.85531E-08 7.07731E-14
4.75965E-08 4.73730E-14
5.75917E-08 3.28626E-14
6.85389E-08 2.34734E-14
8.04380E-08 1.72010E-14
9.32891E-08 1.28834E-14
1.07092E-07 9.83550E-15
1.21847E-07 7.63728E-15
1.37554E-07 6.01945E-15
1.54213E-07 4.80824E-15
1.71823E-07 3.88718E-15
1.90386E-07 3.17646E-15
2.09900E-07 2.62124E-15
2.30367E-07 2.18233E-15
2.51785E-07 1.83164E-15
2.74156E-07 1.54875E-15
2.97478E-07 1.31847E-15
3.21752E-07 1.12948E-15
3.46978E-07 9.73219E-16
3.73156E-07 8.43073E-16
4.00286E-07 7.33992E-16
4.28368E-07 6.42008E-16
4.57402E-07 5.63990E-16
4.87388E-07 4.97479E-16
5.18325E-07 4.40489E-16
5.50215E-07 3.91430E-16
5.83057E-07 3.49017E-16
6.16850E-07 3.12191E-16
6.51596E-07 2.80096E-16
6.87293E-07 2.52022E-16
7.23942E-07 2.27374E-16
7.61543E-07 2.05668E-16
1.18991E-06 8.48245E-17
1.71347E-06 4.10726E-17
2.33223E-06 2.22260E-17
3.04617E-06 1.30503E-17
3.85531E-06 8.15684E-18
4.75964E-06 5.35636E-18
5.75916E-06 3.66093E-18
6.85388E-06 2.58625E-18
8.04378E-06 1.87853E-18
9.32888E-06 1.39716E-18
1.07092E-05 1.06057E-18
1.21846E-05 8.19516E-19
1.37553E-05 6.43224E-19
1.54212E-05 5.11894E-19
1.71822E-05 4.12439E-19
1.90385E-05 3.35937E-19
2.09899E-05 2.76517E-19
2.30365E-05 2.29660E-19
2.51783E-05 1.92299E-19
2.74153E-05 1.62217E-19
2.97475E-05 1.37786E-19
3.21749E-05 1.17786E-19
3.46974E-05 1.01292E-19
3.73152E-05 8.75940E-20
4.00281E-05 7.61407E-20
4.28362E-05 6.65031E-20
4.57395E-05 5.83436E-20
4.87380E-05 5.13970E-20
5.18317E-05 4.54528E-20
5.50205E-05 4.03424E-20
5.83045E-05 3.59303E-20
6.16838E-05 3.21055E-20
6.51582E-05 2.87773E-20
6.87277E-05 2.58703E-20
7.23925E-05 2.33220E-20
7.61524E-05 2.11252E-20
9.21439E-05 1.44402E-20
1.09658E-04 1.02026E-20
1.28695E-04 7.41232E-21
1.49255E-04 5.51367E-21
1.71338E-04 4.18603E-21
1.94942E-04 3.23483E-21
2.20070E-04 2.53898E-21
2.46720E-04 2.02047E-21
2.74892E-04 1.62767E-21
3.04586E-04 1.32576E-21
3.35803E-04 1.09059E-21
3.68542E-04 9.05233E-22
4.02802E-04 7.57541E-22
4.38585E-04 6.38692E-22
4.75889E-04 5.42189E-22
5.14715E-04 4.63172E-22
5.55063E-04 3.97978E-22
5.96931E-04 3.43805E-22
6.40321E-04 2.98492E-22
6.85233E-04 2.60358E-22
7.31665E-04 2.28082E-22
7.79618E-04 2.00619E-22
8.29092E-04 1.77132E-22
8.80086E-04 1.56953E-22
9.32601E-04 1.39539E-22
9.86636E-04 1.24448E-22
1.04219E-03 1.11319E-22
1.09927E-03 9.98555E-23
1.15786E-03 8.98103E-23
1.21797E-03 8.09788E-23
1.27961E-03 7.31898E-23
1.34276E-03 6.62999E-23
1.40743E-03 6.01878E-23
1.47362E-03 5.47511E-23
1.54133E-03 4.99025E-23
1.61056E-03 4.55679E-23
1.68131E-03 4.16835E-23
1.75357E-03 3.81949E-23
1.82735E-03 3.50549E-23
1.90265E-03 3.22228E-23
1.97947E-03 2.96634E-23
2.05780E-03 2.73461E-23
2.13765E-03 2.52442E-23
2.21902E-03 2.33342E-23
2.30190E-03 2.15958E-23
2.38630E-03 2.00110E-23
2.47222E-03 1.85640E-23
2.55965E-03 1.72407E-23
2.64859E-03 1.60289E-23
2.73905E-03 1.49177E-23
2.83103E-03 1.38972E-23
2.92452E-03 1.29590E-23
3.01952E-03 1.20953E-23
3.11604E-03 1.12991E-23
3.21407E-03 1.05644E-23
3.31362E-03 9.88572E-24
3.41468E-03 9.25801E-24
3.51725E-03 8.67685E-24
3.62133E-03 8.13825E-24
3.72692E-03 7.63860E-24
3.83403E-03 7.17462E-24
3.94265E-03 6.74338E-24
4.05278E-03 6.34220E-24
4.16442E-03 5.96866E-24
4.27757E-03 5.62057E-24
4.39223E-03 5.29591E-24
4.50840E-03 4.99287E-24
4.62608E-03 4.70979E-24
4.74527E-03 4.44516E-24
4.86597E-03 4.19759E-24
4.98817E-03 3.96581E-24
5.11188E-03 3.74868E-24
5.23711E-03 3.54512E-24
5.36383E-03 3.35417E-24
5.49207E-03 3.17493E-24
5.62181E-03 3.00657E-24
5.75306E-03 2.84835E-24
5.88581E-03 2.69956E-24
6.02007E-03 2.55956E-24
6.15583E-03 2.42775E-24
6.29310E-03 2.30360E-24
6.43187E-03 2.18660E-24
6.57214E-03 2.07627E-24
6.71392E-03 1.97219E-24
6.85720E-03 1.87395E-24
7.00198E-03 1.78118E-24
7.14827E-03 1.69354E-24
7.29605E-03 1.61071E-24
7.44534E-03 1.53238E-24
7.59612E-03 1.45828E-24
7.97965E-03 1.28989E-24
8.37255E-03 1.14281E-24
8.77480E-03 1.01404E-24
9.18641E-03 9.01055E-25
9.60736E-03 8.01708E-25
1.00376E-02 7.14184E-25
1.04773E-02 6.36936E-25
1.09262E-02 5.68639E-25
1.13844E-02 5.08158E-25
1.18520E-02 4.54517E-25
1.23288E-02 4.06874E-25
1.28150E-02 3.64502E-25
1.33104E-02 3.26770E-25
1.38150E-02 2.93131E-25
1.43290E-02 2.63108E-25
1.48521E-02 2.36283E-25
1.53845E-02 2.12294E-25
1.59262E-02 1.90821E-25
1.64770E-02 1.71584E-25
1.70371E-02 1.54338E-25
1.76063E-02 1.38864E-25
1.81848E-02 1.24972E-25
1.87724E-02 1.12492E-25
1.93692E-02 1.01274E-25
1.99751E-02 9.11867E-26
2.05901E-02 8.21106E-26
2.12143E-02 7.39414E-26
2.18476E-02 6.65858E-26
2.24900E-02 5.99606E-26
2.31415E-02 5.39916E-26
2.38021E-02 4.86125E-26
2.44717E-02 4.37641E-26
2.51504E-02 3.93933E-26
2.58382E-02 3.54527E-26
2.65349E-02 3.18995E-26
2.72407E-02 2.86956E-26
2.79555E-02 2.58066E-26
2.86793E-02 2.32017E-26
2.94120E-02 2.08531E-26
3.01537E-02 1.87358E-26
3.09043E-02 1.68272E-26
3.16639E-02 1.51072E-26
3.24324E-02 1.35574E-26
3.32098E-02 1.21613E-26
3.39961E-02 1.09040E-26
3.47912E-02 9.77211E-27
3.55952E-02 8.75345E-27
3.64081E-02 7.83705E-27
3.72297E-02 7.01299E-27
3.80602E-02 6.27231E-27
3.88995E-02 5.60690E-27
3.97476E-02 5.00943E-27
4.06044E-02 4.47326E-27
4.14700E-02 3.99239E-27
4.23443E-02 3.56140E-27
4.32273E-02 3.17537E-27
4.41190E-02 2.82985E-27
4.50194E-02 2.52082E-27
4.59284E-02 2.24465E-27
4.68461E-02 1.99805E-27
4.87074E-02 1.58190E-27
5.06030E-02 1.25185E-27
5.25328E-02 9.91081E-28
5.44967E-02 7.85916E-28
5.64946E-02 6.25198E-28
5.85262E-02 4.99862E-28
6.05914E-02 4.02560E-28
6.26901E-02 3.27353E-28
6.48222E-02 2.69455E-28
6.69873E-02 2.25027E-28
6.91854E-02 1.91002E-28
7.14163E-02 1.64941E-28
7.36799E-02 1.44921E-28
7.59760E-02 1.29431E-28
7.83043E-02 1.17295E-28
8.06647E-02 1.07608E-28
8.30571E-02 9.96806E-29
8.54812E-02 9.29931E-29
8.79369E-02 8.71622E-29
9.04240E-02 8.19102E-29
9.29422E-02 7.70415E-29
9.54915E-02 7.24232E-29
9.80716E-02 6.79700E-29
1.00682E-01 6.36316E-29
1.03323E-01 5.93833E-29
1.05995E-01 5.52180E-29
1.08696E-01 5.11404E-29
1.11427E-01 4.71629E-29
1.14188E-01 4.33013E-29
1.16978E-01 3.95732E-29
1.19797E-01 3.59957E-29
1.22645E-01 3.25841E-29
1.25522E-01 2.93516E-29
1.28428E-01 2.63084E-29
1.31361E-01 2.34618E-29
1.34323E-01 2.08159E-29
1.37313E-01 1.83722E-29
1.40330E-01 1.61292E-29
1.43375E-01 1.40832E-29
1.46447E-01 1.22287E-29
1.49545E-01 1.05581E-29
1.52671E-01 9.06276E-30
1.55823E-01 7.73273E-30
1.59001E-01 6.55747E-30
1.62205E-01 5.52590E-30
1.65435E-01 4.62671E-30
1.68690E-01 3.84855E-30
1.71970E-01 3.18021E-30
1.75276E-01 2.61078E-30
1.78606E-01 2.12979E-30
1.81961E-01 1.72723E-30
1.85340E-01 1.39373E-30
1.88743E-01 1.12052E-30
1.92169E-01 8.99494E-31
1.95619E-01 7.23241E-31
1.99092E-01 5.85021E-31
2.02589E-01 4.78763E-31
2.06107E-01 3.99046E-31
2.09649E-01 3.41070E-31
2.13212E-01 3.00623E-31
2.16797E-01 2.74043E-31
2.20404E-01 2.58180E-31
2.24032E-01 2.50349E-31
2.27680E-01 2.48295E-31
2.31350E-01 2.50143E-31
2.35040E-01 2.54363E-31
2.38751E-01 2.59728E-31
2.42481E-01 2.65275E-31
2.46231E-01 2.70272E-31
2.50000E-01 2.74185E-31
2.53788E-01 2.76647E-31
2.57595E-01 2.77429E-31
2.61421E-01 2.76417E-31
2.65264E-01 2.73592E-31
2.69126E-01 2.69005E-31
2.73005E-01 2.62763E-31
2.76901E-01 2.55016E-31
2.80814E-01 2.45939E-31
2.84744E-01 2.35726E-31
2.88691E-01 2.24579E-31
2.92653E-01 2.12701E-31
2.96632E-01 2.00291E-31
3.00625E-01 1.87538E-31
3.04634E-01 1.74618E-31
3.08658E-01 1.61692E-31
3.12697E-01 1.48904E-31
3.16749E-01 1.36381E-31
3.20816E-01 1.24231E-31
3.24896E-01 1.12547E-31
3.28990E-01 1.01400E-31
3.33097E-01 9.08503E-32
3.37216E-01 8.09388E-32
3.41348E-01 7.16942E-32
3.45492E-01 6.31324E-32
3.49647E-01 5.52583E-32
3.53814E-01 4.80666E-32
3.57992E-01 4.15440E-32
3.62181E-01 3.56700E-32
3.66381E-01 3.04183E-32
3.70590E-01 2.57581E-32
3.74810E-01 2.16552E-32
3.79039E-01 1.80728E-32
3.83277E-01 1.49725E-32
3.87524E-01 1.23151E-32
3.91780E-01 1.00614E-32
3.96044E-01 8.17260E-33
4.00316E-01 6.61090E-33
4.04596E-01 5.33986E-33
4.08882E-01 4.32475E-33
4.13176E-01 3.53279E-33
4.17476E-01 2.93334E-33
4.21783E-01 2.49800E-33
4.26095E-01 2.20071E-33
4.30413E-01 2.01774E-33
4.34737E-01 1.92768E-33
4.39065E-01 1.91141E-33
4.43398E-01 1.95199E-33
4.47736E-01 2.03459E-33
4.52077E-01 2.14636E-33
4.56422E-01 2.27631E-33
4.60770E-01 2.41516E-33
4.65122E-01 2.55520E-33
4.69476E-01 2.69018E-33
4.73832E-01 2.81513E-33
4.78190E-01 2.92623E-33
4.82550E-01 3.02068E-33
4.86912E-01 3.09657E-33
4.91274E-01 3.15277E-33
4.95637E-01 3.18881E-33
5.00000E-01 3.20473E-33
5.04363E-01 3.20108E-33
5.08726E-01 3.17873E-33
5.13088E-01 3.13886E-33
5.17450E-01 3.08285E-33
5.21810E-01 3.01225E-33
5.26168E-01 2.92870E-33
5.30524E-01 2.83388E-33
5.34878E-01 2.72950E-33
5.39230E-01 2.61722E-33
5.43578E-01 2.49869E-33
5.47923E-01 2.37545E-33
5.52264E-01 2.24897E-33
5.56602E-01 2.12062E-33
5.60935E-01 1.99164E-33
5.65263E-01 1.86317E-33
5.69587E-01 1.73622E-33
5.73905E-01 1.61169E-33
5.78217E-01 1.49035E-33
5.82524E-01 1.37286E-33
5.86824E-01 1.25977E-33
5.91118E-01 1.15153E-33
5.95404E-01 1.04848E-33
5.99684E-01 9.50872E-34
6.03956E-01 8.58891E-34
6.08220E-01 7.72631E-34
6.12476E-01 6.92125E-34
6.16723E-01 6.17343E-34
6.20961E-01 5.48206E-34
6.25190E-01 4.84590E-34
6.29410E-01 4.26332E-34
6.33619E-01 3.73239E-34
6.37819E-01 3.25092E-34
6.42008E-01 2.81651E-34
6.46186E-01 2.42665E-34
6.50353E-01 2.07868E-34
6.54508E-01 1.76992E-34
6.58652E-01 1.49764E-34
6.62784E-01 1.25914E-34
6.66903E-01 1.05174E-34
6.71010E-01 8.72820E-35
6.75104E-01 7.19849E-35
6.79184E-01 5.90381E-35
6.83251E-01 4.82079E-35
6.87303E-01 3.92726E-35
6.91342E-01 3.20227E-35
6.95366E-01 2.62618E-35
6.99375E-01 2.18067E-35
7.03368E-01 1.84872E-35
7.07347E-01 1.61467E-35
7.11309E-01 1.46414E-35
7.15256E-01 1.38402E-35
7.19186E-01 1.36242E-35
7.23099E-01 1.38864E-35
7.26995E-01 1.45310E-35
7.30874E-01 1.54727E-35
7.34736E-01 1.66361E-35
7.38579E-01 1.79554E-35
7.42405E-01 1.93733E-35
7.46212E-01 2.08406E-35
7.50000E-01 2.23152E-35
7.53769E-01 2.37620E-35
7.57519E-01 2.51520E-35
7.61249E-01 2.64615E-35
7.64960E-01 2.76719E-35
7.68650E-01 2.87689E-35
7.72320E-01 2.97422E-35
7.75968E-01 3.05848E-35
7.79596E-01 3.12926E-35
7.83203E-01 3.18643E-35
7.86788E-01 3.23006E-35
7.90351E-01 3.26040E-35
7.93893E-01 3.27786E-35
7.97411E-01 3.28298E-35
8.00908E-01 3.27638E-35
8.04381E-01 3.25878E-35
8.07831E-01 3.23092E-35
8.11257E-01 3.19362E-35
8.14660E-01 3.14768E-35
8.18039E-01 3.09395E-35
8.21394E-01 3.03323E-35
8.24724E-01 2.96636E-35
8.28030E-01 2.89411E-35
8.31310E-01 2.81727E-35
8.34565E-01 2.73656E-35
8.37795E-01 2.65267E-35
8.40999E-01 2.56628E-35
8.44177E-01 2.47799E-35
8.47329E-01 2.38838E-35
8.50455E-01 2.29798E-35
8.53553E-01 2.20728E-35
8.56625E-01 2.11671E-35
8.59670E-01 2.02668E-35
8.62687E-01 1.93755E-35
8.65677E-01 1.84964E-35
8.68639E-01 1.76324E-35
8.71572E-01 1.67857E-35
8.74478E-01 1.59587E-35
8.77355E-01 1.51530E-35
8.80203E-01 1.43702E-35
8.83022E-01 1.36115E-35
8.85812E-01 1.28778E-35
8.88573E-01 1.21699E-35
8.91304E-01 1.14882E-35
8.94005E-01 1.08332E-35
8.96677E-01 1.02048E-35
8.99318E-01 9.60322E-36
9.01928E-01 9.02817E-36
9.04508E-01 8.47940E-36
9.07058E-01 7.95652E-36
9.09576E-01 7.45906E-36
9.12063E-01 6.98646E-36
9.14519E-01 6.53810E-36
9.16943E-01 6.11328E-36
9.19335E-01 5.71130E-36
9.21696E-01 5.33139E-36
9.24024E-01 4.97276E-36
9.26320E-01 4.63460E-36
9.28584E-01 4.31611E-36
9.30815E-01 4.01644E-36
9.33013E-01 3.73479E-36
9.35178E-01 3.47034E-36
9.37310E-01 3.22227E-36
9.39409E-01 2.98978E-36
9.41474E-01 2.77210E-36
9.43505E-01 2.56846E-36
9.45503E-01 2.37811E-36
9.47467E-01 2.20035E-36
9.49397E-01 2.03447E-36
9.51293E-01 1.87979E-36
9.53154E-01 1.73568E-36
9.54981E-01 1.60150E-36
9.56773E-01 1.47666E-36
9.58530E-01 1.36060E-36
9.60252E-01 1.25278E-36
9.61940E-01 1.15266E-36
9.63592E-01 1.05976E-36
9.65209E-01 9.73629E-37
9.66790E-01 8.93803E-37
9.68336E-01 8.19874E-37
9.69846E-01 7.51443E-37
9.71321E-01 6.88145E-37
9.72759E-01 6.29619E-37
9.74162E-01 5.75540E-37
9.75528E-01 5.25597E-37
9.76858E-01 4.79499E-37
9.78152E-01 4.36972E-37
9.79410E-01 3.97758E-37
9.80631E-01 3.61622E-37
9.81815E-01 3.28339E-37
9.82963E-01 2.97698E-37
9.84074E-01 2.69507E-37
9.85148E-01 2.43585E-37
9.86185E-01 2.19762E-37
9.87185E-01 1.97881E-37
9.88148E-01 1.77799E-37
9.89074E-01 1.59379E-37
9.89962E-01 1.42498E-37
9.90814E-01 1.27037E-37
9.91627E-01 1.12893E-37
9.92404E-01 9.99654E-38
9.93143E-01 8.81631E-38
9.93844E-01 7.74028E-38
9.94508E-01 6.76073E-38
9.95134E-01 5.87056E-38
9.95722E-01 5.06345E-38
9.96273E-01 4.33352E-38
9.96786E-01 3.67516E-38
9.97261E-01 3.08368E-38
9.97698E-01 2.55470E-38
9.98097E-01 2.08420E-38
9.98459E-01 1.66860E-38
9.98782E-01 1.30497E-38
9.99067E-01 9.90271E-39
9.99315E-01 7.22345E-39
9.99524E-01 4.98974E-39
9.99695E-01 3.18644E-39
9.99829E-01 1.79589E-39
9.99924E-01 8.11298E-40
9.99981E-01 2.24403E-40
1.00000E+00 2.61752E-41
