 #
 # Subroutine ELSEPA. Elastic scattering of electrons and positrons
 #                    by neutral atoms and positive ions
 #
 # Projectile: electron
 # Kinetic energy = 1.50000E+08 eV = 5.51240E+06 a.u.
 #
 # WARNING: High-energy factorization with free-atom DF screening.
 #          Absorption, polarization and exchange corrections are
 #          switched off.
 #          Phase shifts are calculated for the bare nucleus.
 #          Scattering amplitudes are not evaluated.
 #
 # Element: Pd,  Z =  46,  atomic weight = 1.06420E+02 g/mol
 #
 # Nuclear model: Fermi distribution
 #                Average radius = 5.07059E-13 cm
 #                Skin thickness = 5.46000E-14 cm
 #
 # Number of electrons = 46
 #
 # Total elastic cross section = 4.05516E-18 cm**2 = 1.44812E-01 a0**2
 # 1st transport cross section = 1.85787E-25 cm**2 = 6.63459E-09 a0**2
 # 2nd transport cross section = 5.55103E-25 cm**2 = 1.98231E-08 a0**2
 #
 #
 # Differential cross section:                       MU=(1-COS(THETA))/2
 #
 #  THETA        MU          DCS          DCS        Sherman      error
 #  (deg)                 (cm**2/sr)   (a0**2/sr)    function
 #----------------------------------------------------------------------
0.00000E+00 4.81931E-10
7.61557E-13 4.80570E-10
1.18994E-12 4.79810E-10
1.71346E-12 4.78884E-10
2.33225E-12 4.77795E-10
3.04617E-12 4.76544E-10
3.85530E-12 4.75132E-10
4.75964E-12 4.73564E-10
5.75917E-12 4.71841E-10
6.85391E-12 4.69967E-10
8.04379E-12 4.67945E-10
9.32893E-12 4.65777E-10
1.07092E-11 4.63450E-10
1.21847E-11 4.60977E-10
1.37554E-11 4.58399E-10
1.54213E-11 4.55725E-10
1.71823E-11 4.52861E-10
1.90386E-11 4.49884E-10
2.09900E-11 4.46834E-10
2.30367E-11 4.43696E-10
2.51785E-11 4.40348E-10
2.74156E-11 4.36950E-10
2.97478E-11 4.33509E-10
3.21752E-11 4.29932E-10
3.46979E-11 4.26218E-10
3.73157E-11 4.22484E-10
4.00286E-11 4.18738E-10
4.28368E-11 4.14783E-10
4.57402E-11 4.10790E-10
4.87388E-11 4.06806E-10
5.18325E-11 4.02786E-10
5.50215E-11 3.98568E-10
5.83057E-11 3.94380E-10
6.16850E-11 3.90226E-10
6.51595E-11 3.85953E-10
6.87293E-11 3.81595E-10
7.23943E-11 3.77289E-10
7.61544E-11 3.73037E-10
1.18991E-10 3.28824E-10
1.71347E-10 2.85732E-10
2.33223E-10 2.45829E-10
3.04617E-10 2.10078E-10
3.85531E-10 1.78709E-10
4.75965E-10 1.51726E-10
5.75917E-10 1.28740E-10
6.85389E-10 1.09260E-10
8.04380E-10 9.28083E-11
9.32891E-10 7.89778E-11
1.07092E-09 6.69128E-11
1.21847E-09 5.67313E-11
1.37554E-09 4.87152E-11
1.54213E-09 4.23228E-11
1.71823E-09 3.64083E-11
1.90386E-09 3.14377E-11
2.09900E-09 2.73940E-11
2.30367E-09 2.40265E-11
2.51785E-09 2.09559E-11
2.74156E-09 1.84093E-11
2.97478E-09 1.62809E-11
3.21752E-09 1.44310E-11
3.46978E-09 1.28099E-11
3.73156E-09 1.14328E-11
4.00286E-09 1.02560E-11
4.28368E-09 9.20843E-12
4.57402E-09 8.29860E-12
4.87388E-09 7.51048E-12
5.18326E-09 6.82059E-12
5.50215E-09 6.20202E-12
5.83057E-09 5.65979E-12
6.16850E-09 5.18258E-12
6.51596E-09 4.75433E-12
6.87293E-09 4.36972E-12
7.23942E-09 4.02795E-12
7.61544E-09 3.72327E-12
1.18991E-08 1.83690E-12
1.71347E-08 1.00885E-12
2.33223E-08 5.92309E-13
3.04617E-08 3.66255E-13
3.85531E-08 2.37267E-13
4.75965E-08 1.60268E-13
5.75917E-08 1.12196E-13
6.85389E-08 8.10059E-14
8.04380E-08 6.00442E-14
9.32891E-08 4.54947E-14
1.07092E-07 3.51013E-14
1.21847E-07 2.75495E-14
1.37554E-07 2.19057E-14
1.54213E-07 1.76420E-14
1.71823E-07 1.43681E-14
1.90386E-07 1.18089E-14
2.09900E-07 9.79444E-15
2.30367E-07 8.19121E-15
2.51785E-07 6.89902E-15
2.74156E-07 5.85090E-15
2.97478E-07 4.99422E-15
3.21752E-07 4.28746E-15
3.46978E-07 3.70084E-15
3.73156E-07 3.21118E-15
4.00286E-07 2.79955E-15
4.28368E-07 2.45152E-15
4.57402E-07 2.15598E-15
4.87388E-07 1.90363E-15
5.18325E-07 1.68699E-15
5.50215E-07 1.50037E-15
5.83057E-07 1.33890E-15
6.16850E-07 1.19849E-15
6.51596E-07 1.07607E-15
6.87293E-07 9.68915E-16
7.23942E-07 8.74751E-16
7.61543E-07 7.91775E-16
1.18991E-06 3.28668E-16
1.71347E-06 1.60051E-16
2.33223E-06 8.70154E-17
3.04617E-06 5.12798E-17
3.85531E-06 3.21421E-17
4.75964E-06 2.11526E-17
5.75916E-06 1.44815E-17
6.85388E-06 1.02438E-17
8.04378E-06 7.44824E-18
9.32888E-06 5.54418E-18
1.07092E-05 4.21129E-18
1.21846E-05 3.25586E-18
1.37553E-05 2.55658E-18
1.54212E-05 2.03533E-18
1.71822E-05 1.64039E-18
1.90385E-05 1.33646E-18
2.09899E-05 1.10031E-18
2.30365E-05 9.14027E-19
2.51783E-05 7.65455E-19
2.74153E-05 6.45803E-19
2.97475E-05 5.48605E-19
3.21749E-05 4.69022E-19
3.46974E-05 4.03381E-19
3.73152E-05 3.48859E-19
4.00281E-05 3.03268E-19
4.28362E-05 2.64898E-19
4.57395E-05 2.32411E-19
4.87380E-05 2.04750E-19
5.18317E-05 1.81078E-19
5.50205E-05 1.60726E-19
5.83045E-05 1.43153E-19
6.16838E-05 1.27919E-19
6.51582E-05 1.14662E-19
6.87277E-05 1.03082E-19
7.23925E-05 9.29309E-20
7.61524E-05 8.40966E-20
9.21439E-05 5.74939E-20
1.09658E-04 4.06301E-20
1.28695E-04 2.95260E-20
1.49255E-04 2.19700E-20
1.71338E-04 1.66862E-20
1.94942E-04 1.29004E-20
2.20070E-04 1.01308E-20
2.46720E-04 8.06684E-21
2.74892E-04 6.50305E-21
3.04586E-04 5.30092E-21
3.35803E-04 4.36434E-21
3.68542E-04 3.62597E-21
4.02802E-04 3.03748E-21
4.38585E-04 2.56378E-21
4.75889E-04 2.17901E-21
5.14715E-04 1.86383E-21
5.55063E-04 1.60368E-21
5.96931E-04 1.38740E-21
6.40321E-04 1.20641E-21
6.85233E-04 1.05401E-21
7.31665E-04 9.24936E-22
7.79618E-04 8.15040E-22
8.29092E-04 7.20993E-22
8.80086E-04 6.40127E-22
9.32601E-04 5.70287E-22
9.86636E-04 5.09714E-22
1.04219E-03 4.56973E-22
1.09927E-03 4.10875E-22
1.15786E-03 3.70443E-22
1.21797E-03 3.34859E-22
1.27961E-03 3.03443E-22
1.34276E-03 2.75622E-22
1.40743E-03 2.50912E-22
1.47362E-03 2.28905E-22
1.54133E-03 2.09255E-22
1.61056E-03 1.91663E-22
1.68131E-03 1.75878E-22
1.75357E-03 1.61680E-22
1.82735E-03 1.48882E-22
1.90265E-03 1.37321E-22
1.97947E-03 1.26857E-22
2.05780E-03 1.17367E-22
2.13765E-03 1.08744E-22
2.21902E-03 1.00895E-22
2.30190E-03 9.37386E-23
2.38630E-03 8.72018E-23
2.47222E-03 8.12218E-23
2.55965E-03 7.57426E-23
2.64859E-03 7.07149E-23
2.73905E-03 6.60946E-23
2.83103E-03 6.18428E-23
2.92452E-03 5.79249E-23
3.01952E-03 5.43099E-23
3.11604E-03 5.09702E-23
3.21407E-03 4.78810E-23
3.31362E-03 4.50201E-23
3.41468E-03 4.23677E-23
3.51725E-03 3.99057E-23
3.62133E-03 3.76181E-23
3.72692E-03 3.54903E-23
3.83403E-03 3.35090E-23
3.94265E-03 3.16624E-23
4.05278E-03 2.99397E-23
4.16442E-03 2.83310E-23
4.27757E-03 2.68274E-23
4.39223E-03 2.54208E-23
4.50840E-03 2.41039E-23
4.62608E-03 2.28698E-23
4.74527E-03 2.17125E-23
4.86597E-03 2.06262E-23
4.98817E-03 1.96059E-23
5.11188E-03 1.86468E-23
5.23711E-03 1.77446E-23
5.36383E-03 1.68952E-23
5.49207E-03 1.60951E-23
5.62181E-03 1.53409E-23
5.75306E-03 1.46294E-23
5.88581E-03 1.39578E-23
6.02007E-03 1.33235E-23
6.15583E-03 1.27240E-23
6.29310E-03 1.21570E-23
6.43187E-03 1.16206E-23
6.57214E-03 1.11126E-23
6.71392E-03 1.06315E-23
6.85720E-03 1.01754E-23
7.00198E-03 9.74292E-24
7.14827E-03 9.33252E-24
7.29605E-03 8.94292E-24
7.44534E-03 8.57286E-24
7.59612E-03 8.22119E-24
7.97965E-03 7.41558E-24
8.37255E-03 6.70345E-24
8.77480E-03 6.07218E-24
9.18641E-03 5.51111E-24
9.60736E-03 5.01118E-24
1.00376E-02 4.56465E-24
1.04773E-02 4.16491E-24
1.09262E-02 3.80627E-24
1.13844E-02 3.48382E-24
1.18520E-02 3.19335E-24
1.23288E-02 2.93117E-24
1.28150E-02 2.69409E-24
1.33104E-02 2.47934E-24
1.38150E-02 2.28449E-24
1.43290E-02 2.10740E-24
1.48521E-02 1.94621E-24
1.53845E-02 1.79927E-24
1.59262E-02 1.66513E-24
1.64770E-02 1.54251E-24
1.70371E-02 1.43026E-24
1.76063E-02 1.32738E-24
1.81848E-02 1.23298E-24
1.87724E-02 1.14624E-24
1.93692E-02 1.06647E-24
1.99751E-02 9.93008E-25
2.05901E-02 9.25296E-25
2.12143E-02 8.62816E-25
2.18476E-02 8.05108E-25
2.24900E-02 7.51755E-25
2.31415E-02 7.02385E-25
2.38021E-02 6.56659E-25
2.44717E-02 6.14272E-25
2.51504E-02 5.74947E-25
2.58382E-02 5.38434E-25
2.65349E-02 5.04505E-25
2.72407E-02 4.72954E-25
2.79555E-02 4.43593E-25
2.86793E-02 4.16250E-25
2.94120E-02 3.90770E-25
3.01537E-02 3.67010E-25
3.09043E-02 3.44840E-25
3.16639E-02 3.24141E-25
3.24324E-02 3.04803E-25
3.32098E-02 2.86726E-25
3.39961E-02 2.69820E-25
3.47912E-02 2.53999E-25
3.55952E-02 2.39186E-25
3.64081E-02 2.25310E-25
3.72297E-02 2.12305E-25
3.80602E-02 2.00110E-25
3.88995E-02 1.88671E-25
3.97476E-02 1.77934E-25
4.06044E-02 1.67854E-25
4.14700E-02 1.58385E-25
4.23443E-02 1.49487E-25
4.32273E-02 1.41122E-25
4.41190E-02 1.33256E-25
4.50194E-02 1.25855E-25
4.59284E-02 1.18891E-25
4.68461E-02 1.12334E-25
4.87074E-02 1.00342E-25
5.06030E-02 8.96928E-26
5.25328E-02 8.02252E-26
5.44967E-02 7.17987E-26
5.64946E-02 6.42909E-26
5.85262E-02 5.75952E-26
6.05914E-02 5.16185E-26
6.26901E-02 4.62791E-26
6.48222E-02 4.15053E-26
6.69873E-02 3.72344E-26
6.91854E-02 3.34107E-26
7.14163E-02 2.99855E-26
7.36799E-02 2.69155E-26
7.59760E-02 2.41626E-26
7.83043E-02 2.16929E-26
8.06647E-02 1.94763E-26
8.30571E-02 1.74864E-26
8.54812E-02 1.56993E-26
8.79369E-02 1.40939E-26
9.04240E-02 1.26515E-26
9.29422E-02 1.13553E-26
9.54915E-02 1.01904E-26
9.80716E-02 9.14322E-27
1.00682E-01 8.20194E-27
1.03323E-01 7.35580E-27
1.05995E-01 6.59520E-27
1.08696E-01 5.91153E-27
1.11427E-01 5.29706E-27
1.14188E-01 4.74487E-27
1.16978E-01 4.24871E-27
1.19797E-01 3.80300E-27
1.22645E-01 3.40269E-27
1.25522E-01 3.04326E-27
1.28428E-01 2.72062E-27
1.31361E-01 2.43112E-27
1.34323E-01 2.17144E-27
1.37313E-01 1.93860E-27
1.40330E-01 1.72993E-27
1.43375E-01 1.54299E-27
1.46447E-01 1.37562E-27
1.49545E-01 1.22584E-27
1.52671E-01 1.09188E-27
1.55823E-01 9.72147E-28
1.59001E-01 8.65194E-28
1.62205E-01 7.69723E-28
1.65435E-01 6.84561E-28
1.68690E-01 6.08650E-28
1.71970E-01 5.41039E-28
1.75276E-01 4.80868E-28
1.78606E-01 4.27363E-28
1.81961E-01 3.79828E-28
1.85340E-01 3.37633E-28
1.88743E-01 3.00213E-28
1.92169E-01 2.67060E-28
1.95619E-01 2.37715E-28
1.99092E-01 2.11766E-28
2.02589E-01 1.88844E-28
2.06107E-01 1.68615E-28
2.09649E-01 1.50782E-28
2.13212E-01 1.35075E-28
2.16797E-01 1.21256E-28
2.20404E-01 1.09110E-28
2.24032E-01 9.84420E-29
2.27680E-01 8.90815E-29
2.31350E-01 8.08742E-29
2.35040E-01 7.36826E-29
2.38751E-01 6.73841E-29
2.42481E-01 6.18697E-29
2.46231E-01 5.70422E-29
2.50000E-01 5.28154E-29
2.53788E-01 4.91126E-29
2.57595E-01 4.58662E-29
2.61421E-01 4.30160E-29
2.65264E-01 4.05092E-29
2.69126E-01 3.82991E-29
2.73005E-01 3.63446E-29
2.76901E-01 3.46097E-29
2.80814E-01 3.30630E-29
2.84744E-01 3.16767E-29
2.88691E-01 3.04271E-29
2.92653E-01 2.92932E-29
2.96632E-01 2.82570E-29
3.00625E-01 2.73029E-29
3.04634E-01 2.64177E-29
3.08658E-01 2.55900E-29
3.12697E-01 2.48099E-29
3.16749E-01 2.40694E-29
3.20816E-01 2.33614E-29
3.24896E-01 2.26804E-29
3.28990E-01 2.20215E-29
3.33097E-01 2.13808E-29
3.37216E-01 2.07552E-29
3.41348E-01 2.01423E-29
3.45492E-01 1.95400E-29
3.49647E-01 1.89469E-29
3.53814E-01 1.83619E-29
3.57992E-01 1.77843E-29
3.62181E-01 1.72135E-29
3.66381E-01 1.66495E-29
3.70590E-01 1.60920E-29
3.74810E-01 1.55412E-29
3.79039E-01 1.49974E-29
3.83277E-01 1.44607E-29
3.87524E-01 1.39316E-29
3.91780E-01 1.34104E-29
3.96044E-01 1.28976E-29
4.00316E-01 1.23936E-29
4.04596E-01 1.18989E-29
4.08882E-01 1.14139E-29
4.13176E-01 1.09390E-29
4.17476E-01 1.04746E-29
4.21783E-01 1.00209E-29
4.26095E-01 9.57846E-30
4.30413E-01 9.14742E-30
4.34737E-01 8.72806E-30
4.39065E-01 8.32057E-30
4.43398E-01 7.92512E-30
4.47736E-01 7.54184E-30
4.52077E-01 7.17081E-30
4.56422E-01 6.81208E-30
4.60770E-01 6.46566E-30
4.65122E-01 6.13152E-30
4.69476E-01 5.80961E-30
4.73832E-01 5.49985E-30
4.78190E-01 5.20211E-30
4.82550E-01 4.91625E-30
4.86912E-01 4.64211E-30
4.91274E-01 4.37949E-30
4.95637E-01 4.12819E-30
5.00000E-01 3.88797E-30
5.04363E-01 3.65859E-30
5.08726E-01 3.43980E-30
5.13088E-01 3.23133E-30
5.17450E-01 3.03289E-30
5.21810E-01 2.84419E-30
5.26168E-01 2.66494E-30
5.30524E-01 2.49485E-30
5.34878E-01 2.33360E-30
5.39230E-01 2.18089E-30
5.43578E-01 2.03641E-30
5.47923E-01 1.89986E-30
5.52264E-01 1.77093E-30
5.56602E-01 1.64931E-30
5.60935E-01 1.53470E-30
5.65263E-01 1.42682E-30
5.69587E-01 1.32535E-30
5.73905E-01 1.23003E-30
5.78217E-01 1.14056E-30
5.82524E-01 1.05667E-30
5.86824E-01 9.78101E-31
5.91118E-01 9.04579E-31
5.95404E-01 8.35856E-31
5.99684E-01 7.71684E-31
6.03956E-01 7.11826E-31
6.08220E-01 6.56050E-31
6.12476E-01 6.04134E-31
6.16723E-01 5.55864E-31
6.20961E-01 5.11033E-31
6.25190E-01 4.69444E-31
6.29410E-01 4.30905E-31
6.33619E-01 3.95234E-31
6.37819E-01 3.62258E-31
6.42008E-01 3.31809E-31
6.46186E-01 3.03729E-31
6.50353E-01 2.77866E-31
6.54508E-01 2.54076E-31
6.58652E-01 2.32222E-31
6.62784E-01 2.12173E-31
6.66903E-01 1.93807E-31
6.71010E-01 1.77005E-31
6.75104E-01 1.61659E-31
6.79184E-01 1.47662E-31
6.83251E-01 1.34917E-31
6.87303E-01 1.23330E-31
6.91342E-01 1.12815E-31
6.95366E-01 1.03288E-31
6.99375E-01 9.46722E-32
7.03368E-01 8.68956E-32
7.07347E-01 7.98898E-32
7.11309E-01 7.35912E-32
7.15256E-01 6.79406E-32
7.19186E-01 6.28822E-32
7.23099E-01 5.83645E-32
7.26995E-01 5.43392E-32
7.30874E-01 5.07616E-32
7.34736E-01 4.75899E-32
7.38579E-01 4.47858E-32
7.42405E-01 4.23134E-32
7.46212E-01 4.01398E-32
7.50000E-01 3.82344E-32
7.53769E-01 3.65692E-32
7.57519E-01 3.51183E-32
7.61249E-01 3.38579E-32
7.64960E-01 3.27663E-32
7.68650E-01 3.18235E-32
7.72320E-01 3.10113E-32
7.75968E-01 3.03132E-32
7.79596E-01 2.97139E-32
7.83203E-01 2.91998E-32
7.86788E-01 2.87585E-32
7.90351E-01 2.83788E-32
7.93893E-01 2.80506E-32
7.97411E-01 2.77648E-32
8.00908E-01 2.75134E-32
8.04381E-01 2.72892E-32
8.07831E-01 2.70858E-32
8.11257E-01 2.68974E-32
8.14660E-01 2.67192E-32
8.18039E-01 2.65469E-32
8.21394E-01 2.63765E-32
8.24724E-01 2.62051E-32
8.28030E-01 2.60297E-32
8.31310E-01 2.58480E-32
8.34565E-01 2.56581E-32
8.37795E-01 2.54585E-32
8.40999E-01 2.52479E-32
8.44177E-01 2.50253E-32
8.47329E-01 2.47899E-32
8.50455E-01 2.45414E-32
8.53553E-01 2.42794E-32
8.56625E-01 2.40039E-32
8.59670E-01 2.37148E-32
8.62687E-01 2.34124E-32
8.65677E-01 2.30969E-32
8.68639E-01 2.27689E-32
8.71572E-01 2.24287E-32
8.74478E-01 2.20770E-32
8.77355E-01 2.17143E-32
8.80203E-01 2.13414E-32
8.83022E-01 2.09590E-32
8.85812E-01 2.05678E-32
8.88573E-01 2.01686E-32
8.91304E-01 1.97621E-32
8.94005E-01 1.93492E-32
8.96677E-01 1.89306E-32
8.99318E-01 1.85072E-32
9.01928E-01 1.80796E-32
9.04508E-01 1.76487E-32
9.07058E-01 1.72151E-32
9.09576E-01 1.67797E-32
9.12063E-01 1.63431E-32
9.14519E-01 1.59059E-32
9.16943E-01 1.54689E-32
9.19335E-01 1.50327E-32
9.21696E-01 1.45979E-32
9.24024E-01 1.41649E-32
9.26320E-01 1.37345E-32
9.28584E-01 1.33071E-32
9.30815E-01 1.28831E-32
9.33013E-01 1.24631E-32
9.35178E-01 1.20474E-32
9.37310E-01 1.16364E-32
9.39409E-01 1.12306E-32
9.41474E-01 1.08303E-32
9.43505E-01 1.04357E-32
9.45503E-01 1.00472E-32
9.47467E-01 9.66502E-33
9.49397E-01 9.28941E-33
9.51293E-01 8.92059E-33
9.53154E-01 8.55875E-33
9.54981E-01 8.20407E-33
9.56773E-01 7.85670E-33
9.58530E-01 7.51677E-33
9.60252E-01 7.18440E-33
9.61940E-01 6.85968E-33
9.63592E-01 6.54271E-33
9.65209E-01 6.23354E-33
9.66790E-01 5.93222E-33
9.68336E-01 5.63881E-33
9.69846E-01 5.35332E-33
9.71321E-01 5.07577E-33
9.72759E-01 4.80616E-33
9.74162E-01 4.54450E-33
9.75528E-01 4.29075E-33
9.76858E-01 4.04492E-33
9.78152E-01 3.80695E-33
9.79410E-01 3.57682E-33
9.80631E-01 3.35448E-33
9.81815E-01 3.13990E-33
9.82963E-01 2.93301E-33
9.84074E-01 2.73375E-33
9.85148E-01 2.54208E-33
9.86185E-01 2.35793E-33
9.87185E-01 2.18123E-33
9.88148E-01 2.01192E-33
9.89074E-01 1.84994E-33
9.89962E-01 1.69520E-33
9.90814E-01 1.54766E-33
9.91627E-01 1.40723E-33
9.92404E-01 1.27386E-33
9.93143E-01 1.14747E-33
9.93844E-01 1.02800E-33
9.94508E-01 9.15383E-34
9.95134E-01 8.09565E-34
9.95722E-01 7.10482E-34
9.96273E-01 6.18078E-34
9.96786E-01 5.32297E-34
9.97261E-01 4.53089E-34
9.97698E-01 3.80403E-34
9.98097E-01 3.14196E-34
9.98459E-01 2.54424E-34
9.98782E-01 2.01050E-34
9.99067E-01 1.54039E-34
9.99315E-01 1.13359E-34
9.99524E-01 7.89838E-35
9.99695E-01 5.08907E-35
9.99829E-01 2.90598E-35
9.99924E-01 1.34771E-35
9.99981E-01 4.13189E-36
1.00000E+00 1.01705E-36
