 #
 # Subroutine ELSEPA. Elastic scattering of electrons and positrons
 #                    by neutral atoms and positive ions
 #
 # Projectile: electron
 # Kinetic energy = 3.50000E+06 eV = 1.28623E+05 a.u.
 #
 # WARNING: High-energy factorization with free-atom DF screening.
 #          Absorption, polarization and exchange corrections are
 #          switched off.
 #          Phase shifts are calculated for the bare nucleus.
 #          Scattering amplitudes are not evaluated.
 #
 # Element: Pd,  Z =  46,  atomic weight = 1.06420E+02 g/mol
 #
 # Nuclear model: Fermi distribution
 #                Average radius = 5.07059E-13 cm
 #                Skin thickness = 5.46000E-14 cm
 #
 # Number of electrons = 46
 #
 # Total elastic cross section = 4.12535E-18 cm**2 = 1.47319E-01 a0**2
 # 1st transport cross section = 2.03494E-22 cm**2 = 7.26691E-06 a0**2
 # 2nd transport cross section = 5.66686E-22 cm**2 = 2.02367E-05 a0**2
 #
 #
 # Differential cross section:                       MU=(1-COS(THETA))/2
 #
 #  THETA        MU          DCS          DCS        Sherman      error
 #  (deg)                 (cm**2/sr)   (a0**2/sr)    function
 #----------------------------------------------------------------------
0.00000E+00 3.42258E-13
7.61557E-13 3.42257E-13
1.18994E-12 3.42257E-13
1.71346E-12 3.42256E-13
2.33225E-12 3.42256E-13
3.04617E-12 3.42255E-13
3.85530E-12 3.42254E-13
4.75964E-12 3.42254E-13
5.75917E-12 3.42253E-13
6.85391E-12 3.42252E-13
8.04379E-12 3.42251E-13
9.32893E-12 3.42250E-13
1.07092E-11 3.42248E-13
1.21847E-11 3.42247E-13
1.37554E-11 3.42246E-13
1.54213E-11 3.42244E-13
1.71823E-11 3.42243E-13
1.90386E-11 3.42241E-13
2.09900E-11 3.42239E-13
2.30367E-11 3.42238E-13
2.51785E-11 3.42236E-13
2.74156E-11 3.42234E-13
2.97478E-11 3.42232E-13
3.21752E-11 3.42230E-13
3.46979E-11 3.42227E-13
3.73157E-11 3.42225E-13
4.00286E-11 3.42223E-13
4.28368E-11 3.42220E-13
4.57402E-11 3.42218E-13
4.87388E-11 3.42215E-13
5.18325E-11 3.42212E-13
5.50215E-11 3.42210E-13
5.83057E-11 3.42207E-13
6.16850E-11 3.42204E-13
6.51595E-11 3.42201E-13
6.87293E-11 3.42197E-13
7.23943E-11 3.42194E-13
7.61544E-11 3.42191E-13
1.18991E-10 3.42153E-13
1.71347E-10 3.42107E-13
2.33223E-10 3.42053E-13
3.04617E-10 3.41990E-13
3.85531E-10 3.41919E-13
4.75965E-10 3.41839E-13
5.75917E-10 3.41751E-13
6.85389E-10 3.41655E-13
8.04380E-10 3.41550E-13
9.32891E-10 3.41437E-13
1.07092E-09 3.41316E-13
1.21847E-09 3.41187E-13
1.37554E-09 3.41049E-13
1.54213E-09 3.40903E-13
1.71823E-09 3.40748E-13
1.90386E-09 3.40586E-13
2.09900E-09 3.40415E-13
2.30367E-09 3.40236E-13
2.51785E-09 3.40049E-13
2.74156E-09 3.39854E-13
2.97478E-09 3.39651E-13
3.21752E-09 3.39440E-13
3.46978E-09 3.39220E-13
3.73156E-09 3.38993E-13
4.00286E-09 3.38757E-13
4.28368E-09 3.38514E-13
4.57402E-09 3.38263E-13
4.87388E-09 3.38003E-13
5.18326E-09 3.37736E-13
5.50215E-09 3.37461E-13
5.83057E-09 3.37179E-13
6.16850E-09 3.36888E-13
6.51596E-09 3.36590E-13
6.87293E-09 3.36284E-13
7.23942E-09 3.35970E-13
7.61544E-09 3.35649E-13
1.18991E-08 3.32027E-13
1.71347E-08 3.27659E-13
2.33223E-08 3.22678E-13
3.04617E-08 3.17052E-13
3.85531E-08 3.10869E-13
4.75965E-08 3.04239E-13
5.75917E-08 2.97229E-13
6.85389E-08 2.89755E-13
8.04380E-08 2.82033E-13
9.32891E-08 2.74140E-13
1.07092E-07 2.66043E-13
1.21847E-07 2.57768E-13
1.37554E-07 2.49487E-13
1.54213E-07 2.41249E-13
1.71823E-07 2.32914E-13
1.90386E-07 2.24658E-13
2.09900E-07 2.16554E-13
2.30367E-07 2.08587E-13
2.51785E-07 2.00656E-13
2.74156E-07 1.92945E-13
2.97478E-07 1.85465E-13
3.21752E-07 1.78130E-13
3.46978E-07 1.70972E-13
3.73156E-07 1.64072E-13
4.00286E-07 1.57429E-13
4.28368E-07 1.50916E-13
4.57402E-07 1.44654E-13
4.87388E-07 1.38650E-13
5.18325E-07 1.32866E-13
5.50215E-07 1.27251E-13
5.83057E-07 1.21883E-13
6.16850E-07 1.16753E-13
6.51596E-07 1.11796E-13
6.87293E-07 1.07035E-13
7.23942E-07 1.02494E-13
7.61543E-07 9.81607E-14
1.18991E-06 6.36937E-14
1.71347E-06 4.12417E-14
2.33223E-06 2.79464E-14
3.04617E-06 1.91056E-14
3.85531E-06 1.34474E-14
4.75964E-06 9.74264E-15
5.75916E-06 7.23803E-15
6.85388E-06 5.49365E-15
8.04378E-06 4.26804E-15
9.32888E-06 3.38233E-15
1.07092E-05 2.72388E-15
1.21846E-05 2.22306E-15
1.37553E-05 1.83707E-15
1.54212E-05 1.53426E-15
1.71822E-05 1.29016E-15
1.90385E-05 1.09262E-15
2.09899E-05 9.32098E-16
2.30365E-05 7.99438E-16
2.51783E-05 6.88063E-16
2.74153E-05 5.95112E-16
2.97475E-05 5.17011E-16
3.21749E-05 4.50674E-16
3.46974E-05 3.94313E-16
3.73152E-05 3.46342E-16
4.00281E-05 3.05271E-16
4.28362E-05 2.69850E-16
4.57395E-05 2.39385E-16
4.87380E-05 2.13075E-16
5.18317E-05 1.90239E-16
5.50205E-05 1.70331E-16
5.83045E-05 1.52968E-16
6.16838E-05 1.37770E-16
6.51582E-05 1.24403E-16
6.87277E-05 1.12625E-16
7.23925E-05 1.02223E-16
7.61524E-05 9.30071E-17
9.21439E-05 6.51333E-17
1.09658E-04 4.70641E-17
1.28695E-04 3.49052E-17
1.49255E-04 2.64444E-17
1.71338E-04 2.04182E-17
1.94942E-04 1.60124E-17
2.20070E-04 1.27374E-17
2.46720E-04 1.02590E-17
2.74892E-04 8.34870E-18
3.04586E-04 6.86212E-18
3.35803E-04 5.69170E-18
3.68542E-04 4.75956E-18
4.02802E-04 4.00882E-18
4.38585E-04 3.40039E-18
4.75889E-04 2.90305E-18
5.14715E-04 2.49296E-18
5.55063E-04 2.15260E-18
5.96931E-04 1.86847E-18
6.40321E-04 1.62977E-18
6.85233E-04 1.42787E-18
7.31665E-04 1.25636E-18
7.79618E-04 1.10992E-18
8.29092E-04 9.84243E-19
8.80086E-04 8.75870E-19
9.32601E-04 7.82073E-19
9.86636E-04 7.00555E-19
1.04219E-03 6.29404E-19
1.09927E-03 5.67092E-19
1.15786E-03 5.12343E-19
1.21797E-03 4.64075E-19
1.27961E-03 4.21368E-19
1.34276E-03 3.83489E-19
1.40743E-03 3.49795E-19
1.47362E-03 3.19736E-19
1.54133E-03 2.92848E-19
1.61056E-03 2.68744E-19
1.68131E-03 2.47083E-19
1.75357E-03 2.27567E-19
1.82735E-03 2.09950E-19
1.90265E-03 1.94015E-19
1.97947E-03 1.79571E-19
2.05780E-03 1.66450E-19
2.13765E-03 1.54513E-19
2.21902E-03 1.43632E-19
2.30190E-03 1.33697E-19
2.38630E-03 1.24610E-19
2.47222E-03 1.16285E-19
2.55965E-03 1.08649E-19
2.64859E-03 1.01631E-19
2.73905E-03 9.51734E-20
2.83103E-03 8.92237E-20
2.92452E-03 8.37340E-20
3.01952E-03 7.86615E-20
3.11604E-03 7.39695E-20
3.21407E-03 6.96243E-20
3.31362E-03 6.55947E-20
3.41468E-03 6.18538E-20
3.51725E-03 5.83773E-20
3.62133E-03 5.51432E-20
3.72692E-03 5.21306E-20
3.83403E-03 4.93222E-20
3.94265E-03 4.67015E-20
4.05278E-03 4.42535E-20
4.16442E-03 4.19645E-20
4.27757E-03 3.98225E-20
4.39223E-03 3.78162E-20
4.50840E-03 3.59353E-20
4.62608E-03 3.41705E-20
4.74527E-03 3.25134E-20
4.86597E-03 3.09562E-20
4.98817E-03 2.94915E-20
5.11188E-03 2.81130E-20
5.23711E-03 2.68146E-20
5.36383E-03 2.55907E-20
5.49207E-03 2.44363E-20
5.62181E-03 2.33466E-20
5.75306E-03 2.23175E-20
5.88581E-03 2.13447E-20
6.02007E-03 2.04247E-20
6.15583E-03 1.95540E-20
6.29310E-03 1.87296E-20
6.43187E-03 1.79484E-20
6.57214E-03 1.72078E-20
6.71392E-03 1.65054E-20
6.85720E-03 1.58386E-20
7.00198E-03 1.52053E-20
7.14827E-03 1.46037E-20
7.29605E-03 1.40317E-20
7.44534E-03 1.34876E-20
7.59612E-03 1.29699E-20
7.97965E-03 1.17809E-20
8.37255E-03 1.07261E-20
8.77480E-03 9.78753E-21
9.18641E-03 8.95019E-21
9.60736E-03 8.20119E-21
1.00376E-02 7.52955E-21
1.04773E-02 6.92582E-21
1.09262E-02 6.38191E-21
1.13844E-02 5.89081E-21
1.18520E-02 5.44646E-21
1.23288E-02 5.04360E-21
1.28150E-02 4.67765E-21
1.33104E-02 4.34460E-21
1.38150E-02 4.04096E-21
1.43290E-02 3.76363E-21
1.48521E-02 3.50992E-21
1.53845E-02 3.27746E-21
1.59262E-02 3.06414E-21
1.64770E-02 2.86805E-21
1.70371E-02 2.68758E-21
1.76063E-02 2.52123E-21
1.81848E-02 2.36770E-21
1.87724E-02 2.22581E-21
1.93692E-02 2.09451E-21
1.99751E-02 1.97286E-21
2.05901E-02 1.86002E-21
2.12143E-02 1.75522E-21
2.18476E-02 1.65779E-21
2.24900E-02 1.56711E-21
2.31415E-02 1.48262E-21
2.38021E-02 1.40382E-21
2.44717E-02 1.33026E-21
2.51504E-02 1.26150E-21
2.58382E-02 1.19719E-21
2.65349E-02 1.13698E-21
2.72407E-02 1.08056E-21
2.79555E-02 1.02764E-21
2.86793E-02 9.77960E-22
2.94120E-02 9.31288E-22
3.01537E-02 8.87404E-22
3.09043E-02 8.46110E-22
3.16639E-02 8.07223E-22
3.24324E-02 7.70576E-22
3.32098E-02 7.36013E-22
3.39961E-02 7.03393E-22
3.47912E-02 6.72586E-22
3.55952E-02 6.43471E-22
3.64081E-02 6.15936E-22
3.72297E-02 5.89880E-22
3.80602E-02 5.65207E-22
3.88995E-02 5.41828E-22
3.97476E-02 5.19664E-22
4.06044E-02 4.98638E-22
4.14700E-02 4.78679E-22
4.23443E-02 4.59724E-22
4.32273E-02 4.41712E-22
4.41190E-02 4.24586E-22
4.50194E-02 4.08295E-22
4.59284E-02 3.92788E-22
4.68461E-02 3.78022E-22
4.87074E-02 3.50543E-22
5.06030E-02 3.25551E-22
5.25328E-02 3.02778E-22
5.44967E-02 2.81990E-22
5.64946E-02 2.62981E-22
5.85262E-02 2.45569E-22
6.05914E-02 2.29595E-22
6.26901E-02 2.14917E-22
6.48222E-02 2.01410E-22
6.69873E-02 1.88962E-22
6.91854E-02 1.77475E-22
7.14163E-02 1.66859E-22
7.36799E-02 1.57036E-22
7.59760E-02 1.47935E-22
7.83043E-02 1.39492E-22
8.06647E-02 1.31652E-22
8.30571E-02 1.24361E-22
8.54812E-02 1.17575E-22
8.79369E-02 1.11252E-22
9.04240E-02 1.05353E-22
9.29422E-02 9.98442E-23
9.54915E-02 9.46955E-23
9.80716E-02 8.98782E-23
1.00682E-01 8.53669E-23
1.03323E-01 8.11383E-23
1.05995E-01 7.71711E-23
1.08696E-01 7.34460E-23
1.11427E-01 6.99453E-23
1.14188E-01 6.66527E-23
1.16978E-01 6.35534E-23
1.19797E-01 6.06338E-23
1.22645E-01 5.78814E-23
1.25522E-01 5.52847E-23
1.28428E-01 5.28331E-23
1.31361E-01 5.05170E-23
1.34323E-01 4.83273E-23
1.37313E-01 4.62557E-23
1.40330E-01 4.42946E-23
1.43375E-01 4.24370E-23
1.46447E-01 4.06762E-23
1.49545E-01 3.90061E-23
1.52671E-01 3.74213E-23
1.55823E-01 3.59164E-23
1.59001E-01 3.44866E-23
1.62205E-01 3.31274E-23
1.65435E-01 3.18347E-23
1.68690E-01 3.06045E-23
1.71970E-01 2.94332E-23
1.75276E-01 2.83174E-23
1.78606E-01 2.72538E-23
1.81961E-01 2.62397E-23
1.85340E-01 2.52722E-23
1.88743E-01 2.43488E-23
1.92169E-01 2.34670E-23
1.95619E-01 2.26246E-23
1.99092E-01 2.18195E-23
2.02589E-01 2.10497E-23
2.06107E-01 2.03133E-23
2.09649E-01 1.96086E-23
2.13212E-01 1.89339E-23
2.16797E-01 1.82878E-23
2.20404E-01 1.76687E-23
2.24032E-01 1.70753E-23
2.27680E-01 1.65063E-23
2.31350E-01 1.59605E-23
2.35040E-01 1.54368E-23
2.38751E-01 1.49341E-23
2.42481E-01 1.44515E-23
2.46231E-01 1.39878E-23
2.50000E-01 1.35423E-23
2.53788E-01 1.31140E-23
2.57595E-01 1.27022E-23
2.61421E-01 1.23062E-23
2.65264E-01 1.19251E-23
2.69126E-01 1.15583E-23
2.73005E-01 1.12052E-23
2.76901E-01 1.08652E-23
2.80814E-01 1.05377E-23
2.84744E-01 1.02221E-23
2.88691E-01 9.91785E-24
2.92653E-01 9.62454E-24
2.96632E-01 9.34167E-24
3.00625E-01 9.06880E-24
3.04634E-01 8.80550E-24
3.08658E-01 8.55137E-24
3.12697E-01 8.30603E-24
3.16749E-01 8.06912E-24
3.20816E-01 7.84029E-24
3.24896E-01 7.61920E-24
3.28990E-01 7.40555E-24
3.33097E-01 7.19902E-24
3.37216E-01 6.99934E-24
3.41348E-01 6.80624E-24
3.45492E-01 6.61945E-24
3.49647E-01 6.43873E-24
3.53814E-01 6.26384E-24
3.57992E-01 6.09457E-24
3.62181E-01 5.93069E-24
3.66381E-01 5.77200E-24
3.70590E-01 5.61830E-24
3.74810E-01 5.46940E-24
3.79039E-01 5.32513E-24
3.83277E-01 5.18530E-24
3.87524E-01 5.04976E-24
3.91780E-01 4.91836E-24
3.96044E-01 4.79093E-24
4.00316E-01 4.66734E-24
4.04596E-01 4.54746E-24
4.08882E-01 4.43114E-24
4.13176E-01 4.31827E-24
4.17476E-01 4.20871E-24
4.21783E-01 4.10236E-24
4.26095E-01 3.99909E-24
4.30413E-01 3.89881E-24
4.34737E-01 3.80141E-24
4.39065E-01 3.70679E-24
4.43398E-01 3.61486E-24
4.47736E-01 3.52553E-24
4.52077E-01 3.43871E-24
4.56422E-01 3.35432E-24
4.60770E-01 3.27227E-24
4.65122E-01 3.19250E-24
4.69476E-01 3.11492E-24
4.73832E-01 3.03946E-24
4.78190E-01 2.96605E-24
4.82550E-01 2.89463E-24
4.86912E-01 2.82513E-24
4.91274E-01 2.75749E-24
4.95637E-01 2.69165E-24
5.00000E-01 2.62757E-24
5.04363E-01 2.56517E-24
5.08726E-01 2.50442E-24
5.13088E-01 2.44525E-24
5.17450E-01 2.38762E-24
5.21810E-01 2.33149E-24
5.26168E-01 2.27680E-24
5.30524E-01 2.22351E-24
5.34878E-01 2.17158E-24
5.39230E-01 2.12096E-24
5.43578E-01 2.07163E-24
5.47923E-01 2.02354E-24
5.52264E-01 1.97665E-24
5.56602E-01 1.93093E-24
5.60935E-01 1.88635E-24
5.65263E-01 1.84287E-24
5.69587E-01 1.80046E-24
5.73905E-01 1.75910E-24
5.78217E-01 1.71874E-24
5.82524E-01 1.67935E-24
5.86824E-01 1.64093E-24
5.91118E-01 1.60342E-24
5.95404E-01 1.56682E-24
5.99684E-01 1.53109E-24
6.03956E-01 1.49621E-24
6.08220E-01 1.46215E-24
6.12476E-01 1.42890E-24
6.16723E-01 1.39644E-24
6.20961E-01 1.36473E-24
6.25190E-01 1.33377E-24
6.29410E-01 1.30353E-24
6.33619E-01 1.27398E-24
6.37819E-01 1.24512E-24
6.42008E-01 1.21692E-24
6.46186E-01 1.18936E-24
6.50353E-01 1.16243E-24
6.54508E-01 1.13611E-24
6.58652E-01 1.11039E-24
6.62784E-01 1.08526E-24
6.66903E-01 1.06069E-24
6.71010E-01 1.03667E-24
6.75104E-01 1.01319E-24
6.79184E-01 9.90229E-25
6.83251E-01 9.67779E-25
6.87303E-01 9.45825E-25
6.91342E-01 9.24356E-25
6.95366E-01 9.03358E-25
6.99375E-01 8.82822E-25
7.03368E-01 8.62736E-25
7.07347E-01 8.43088E-25
7.11309E-01 8.23867E-25
7.15256E-01 8.05064E-25
7.19186E-01 7.86668E-25
7.23099E-01 7.68668E-25
7.26995E-01 7.51056E-25
7.30874E-01 7.33822E-25
7.34736E-01 7.16956E-25
7.38579E-01 7.00450E-25
7.42405E-01 6.84296E-25
7.46212E-01 6.68485E-25
7.50000E-01 6.53009E-25
7.53769E-01 6.37861E-25
7.57519E-01 6.23032E-25
7.61249E-01 6.08516E-25
7.64960E-01 5.94305E-25
7.68650E-01 5.80393E-25
7.72320E-01 5.66772E-25
7.75968E-01 5.53437E-25
7.79596E-01 5.40379E-25
7.83203E-01 5.27594E-25
7.86788E-01 5.15075E-25
7.90351E-01 5.02815E-25
7.93893E-01 4.90811E-25
7.97411E-01 4.79054E-25
8.00908E-01 4.67542E-25
8.04381E-01 4.56267E-25
8.07831E-01 4.45225E-25
8.11257E-01 4.34410E-25
8.14660E-01 4.23819E-25
8.18039E-01 4.13446E-25
8.21394E-01 4.03286E-25
8.24724E-01 3.93336E-25
8.28030E-01 3.83590E-25
8.31310E-01 3.74045E-25
8.34565E-01 3.64696E-25
8.37795E-01 3.55539E-25
8.40999E-01 3.46570E-25
8.44177E-01 3.37786E-25
8.47329E-01 3.29182E-25
8.50455E-01 3.20755E-25
8.53553E-01 3.12501E-25
8.56625E-01 3.04417E-25
8.59670E-01 2.96500E-25
8.62687E-01 2.88746E-25
8.65677E-01 2.81152E-25
8.68639E-01 2.73715E-25
8.71572E-01 2.66432E-25
8.74478E-01 2.59300E-25
8.77355E-01 2.52316E-25
8.80203E-01 2.45478E-25
8.83022E-01 2.38781E-25
8.85812E-01 2.32225E-25
8.88573E-01 2.25806E-25
8.91304E-01 2.19522E-25
8.94005E-01 2.13370E-25
8.96677E-01 2.07348E-25
8.99318E-01 2.01453E-25
9.01928E-01 1.95684E-25
9.04508E-01 1.90037E-25
9.07058E-01 1.84512E-25
9.09576E-01 1.79105E-25
9.12063E-01 1.73815E-25
9.14519E-01 1.68639E-25
9.16943E-01 1.63577E-25
9.19335E-01 1.58625E-25
9.21696E-01 1.53782E-25
9.24024E-01 1.49046E-25
9.26320E-01 1.44416E-25
9.28584E-01 1.39889E-25
9.30815E-01 1.35464E-25
9.33013E-01 1.31140E-25
9.35178E-01 1.26915E-25
9.37310E-01 1.22787E-25
9.39409E-01 1.18755E-25
9.41474E-01 1.14817E-25
9.43505E-01 1.10972E-25
9.45503E-01 1.07219E-25
9.47467E-01 1.03556E-25
9.49397E-01 9.99814E-26
9.51293E-01 9.64949E-26
9.53154E-01 9.30949E-26
9.54981E-01 8.97801E-26
9.56773E-01 8.65494E-26
9.58530E-01 8.34015E-26
9.60252E-01 8.03356E-26
9.61940E-01 7.73504E-26
9.63592E-01 7.44449E-26
9.65209E-01 7.16182E-26
9.66790E-01 6.88692E-26
9.68336E-01 6.61970E-26
9.69846E-01 6.36007E-26
9.71321E-01 6.10794E-26
9.72759E-01 5.86323E-26
9.74162E-01 5.62584E-26
9.75528E-01 5.39571E-26
9.76858E-01 5.17275E-26
9.78152E-01 4.95688E-26
9.79410E-01 4.74805E-26
9.80631E-01 4.54616E-26
9.81815E-01 4.35116E-26
9.82963E-01 4.16298E-26
9.84074E-01 3.98156E-26
9.85148E-01 3.80684E-26
9.86185E-01 3.63876E-26
9.87185E-01 3.47726E-26
9.88148E-01 3.32229E-26
9.89074E-01 3.17380E-26
9.89962E-01 3.03174E-26
9.90814E-01 2.89606E-26
9.91627E-01 2.76672E-26
9.92404E-01 2.64367E-26
9.93143E-01 2.52688E-26
9.93844E-01 2.41631E-26
9.94508E-01 2.31191E-26
9.95134E-01 2.21366E-26
9.95722E-01 2.12153E-26
9.96273E-01 2.03548E-26
9.96786E-01 1.95548E-26
9.97261E-01 1.88152E-26
9.97698E-01 1.81356E-26
9.98097E-01 1.75158E-26
9.98459E-01 1.69557E-26
9.98782E-01 1.64550E-26
9.99067E-01 1.60136E-26
9.99315E-01 1.56313E-26
9.99524E-01 1.53081E-26
9.99695E-01 1.50438E-26
9.99829E-01 1.48383E-26
9.99924E-01 1.46915E-26
9.99981E-01 1.46035E-26
1.00000E+00 1.45742E-26
