 #  Total cross section table (last run of 'elscata').
 #
 #  Z =  46,   projectile: electron
 #
 #   Energy         ECS         TCS1         TCS2         ABSCS      error
 #    (eV)        (cm**2)      (cm**2)      (cm**2)      (cm**2)
 #--------------------------------------------------------------------------
   1.00000E+02  6.82103E-16  1.73772E-16  2.33700E-16  4.67163E-16  1.0E-07
   1.25000E+02  5.81311E-16  1.46115E-16  2.06561E-16  4.10376E-16  5.6E-06
   1.50000E+02  5.16264E-16  1.35731E-16  1.87522E-16  3.67286E-16  3.3E-06
   1.75000E+02  4.70923E-16  1.30276E-16  1.70104E-16  3.33479E-16  1.3E-06
   2.00000E+02  4.36629E-16  1.25885E-16  1.53897E-16  3.06205E-16  1.9E-05
   2.50000E+02  3.86251E-16  1.16945E-16  1.26535E-16  2.64700E-16  1.8E-06
   3.00000E+02  3.49887E-16  1.07562E-16  1.06086E-16  2.34388E-16  5.6E-06
   3.50000E+02  3.22105E-16  9.84385E-17  9.10831E-17  2.11111E-16  1.6E-06
   4.00000E+02  3.00134E-16  9.00107E-17  7.99080E-17  1.92565E-16  4.3E-07
   4.50000E+02  2.82173E-16  8.23860E-17  7.13351E-17  1.77418E-16  1.3E-06
   5.00000E+02  2.67523E-16  7.58059E-17  6.47518E-17  1.64502E-16  2.2E-06
   6.00000E+02  2.45471E-16  6.53808E-17  5.56117E-17  1.43225E-16  3.3E-06
   7.00000E+02  2.28558E-16  5.72656E-17  4.94112E-17  1.26694E-16  3.9E-07
   8.00000E+02  2.14914E-16  5.07226E-17  4.48136E-17  1.13577E-16  5.1E-07
   9.00000E+02  2.03780E-16  4.53320E-17  4.12141E-17  1.02946E-16  3.8E-06
   1.00000E+03  1.94385E-16  4.08235E-17  3.82682E-17  9.41625E-17  1.2E-06
   1.25000E+03  1.75839E-16  3.22751E-17  3.26448E-17  7.77045E-17  3.1E-06
   1.50000E+03  1.61766E-16  2.63076E-17  2.85063E-17  6.62389E-17  6.3E-04
   1.75000E+03  1.50505E-16  2.19535E-17  2.52605E-17  5.77872E-17  4.6E-04
   2.00000E+03  1.41187E-16  1.86652E-17  2.26212E-17  5.12939E-17  4.8E-04
   2.50000E+03  1.26487E-16  1.40811E-17  1.85648E-17  4.19636E-17  8.8E-04
   3.00000E+03  1.15270E-16  1.10816E-17  1.55903E-17  3.55746E-17  1.1E-03
   3.50000E+03  1.06368E-16  9.00932E-18  1.33438E-17  3.08975E-17  6.0E-04
   4.00000E+03  9.90819E-17  7.51190E-18  1.15998E-17  2.73154E-17  8.5E-04
   4.50000E+03  9.29667E-17  6.38598E-18  1.02087E-17  2.44855E-17  6.5E-04
   5.00000E+03  8.77341E-17  5.51325E-18  9.07584E-18  2.21937E-17  7.3E-04
   6.00000E+03  7.91893E-17  4.25913E-18  7.34992E-18  1.87093E-17  3.7E-03
   7.00000E+03  7.24515E-17  3.41146E-18  6.10599E-18  1.61855E-17  2.6E-03
   8.00000E+03  6.69637E-17  2.80731E-18  5.17396E-18  1.42731E-17  3.4E-03
   9.00000E+03  6.23850E-17  2.35919E-18  4.45427E-18  1.27739E-17  3.7E-03
   1.00000E+04  5.84927E-17  2.01622E-18  3.88489E-18  1.15668E-17  3.4E-03
   1.25000E+04  5.06234E-17  1.43904E-18  2.88425E-18  9.37630E-18  2.3E-07
   1.50000E+04  4.50549E-17  1.08832E-18  2.24489E-18  7.90191E-18  3.7E-07
   1.75000E+04  4.07397E-17  8.57243E-19  1.80778E-18  6.84165E-18  5.0E-07
   2.00000E+04  3.72823E-17  6.95885E-19  1.49371E-18  6.04252E-18  6.0E-07
   2.50000E+04  3.20597E-17  4.89399E-19  1.07913E-18  4.91805E-18  9.4E-07
   3.00000E+04  2.82805E-17  3.65969E-19  8.23070E-19  4.16470E-18  1.1E-06
   3.50000E+04  2.54060E-17  2.85699E-19  6.52474E-19  3.62479E-18  1.0E-07
   4.00000E+04  2.31398E-17  2.30266E-19  5.32425E-19  3.21888E-18  1.0E-07
   4.50000E+04  2.13039E-17  1.90219E-19  4.44369E-19  2.90260E-18  1.0E-07
   5.00000E+04  1.97846E-17  1.60251E-19  3.77641E-19  2.64922E-18  1.0E-07
   6.00000E+04  1.74127E-17  1.19010E-19  2.84454E-19  2.26887E-18  1.0E-07
   7.00000E+04  1.56435E-17  9.24938E-20  2.23551E-19  1.99685E-18  1.0E-07
   8.00000E+04  1.42719E-17  7.43446E-20  1.81328E-19  1.79275E-18  1.0E-07
   9.00000E+04  1.31769E-17  6.13259E-20  1.50722E-19  1.63402E-18  1.0E-07
   1.00000E+05  1.22823E-17  5.16383E-20  1.27748E-19  1.50709E-18  7.3E-06
   1.25000E+05  1.06286E-17  3.59263E-20  9.00511E-20  1.27894E-18  1.0E-07
   1.50000E+05  9.49490E-18  2.67625E-20  6.77570E-20  1.12729E-18  8.7E-06
   1.75000E+05  8.67019E-18  2.09014E-20  5.33443E-20  1.01938E-18  3.8E-05
   2.00000E+05  8.04422E-18  1.68985E-20  4.34154E-20  9.38783E-19  1.3E-04
   2.50000E+05  7.15925E-18  1.18872E-20  3.08623E-20  8.26552E-19  8.0E-04
   3.00000E+05  6.56618E-18  8.94834E-21  2.34185E-20  7.51868E-19  3.3E-03
   3.50000E+05  6.14309E-18  7.05486E-21  1.85806E-20  6.97737E-19  1.0E-02
   4.00000E+05  5.82745E-18  5.75116E-21  1.52259E-20  6.55490E-19  2.2E-02
   4.50000E+05  5.58391E-18  4.80810E-21  1.27846E-20  6.21179E-19  3.6E-02
   5.00000E+05  5.39100E-18  4.09947E-21  1.09407E-20  5.92489E-19  5.5E-02
   6.00000E+05  5.10645E-18  3.11499E-21  8.36312E-21  5.76595E-19  2.4E-05
   7.00000E+05  4.90838E-18  2.47145E-21  6.66621E-21  5.53161E-19  1.0E-07
   8.00000E+05  4.76388E-18  2.02274E-21  5.47633E-21  5.36139E-19  1.5E-07
   9.00000E+05  4.65466E-18  1.69471E-21  4.60238E-21  5.23399E-19  1.0E-07
   1.00000E+06  4.56978E-18  1.44605E-21  3.93729E-21  5.13512E-19  1.0E-07
   1.25000E+06  4.44164E-18  1.03895E-21  2.84316E-21  0.00000E+00  1.0E-05
   1.50000E+06  4.34616E-18  7.85561E-22  2.15762E-21  0.00000E+00  1.0E-05
   1.75000E+06  4.28275E-18  6.18576E-22  1.70385E-21  0.00000E+00  1.0E-05
   2.00000E+06  4.23797E-18  5.01793E-22  1.38539E-21  0.00000E+00  1.0E-05
   2.50000E+06  4.18057E-18  3.51936E-22  9.75187E-22  0.00000E+00  1.0E-05
   3.00000E+06  4.14713E-18  2.62062E-22  7.28161E-22  0.00000E+00  1.0E-05
   3.50000E+06  4.12535E-18  2.03494E-22  5.66686E-22  0.00000E+00  1.0E-05
   4.00000E+06  4.11197E-18  1.63017E-22  4.54813E-22  0.00000E+00  1.0E-05
   4.50000E+06  4.09896E-18  1.33770E-22  3.73816E-22  0.00000E+00  1.0E-05
   5.00000E+06  4.10168E-18  1.11943E-22  3.13272E-22  0.00000E+00  1.0E-05
   6.00000E+06  4.08453E-18  8.19057E-23  2.29767E-22  0.00000E+00  1.0E-05
   7.00000E+06  4.07812E-18  6.26958E-23  1.76242E-22  0.00000E+00  1.0E-05
   8.00000E+06  4.07450E-18  4.96231E-23  1.39748E-22  0.00000E+00  1.0E-05
   9.00000E+06  4.07141E-18  4.03031E-23  1.13688E-22  0.00000E+00  1.0E-05
   1.00000E+07  4.06861E-18  3.34137E-23  9.43976E-23  0.00000E+00  1.0E-05
   1.25000E+07  4.06410E-18  2.23727E-23  6.34221E-23  0.00000E+00  1.0E-05
   1.50000E+07  4.06081E-18  1.60549E-23  4.56527E-23  0.00000E+00  1.0E-05
   1.75000E+07  4.05849E-18  1.20928E-23  3.44852E-23  0.00000E+00  1.0E-05
   2.00000E+07  4.05687E-18  9.44094E-24  2.69961E-23  0.00000E+00  1.0E-05
   2.50000E+07  4.05511E-18  6.21512E-24  1.78628E-23  0.00000E+00  1.0E-05
   3.00000E+07  4.05534E-18  4.39875E-24  1.27018E-23  0.00000E+00  1.0E-05
   3.50000E+07  4.05411E-18  3.27446E-24  9.49599E-24  0.00000E+00  1.0E-05
   4.00000E+07  4.05365E-18  2.53058E-24  7.36728E-24  0.00000E+00  1.0E-05
   4.50000E+07  4.05557E-18  2.01311E-24  5.88111E-24  0.00000E+00  1.0E-05
   5.00000E+07  4.05293E-18  1.63879E-24  4.80224E-24  0.00000E+00  1.0E-05
   6.00000E+07  4.05409E-18  1.14577E-24  3.37436E-24  0.00000E+00  1.0E-05
   7.00000E+07  4.05702E-18  8.45354E-25  2.49893E-24  0.00000E+00  1.0E-05
   8.00000E+07  4.05726E-18  6.49011E-25  1.92385E-24  0.00000E+00  1.0E-05
   9.00000E+07  4.05730E-18  5.13783E-25  1.52618E-24  0.00000E+00  1.0E-05
   1.00000E+08  4.05754E-18  4.16743E-25  1.23990E-24  0.00000E+00  1.0E-05
   1.25000E+08  4.05642E-18  2.67261E-25  7.97276E-25  0.00000E+00  1.0E-05
   1.50000E+08  4.05516E-18  1.85787E-25  5.55103E-25  0.00000E+00  1.0E-05
   1.75000E+08  4.05418E-18  1.36575E-25  4.08473E-25  0.00000E+00  1.0E-05
   2.00000E+08  4.05368E-18  1.04599E-25  3.13052E-25  0.00000E+00  1.0E-05
   2.50000E+08  4.05320E-18  6.69679E-26  2.00591E-25  0.00000E+00  3.8E-05
   3.00000E+08  4.05296E-18  4.65135E-26  1.39388E-25  0.00000E+00  9.2E-05
   3.50000E+08  4.05258E-18  3.41742E-26  1.02439E-25  0.00000E+00  1.9E-04
   4.00000E+08  4.05226E-18  2.61643E-26  7.84437E-26  0.00000E+00  1.6E-04
   4.50000E+08  4.05381E-18  2.06722E-26  6.19859E-26  0.00000E+00  1.0E+00
   5.00000E+08  4.05112E-18  1.67433E-26  5.02095E-26  0.00000E+00  1.0E+00
   6.00000E+08  4.05200E-18  1.16269E-26  3.48707E-26  0.00000E+00  1.0E+00
   7.00000E+08  4.05384E-18  8.54269E-27  2.56228E-26  0.00000E+00  1.0E+00
   8.00000E+08  4.05213E-18  6.54090E-27  1.96196E-26  0.00000E+00  1.0E+00
   9.00000E+08  4.04975E-18  5.16874E-27  1.55043E-26  0.00000E+00  1.0E+00
   1.00000E+09  4.04663E-18  4.18745E-27  1.25611E-26  0.00000E+00  1.0E+00
