 #
 # Subroutine ELSEPA. Elastic scattering of electrons and positrons
 #                    by neutral atoms and positive ions
 #
 # Projectile: positron
 # Kinetic energy = 1.75000E+06 eV = 6.43113E+04 a.u.
 #
 # WARNING: High-energy factorization with free-atom DF screening.
 #          Absorption, polarization and exchange corrections are
 #          switched off.
 #          Phase shifts are calculated for the bare nucleus.
 #          Scattering amplitudes are not evaluated.
 #
 # Element: Fe,  Z =  26,  atomic weight = 5.58450E+01 g/mol
 #
 # Nuclear model: Fermi distribution
 #                Average radius = 4.08989E-13 cm
 #                Skin thickness = 5.46000E-14 cm
 #
 # Number of electrons = 26
 #
 # Total elastic cross section = 2.06232E-18 cm**2 = 7.36468E-02 a0**2
 # 1st transport cross section = 1.72873E-22 cm**2 = 6.17342E-06 a0**2
 # 2nd transport cross section = 4.92471E-22 cm**2 = 1.75864E-05 a0**2
 #
 #
 # Differential cross section:                       MU=(1-COS(THETA))/2
 #
 #  THETA        MU          DCS          DCS        Sherman      error
 #  (deg)                 (cm**2/sr)   (a0**2/sr)    function
 #----------------------------------------------------------------------
0.00000E+00 9.94779E-14
7.61557E-13 9.94777E-14
1.18994E-12 9.94776E-14
1.71346E-12 9.94775E-14
2.33225E-12 9.94773E-14
3.04617E-12 9.94772E-14
3.85530E-12 9.94770E-14
4.75964E-12 9.94768E-14
5.75917E-12 9.94766E-14
6.85391E-12 9.94764E-14
8.04379E-12 9.94762E-14
9.32893E-12 9.94759E-14
1.07092E-11 9.94756E-14
1.21847E-11 9.94753E-14
1.37554E-11 9.94750E-14
1.54213E-11 9.94747E-14
1.71823E-11 9.94743E-14
1.90386E-11 9.94740E-14
2.09900E-11 9.94736E-14
2.30367E-11 9.94732E-14
2.51785E-11 9.94728E-14
2.74156E-11 9.94723E-14
2.97478E-11 9.94719E-14
3.21752E-11 9.94714E-14
3.46979E-11 9.94709E-14
3.73157E-11 9.94704E-14
4.00286E-11 9.94699E-14
4.28368E-11 9.94693E-14
4.57402E-11 9.94687E-14
4.87388E-11 9.94682E-14
5.18325E-11 9.94676E-14
5.50215E-11 9.94669E-14
5.83057E-11 9.94663E-14
6.16850E-11 9.94657E-14
6.51595E-11 9.94650E-14
6.87293E-11 9.94643E-14
7.23943E-11 9.94636E-14
7.61544E-11 9.94629E-14
1.18991E-10 9.94546E-14
1.71347E-10 9.94446E-14
2.33223E-10 9.94327E-14
3.04617E-10 9.94191E-14
3.85531E-10 9.94036E-14
4.75965E-10 9.93864E-14
5.75917E-10 9.93674E-14
6.85389E-10 9.93466E-14
8.04380E-10 9.93240E-14
9.32891E-10 9.92996E-14
1.07092E-09 9.92734E-14
1.21847E-09 9.92454E-14
1.37554E-09 9.92157E-14
1.54213E-09 9.91842E-14
1.71823E-09 9.91509E-14
1.90386E-09 9.91158E-14
2.09900E-09 9.90790E-14
2.30367E-09 9.90404E-14
2.51785E-09 9.90001E-14
2.74156E-09 9.89580E-14
2.97478E-09 9.89141E-14
3.21752E-09 9.88685E-14
3.46978E-09 9.88211E-14
3.73156E-09 9.87720E-14
4.00286E-09 9.87212E-14
4.28368E-09 9.86686E-14
4.57402E-09 9.86143E-14
4.87388E-09 9.85582E-14
5.18326E-09 9.85005E-14
5.50215E-09 9.84410E-14
5.83057E-09 9.83798E-14
6.16850E-09 9.83169E-14
6.51596E-09 9.82523E-14
6.87293E-09 9.81860E-14
7.23942E-09 9.81181E-14
7.61544E-09 9.80484E-14
1.18991E-08 9.72607E-14
1.71347E-08 9.63120E-14
2.33223E-08 9.52102E-14
3.04617E-08 9.39642E-14
3.85531E-08 9.25838E-14
4.75965E-08 9.10794E-14
5.75917E-08 8.94556E-14
6.85389E-08 8.77408E-14
8.04380E-08 8.59327E-14
9.32891E-08 8.40464E-14
1.07092E-07 8.21064E-14
1.21847E-07 8.00944E-14
1.37554E-07 7.80549E-14
1.54213E-07 7.59782E-14
1.71823E-07 7.38798E-14
1.90386E-07 7.17835E-14
2.09900E-07 6.96649E-14
2.30367E-07 6.75688E-14
2.51785E-07 6.54803E-14
2.74156E-07 6.34124E-14
2.97478E-07 6.13836E-14
3.21752E-07 5.93695E-14
3.46978E-07 5.74070E-14
3.73156E-07 5.54799E-14
4.00286E-07 5.35977E-14
4.28368E-07 5.17722E-14
4.57402E-07 4.99825E-14
4.87388E-07 4.82554E-14
5.18325E-07 4.65759E-14
5.50215E-07 4.49502E-14
5.83057E-07 4.33847E-14
6.16850E-07 4.18629E-14
6.51596E-07 4.04029E-14
6.87293E-07 3.89917E-14
7.23942E-07 3.76333E-14
7.61543E-07 3.63307E-14
1.18991E-06 2.57999E-14
1.71347E-06 1.88359E-14
2.33223E-06 1.41550E-14
3.04617E-06 1.08983E-14
3.85531E-06 8.54804E-15
4.75964E-06 6.79272E-15
5.75916E-06 5.38600E-15
6.85388E-06 4.38726E-15
8.04378E-06 3.57903E-15
9.32888E-06 2.92695E-15
1.07092E-05 2.43540E-15
1.21846E-05 2.00312E-15
1.37553E-05 1.67245E-15
1.54212E-05 1.39957E-15
1.71822E-05 1.17501E-15
1.90385E-05 9.96474E-16
2.09899E-05 8.43668E-16
2.30365E-05 7.20733E-16
2.51783E-05 6.18145E-16
2.74153E-05 5.32478E-16
2.97475E-05 4.61725E-16
3.21749E-05 4.01433E-16
3.46974E-05 3.51113E-16
3.73152E-05 3.08408E-16
4.00281E-05 2.72061E-16
4.28362E-05 2.41138E-16
4.57395E-05 2.14453E-16
4.87380E-05 1.91537E-16
5.18317E-05 1.71666E-16
5.50205E-05 1.54389E-16
5.83045E-05 1.39338E-16
6.16838E-05 1.26096E-16
6.51582E-05 1.14484E-16
6.87277E-05 1.04208E-16
7.23925E-05 9.51018E-17
7.61524E-05 8.70225E-17
9.21439E-05 6.22621E-17
1.09658E-04 4.58463E-17
1.28695E-04 3.45324E-17
1.49255E-04 2.64850E-17
1.71338E-04 2.06394E-17
1.94942E-04 1.62943E-17
2.20070E-04 1.30178E-17
2.46720E-04 1.05108E-17
2.74892E-04 8.56750E-18
3.04586E-04 7.04742E-18
3.35803E-04 5.84479E-18
3.68542E-04 4.88525E-18
4.02802E-04 4.11285E-18
4.38585E-04 3.48569E-18
4.75889E-04 2.97291E-18
5.14715E-04 2.54990E-18
5.55063E-04 2.20032E-18
5.96931E-04 1.90830E-18
6.40321E-04 1.66304E-18
6.85233E-04 1.45626E-18
7.31665E-04 1.28031E-18
7.79618E-04 1.13040E-18
8.29092E-04 1.00179E-18
8.80086E-04 8.91008E-19
9.32601E-04 7.95244E-19
9.86636E-04 7.11930E-19
1.04219E-03 6.39352E-19
1.09927E-03 5.75786E-19
1.15786E-03 5.19952E-19
1.21797E-03 4.70777E-19
1.27961E-03 4.27241E-19
1.34276E-03 3.88673E-19
1.40743E-03 3.54348E-19
1.47362E-03 3.23738E-19
1.54133E-03 2.96386E-19
1.61056E-03 2.71837E-19
1.68131E-03 2.49802E-19
1.75357E-03 2.29943E-19
1.82735E-03 2.12021E-19
1.90265E-03 1.95821E-19
1.97947E-03 1.81122E-19
2.05780E-03 1.67790E-19
2.13765E-03 1.55652E-19
2.21902E-03 1.44592E-19
2.30190E-03 1.34502E-19
2.38630E-03 1.25265E-19
2.47222E-03 1.16815E-19
2.55965E-03 1.09058E-19
2.64859E-03 1.01935E-19
2.73905E-03 9.53849E-20
2.83103E-03 8.93457E-20
2.92452E-03 8.37803E-20
3.01952E-03 7.86373E-20
3.11604E-03 7.38823E-20
3.21407E-03 6.94821E-20
3.31362E-03 6.54000E-20
3.41468E-03 6.16151E-20
3.51725E-03 5.80972E-20
3.62133E-03 5.48263E-20
3.72692E-03 5.17826E-20
3.83403E-03 4.89444E-20
3.94265E-03 4.62989E-20
4.05278E-03 4.38278E-20
4.16442E-03 4.15190E-20
4.27757E-03 3.93602E-20
4.39223E-03 3.73381E-20
4.50840E-03 3.54447E-20
4.62608E-03 3.36685E-20
4.74527E-03 3.20018E-20
4.86597E-03 3.04370E-20
4.98817E-03 2.89654E-20
5.11188E-03 2.75820E-20
5.23711E-03 2.62793E-20
5.36383E-03 2.50524E-20
5.49207E-03 2.38962E-20
5.62181E-03 2.28051E-20
5.75306E-03 2.17757E-20
5.88581E-03 2.08031E-20
6.02007E-03 1.98840E-20
6.15583E-03 1.90151E-20
6.29310E-03 1.81925E-20
6.43187E-03 1.74141E-20
6.57214E-03 1.66764E-20
6.71392E-03 1.59772E-20
6.85720E-03 1.53142E-20
7.00198E-03 1.46848E-20
7.14827E-03 1.40875E-20
7.29605E-03 1.35200E-20
7.44534E-03 1.29806E-20
7.59612E-03 1.24678E-20
7.97965E-03 1.12917E-20
8.37255E-03 1.02503E-20
8.77480E-03 9.32573E-21
9.18641E-03 8.50256E-21
9.60736E-03 7.76780E-21
1.00376E-02 7.11033E-21
1.04773E-02 6.52062E-21
1.09262E-02 5.99049E-21
1.13844E-02 5.51289E-21
1.18520E-02 5.08170E-21
1.23288E-02 4.69164E-21
1.28150E-02 4.33811E-21
1.33104E-02 4.01708E-21
1.38150E-02 3.72505E-21
1.43290E-02 3.45894E-21
1.48521E-02 3.21605E-21
1.53845E-02 2.99399E-21
1.59262E-02 2.79067E-21
1.64770E-02 2.60422E-21
1.70371E-02 2.43300E-21
1.76063E-02 2.27554E-21
1.81848E-02 2.13055E-21
1.87724E-02 1.99685E-21
1.93692E-02 1.87342E-21
1.99751E-02 1.75933E-21
2.05901E-02 1.65374E-21
2.12143E-02 1.55590E-21
2.18476E-02 1.46515E-21
2.24900E-02 1.38088E-21
2.31415E-02 1.30255E-21
2.38021E-02 1.22966E-21
2.44717E-02 1.16176E-21
2.51504E-02 1.09846E-21
2.58382E-02 1.03938E-21
2.65349E-02 9.84196E-22
2.72407E-02 9.32602E-22
2.79555E-02 8.84322E-22
2.86793E-02 8.39105E-22
2.94120E-02 7.96722E-22
3.01537E-02 7.56963E-22
3.09043E-02 7.19637E-22
3.16639E-02 6.84567E-22
3.24324E-02 6.51592E-22
3.32098E-02 6.20565E-22
3.39961E-02 5.91349E-22
3.47912E-02 5.63820E-22
3.55952E-02 5.37862E-22
3.64081E-02 5.13371E-22
3.72297E-02 4.90246E-22
3.80602E-02 4.68400E-22
3.88995E-02 4.47747E-22
3.97476E-02 4.28211E-22
4.06044E-02 4.09721E-22
4.14700E-02 3.92210E-22
4.23443E-02 3.75617E-22
4.32273E-02 3.59886E-22
4.41190E-02 3.44962E-22
4.50194E-02 3.30798E-22
4.59284E-02 3.17347E-22
4.68461E-02 3.04567E-22
4.87074E-02 2.80864E-22
5.06030E-02 2.59403E-22
5.25328E-02 2.39937E-22
5.44967E-02 2.22247E-22
5.64946E-02 2.06143E-22
5.85262E-02 1.91458E-22
6.05914E-02 1.78046E-22
6.26901E-02 1.65777E-22
6.48222E-02 1.54536E-22
6.69873E-02 1.44223E-22
6.91854E-02 1.34748E-22
7.14163E-02 1.26030E-22
7.36799E-02 1.17998E-22
7.59760E-02 1.10590E-22
7.83043E-02 1.03747E-22
8.06647E-02 9.74195E-23
8.30571E-02 9.15618E-23
8.54812E-02 8.61327E-23
8.79369E-02 8.10953E-23
9.04240E-02 7.64164E-23
9.29422E-02 7.20660E-23
9.54915E-02 6.80169E-23
9.80716E-02 6.42446E-23
1.00682E-01 6.07269E-23
1.03323E-01 5.74434E-23
1.05995E-01 5.43759E-23
1.08696E-01 5.15076E-23
1.11427E-01 4.88234E-23
1.14188E-01 4.63092E-23
1.16978E-01 4.39524E-23
1.19797E-01 4.17414E-23
1.22645E-01 3.96657E-23
1.25522E-01 3.77153E-23
1.28428E-01 3.58815E-23
1.31361E-01 3.41560E-23
1.34323E-01 3.25314E-23
1.37313E-01 3.10005E-23
1.40330E-01 2.95572E-23
1.43375E-01 2.81954E-23
1.46447E-01 2.69098E-23
1.49545E-01 2.56953E-23
1.52671E-01 2.45473E-23
1.55823E-01 2.34615E-23
1.59001E-01 2.24340E-23
1.62205E-01 2.14610E-23
1.65435E-01 2.05392E-23
1.68690E-01 1.96653E-23
1.71970E-01 1.88365E-23
1.75276E-01 1.80500E-23
1.78606E-01 1.73033E-23
1.81961E-01 1.65940E-23
1.85340E-01 1.59198E-23
1.88743E-01 1.52788E-23
1.92169E-01 1.46690E-23
1.95619E-01 1.40886E-23
1.99092E-01 1.35359E-23
2.02589E-01 1.30095E-23
2.06107E-01 1.25078E-23
2.09649E-01 1.20294E-23
2.13212E-01 1.15732E-23
2.16797E-01 1.11378E-23
2.20404E-01 1.07221E-23
2.24032E-01 1.03252E-23
2.27680E-01 9.94593E-24
2.31350E-01 9.58347E-24
2.35040E-01 9.23691E-24
2.38751E-01 8.90544E-24
2.42481E-01 8.58827E-24
2.46231E-01 8.28469E-24
2.50000E-01 7.99401E-24
2.53788E-01 7.71558E-24
2.57595E-01 7.44879E-24
2.61421E-01 7.19308E-24
2.65264E-01 6.94789E-24
2.69126E-01 6.71273E-24
2.73005E-01 6.48710E-24
2.76901E-01 6.27056E-24
2.80814E-01 6.06268E-24
2.84744E-01 5.86304E-24
2.88691E-01 5.67126E-24
2.92653E-01 5.48698E-24
2.96632E-01 5.30985E-24
3.00625E-01 5.13955E-24
3.04634E-01 4.97576E-24
3.08658E-01 4.81820E-24
3.12697E-01 4.66659E-24
3.16749E-01 4.52066E-24
3.20816E-01 4.38016E-24
3.24896E-01 4.24485E-24
3.28990E-01 4.11451E-24
3.33097E-01 3.98893E-24
3.37216E-01 3.86789E-24
3.41348E-01 3.75122E-24
3.45492E-01 3.63871E-24
3.49647E-01 3.53020E-24
3.53814E-01 3.42553E-24
3.57992E-01 3.32452E-24
3.62181E-01 3.22704E-24
3.66381E-01 3.13293E-24
3.70590E-01 3.04206E-24
3.74810E-01 2.95430E-24
3.79039E-01 2.86953E-24
3.83277E-01 2.78761E-24
3.87524E-01 2.70845E-24
3.91780E-01 2.63193E-24
3.96044E-01 2.55796E-24
4.00316E-01 2.48642E-24
4.04596E-01 2.41723E-24
4.08882E-01 2.35029E-24
4.13176E-01 2.28552E-24
4.17476E-01 2.22285E-24
4.21783E-01 2.16217E-24
4.26095E-01 2.10344E-24
4.30413E-01 2.04656E-24
4.34737E-01 1.99148E-24
4.39065E-01 1.93812E-24
4.43398E-01 1.88642E-24
4.47736E-01 1.83633E-24
4.52077E-01 1.78778E-24
4.56422E-01 1.74072E-24
4.60770E-01 1.69509E-24
4.65122E-01 1.65085E-24
4.69476E-01 1.60794E-24
4.73832E-01 1.56632E-24
4.78190E-01 1.52594E-24
4.82550E-01 1.48677E-24
4.86912E-01 1.44875E-24
4.91274E-01 1.41184E-24
4.95637E-01 1.37602E-24
5.00000E-01 1.34124E-24
5.04363E-01 1.30747E-24
5.08726E-01 1.27467E-24
5.13088E-01 1.24281E-24
5.17450E-01 1.21186E-24
5.21810E-01 1.18179E-24
5.26168E-01 1.15256E-24
5.30524E-01 1.12416E-24
5.34878E-01 1.09656E-24
5.39230E-01 1.06972E-24
5.43578E-01 1.04363E-24
5.47923E-01 1.01826E-24
5.52264E-01 9.93587E-25
5.56602E-01 9.69588E-25
5.60935E-01 9.46243E-25
5.65263E-01 9.23530E-25
5.69587E-01 9.01430E-25
5.73905E-01 8.79924E-25
5.78217E-01 8.58993E-25
5.82524E-01 8.38620E-25
5.86824E-01 8.18787E-25
5.91118E-01 7.99477E-25
5.95404E-01 7.80676E-25
5.99684E-01 7.62367E-25
6.03956E-01 7.44535E-25
6.08220E-01 7.27167E-25
6.12476E-01 7.10247E-25
6.16723E-01 6.93763E-25
6.20961E-01 6.77702E-25
6.25190E-01 6.62051E-25
6.29410E-01 6.46799E-25
6.33619E-01 6.31933E-25
6.37819E-01 6.17443E-25
6.42008E-01 6.03318E-25
6.46186E-01 5.89546E-25
6.50353E-01 5.76118E-25
6.54508E-01 5.63024E-25
6.58652E-01 5.50254E-25
6.62784E-01 5.37800E-25
6.66903E-01 5.25653E-25
6.71010E-01 5.13803E-25
6.75104E-01 5.02242E-25
6.79184E-01 4.90963E-25
6.83251E-01 4.79958E-25
6.87303E-01 4.69218E-25
6.91342E-01 4.58738E-25
6.95366E-01 4.48509E-25
6.99375E-01 4.38525E-25
7.03368E-01 4.28779E-25
7.07347E-01 4.19265E-25
7.11309E-01 4.09977E-25
7.15256E-01 4.00908E-25
7.19186E-01 3.92053E-25
7.23099E-01 3.83406E-25
7.26995E-01 3.74962E-25
7.30874E-01 3.66715E-25
7.34736E-01 3.58660E-25
7.38579E-01 3.50792E-25
7.42405E-01 3.43106E-25
7.46212E-01 3.35598E-25
7.50000E-01 3.28263E-25
7.53769E-01 3.21096E-25
7.57519E-01 3.14094E-25
7.61249E-01 3.07252E-25
7.64960E-01 3.00566E-25
7.68650E-01 2.94032E-25
7.72320E-01 2.87647E-25
7.75968E-01 2.81406E-25
7.79596E-01 2.75307E-25
7.83203E-01 2.69345E-25
7.86788E-01 2.63517E-25
7.90351E-01 2.57820E-25
7.93893E-01 2.52251E-25
7.97411E-01 2.46807E-25
8.00908E-01 2.41485E-25
8.04381E-01 2.36281E-25
8.07831E-01 2.31193E-25
8.11257E-01 2.26219E-25
8.14660E-01 2.21355E-25
8.18039E-01 2.16599E-25
8.21394E-01 2.11948E-25
8.24724E-01 2.07401E-25
8.28030E-01 2.02954E-25
8.31310E-01 1.98605E-25
8.34565E-01 1.94352E-25
8.37795E-01 1.90193E-25
8.40999E-01 1.86126E-25
8.44177E-01 1.82149E-25
8.47329E-01 1.78259E-25
8.50455E-01 1.74454E-25
8.53553E-01 1.70734E-25
8.56625E-01 1.67096E-25
8.59670E-01 1.63537E-25
8.62687E-01 1.60057E-25
8.65677E-01 1.56654E-25
8.68639E-01 1.53325E-25
8.71572E-01 1.50071E-25
8.74478E-01 1.46888E-25
8.77355E-01 1.43775E-25
8.80203E-01 1.40731E-25
8.83022E-01 1.37755E-25
8.85812E-01 1.34844E-25
8.88573E-01 1.31999E-25
8.91304E-01 1.29216E-25
8.94005E-01 1.26496E-25
8.96677E-01 1.23836E-25
8.99318E-01 1.21236E-25
9.01928E-01 1.18694E-25
9.04508E-01 1.16210E-25
9.07058E-01 1.13782E-25
9.09576E-01 1.11408E-25
9.12063E-01 1.09089E-25
9.14519E-01 1.06822E-25
9.16943E-01 1.04608E-25
9.19335E-01 1.02444E-25
9.21696E-01 1.00331E-25
9.24024E-01 9.82659E-26
9.26320E-01 9.62494E-26
9.28584E-01 9.42802E-26
9.30815E-01 9.23574E-26
9.33013E-01 9.04801E-26
9.35178E-01 8.86477E-26
9.37310E-01 8.68593E-26
9.39409E-01 8.51141E-26
9.41474E-01 8.34114E-26
9.43505E-01 8.17504E-26
9.45503E-01 8.01306E-26
9.47467E-01 7.85512E-26
9.49397E-01 7.70115E-26
9.51293E-01 7.55109E-26
9.53154E-01 7.40488E-26
9.54981E-01 7.26246E-26
9.56773E-01 7.12377E-26
9.58530E-01 6.98875E-26
9.60252E-01 6.85735E-26
9.61940E-01 6.72951E-26
9.63592E-01 6.60518E-26
9.65209E-01 6.48431E-26
9.66790E-01 6.36686E-26
9.68336E-01 6.25277E-26
9.69846E-01 6.14200E-26
9.71321E-01 6.03450E-26
9.72759E-01 5.93024E-26
9.74162E-01 5.82917E-26
9.75528E-01 5.73124E-26
9.76858E-01 5.63643E-26
9.78152E-01 5.54470E-26
9.79410E-01 5.45600E-26
9.80631E-01 5.37030E-26
9.81815E-01 5.28758E-26
9.82963E-01 5.20779E-26
9.84074E-01 5.13091E-26
9.85148E-01 5.05690E-26
9.86185E-01 4.98574E-26
9.87185E-01 4.91740E-26
9.88148E-01 4.85186E-26
9.89074E-01 4.78908E-26
9.89962E-01 4.72905E-26
9.90814E-01 4.67173E-26
9.91627E-01 4.61712E-26
9.92404E-01 4.56518E-26
9.93143E-01 4.51590E-26
9.93844E-01 4.46926E-26
9.94508E-01 4.42524E-26
9.95134E-01 4.38382E-26
9.95722E-01 4.34499E-26
9.96273E-01 4.30874E-26
9.96786E-01 4.27504E-26
9.97261E-01 4.24390E-26
9.97698E-01 4.21528E-26
9.98097E-01 4.18919E-26
9.98459E-01 4.16562E-26
9.98782E-01 4.14455E-26
9.99067E-01 4.12598E-26
9.99315E-01 4.10990E-26
9.99524E-01 4.09630E-26
9.99695E-01 4.08518E-26
9.99829E-01 4.07654E-26
9.99924E-01 4.07037E-26
9.99981E-01 4.06667E-26
1.00000E+00 4.06543E-26
