 #
 # Subroutine ELSEPA. Elastic scattering of electrons and positrons
 #                    by neutral atoms and positive ions
 #
 # Projectile: positron
 # Kinetic energy = 5.00000E+08 eV = 1.83747E+07 a.u.
 #
 # WARNING: High-energy factorization with free-atom DF screening.
 #          Absorption, polarization and exchange corrections are
 #          switched off.
 #          Phase shifts are calculated for the bare nucleus.
 #          Scattering amplitudes are not evaluated.
 #
 # Element: Fe,  Z =  26,  atomic weight = 5.58450E+01 g/mol
 #
 # Nuclear model: Fermi distribution
 #                Average radius = 4.08989E-13 cm
 #                Skin thickness = 5.46000E-14 cm
 #
 # Number of electrons = 26
 #
 # Total elastic cross section = 1.95637E-18 cm**2 = 6.98631E-02 a0**2
 # 1st transport cross section = 5.58960E-27 cm**2 = 1.99608E-10 a0**2
 # 2nd transport cross section = 1.67603E-26 cm**2 = 5.98523E-10 a0**2
 #
 #
 # Differential cross section:                       MU=(1-COS(THETA))/2
 #
 #  THETA        MU          DCS          DCS        Sherman      error
 #  (deg)                 (cm**2/sr)   (a0**2/sr)    function
 #----------------------------------------------------------------------
0.00000E+00 4.87476E-09
7.61557E-13 4.53099E-09
1.18994E-12 4.35420E-09
1.71346E-12 4.15327E-09
2.33225E-12 3.93479E-09
3.04617E-12 3.70546E-09
3.85530E-12 3.47136E-09
4.75964E-12 3.23780E-09
5.75917E-12 3.00912E-09
6.85391E-12 2.78850E-09
8.04379E-12 2.57853E-09
9.32893E-12 2.38098E-09
1.07092E-11 2.19675E-09
1.21847E-11 2.02617E-09
1.37554E-11 1.86912E-09
1.54213E-11 1.72515E-09
1.71823E-11 1.59361E-09
1.90386E-11 1.47369E-09
2.09900E-11 1.36452E-09
2.30367E-11 1.26522E-09
2.51785E-11 1.17487E-09
2.74156E-11 1.09260E-09
2.97478E-11 1.01768E-09
3.21752E-11 9.49374E-10
3.46979E-11 8.87018E-10
3.73157E-11 8.29999E-10
4.00286E-11 7.77767E-10
4.28368E-11 7.29831E-10
4.57402E-11 6.85754E-10
4.87388E-11 6.45144E-10
5.18325E-11 6.07658E-10
5.50215E-11 5.72985E-10
5.83057E-11 5.40805E-10
6.16850E-11 5.10921E-10
6.51595E-11 4.83131E-10
6.87293E-11 4.57242E-10
7.23943E-11 4.33086E-10
7.61544E-11 4.10513E-10
1.18991E-10 2.44619E-10
1.71347E-10 1.54239E-10
2.33223E-10 1.00064E-10
3.04617E-10 6.65371E-11
3.85531E-10 4.53388E-11
4.75965E-10 3.16771E-11
5.75917E-10 2.26969E-11
6.85389E-10 1.66623E-11
8.04380E-10 1.25219E-11
9.32891E-10 9.61470E-12
1.07092E-09 7.52513E-12
1.21847E-09 5.98986E-12
1.37554E-09 4.83859E-12
1.54213E-09 3.95899E-12
1.71823E-09 3.27551E-12
1.90386E-09 2.73634E-12
2.09900E-09 2.30528E-12
2.30367E-09 1.95659E-12
2.51785E-09 1.67129E-12
2.74156E-09 1.43577E-12
2.97478E-09 1.24006E-12
3.21752E-09 1.07625E-12
3.46978E-09 9.38263E-13
3.73156E-09 8.21346E-13
4.00286E-09 7.21759E-13
4.28368E-09 6.36526E-13
4.57402E-09 5.63263E-13
4.87388E-09 5.00037E-13
5.18326E-09 4.45272E-13
5.50215E-09 3.97672E-13
5.83057E-09 3.56141E-13
6.16850E-09 3.19814E-13
6.51596E-09 2.87943E-13
6.87293E-09 2.59897E-13
7.23942E-09 2.35146E-13
7.61544E-09 2.13242E-13
1.18991E-08 8.94602E-14
1.71347E-08 4.38575E-14
2.33223E-08 2.40028E-14
3.04617E-08 1.42371E-14
3.85531E-08 8.97727E-15
4.75965E-08 5.93893E-15
5.75917E-08 4.08379E-15
6.85389E-08 2.89908E-15
8.04380E-08 2.11407E-15
9.32891E-08 1.57735E-15
1.07092E-07 1.20039E-15
1.21847E-07 9.29439E-16
1.37554E-07 7.30700E-16
1.54213E-07 5.82280E-16
1.71823E-07 4.69648E-16
1.90386E-07 3.82947E-16
2.09900E-07 3.15340E-16
2.30367E-07 2.61998E-16
2.51785E-07 2.19461E-16
2.74156E-07 1.85210E-16
2.97478E-07 1.57382E-16
3.21752E-07 1.34585E-16
3.46978E-07 1.15768E-16
3.73156E-07 1.00125E-16
4.00286E-07 8.70356E-17
4.28368E-07 7.60157E-17
4.57402E-07 6.66852E-17
4.87388E-07 5.87426E-17
5.18325E-07 5.19475E-17
5.50215E-07 4.61067E-17
5.83057E-07 4.10640E-17
6.16850E-07 3.66919E-17
6.51596E-07 3.28863E-17
6.87293E-07 2.95614E-17
7.23942E-07 2.66461E-17
7.61543E-07 2.40814E-17
1.18991E-06 9.86759E-18
1.71347E-06 4.75926E-18
2.33223E-06 2.56896E-18
3.04617E-06 1.50582E-18
3.85531E-06 9.40016E-19
4.75964E-06 6.16695E-19
5.75916E-06 4.21173E-19
6.85388E-06 2.97347E-19
8.04378E-06 2.15860E-19
9.32888E-06 1.60468E-19
1.07092E-05 1.21756E-19
1.21846E-05 9.40434E-20
1.37553E-05 7.37846E-20
1.54212E-05 5.86981E-20
1.71822E-05 4.72772E-20
1.90385E-05 3.85020E-20
2.09899E-05 3.16751E-20
2.30365E-05 2.62954E-20
2.51783E-05 2.20095E-20
2.74153E-05 1.85615E-20
2.97475E-05 1.57625E-20
3.21749E-05 1.34717E-20
3.46974E-05 1.15825E-20
3.73152E-05 1.00134E-20
4.00281E-05 8.70127E-21
4.28362E-05 7.59722E-21
4.57395E-05 6.66278E-21
4.87380E-05 5.86757E-21
5.18317E-05 5.18742E-21
5.50205E-05 4.60294E-21
5.83045E-05 4.09847E-21
6.16838E-05 3.66125E-21
6.51582E-05 3.28081E-21
6.87277E-05 2.94855E-21
7.23925E-05 2.65730E-21
7.61524E-05 2.38959E-21
9.21439E-05 1.62926E-21
1.09658E-04 1.14814E-21
1.28695E-04 8.31845E-22
1.49255E-04 6.17038E-22
1.71338E-04 4.67092E-22
1.94942E-04 3.59871E-22
2.20070E-04 2.81590E-22
2.46720E-04 2.23373E-22
2.74892E-04 1.79364E-22
3.04586E-04 1.45608E-22
3.35803E-04 1.19371E-22
3.68542E-04 9.87375E-23
4.02802E-04 8.23338E-23
4.38585E-04 6.91642E-23
4.75889E-04 5.84960E-23
5.14715E-04 4.97819E-23
5.55063E-04 4.26099E-23
5.96931E-04 3.66652E-23
6.40321E-04 3.17055E-23
6.85233E-04 2.75425E-23
7.31665E-04 2.40283E-23
7.79618E-04 2.10461E-23
8.29092E-04 1.85027E-23
8.80086E-04 1.63237E-23
9.32601E-04 1.44485E-23
9.86636E-04 1.28282E-23
1.04219E-03 1.14227E-23
1.09927E-03 1.01991E-23
1.15786E-03 9.13014E-24
1.21797E-03 8.19323E-24
1.27961E-03 7.36950E-24
1.34276E-03 6.64316E-24
1.40743E-03 6.00088E-24
1.47362E-03 5.43143E-24
1.54133E-03 4.92527E-24
1.61056E-03 4.47428E-24
1.68131E-03 4.07152E-24
1.75357E-03 3.71103E-24
1.82735E-03 3.38771E-24
1.90265E-03 3.09713E-24
1.97947E-03 2.83548E-24
2.05780E-03 2.59944E-24
2.13765E-03 2.38613E-24
2.21902E-03 2.19304E-24
2.30190E-03 2.01795E-24
2.38630E-03 1.85895E-24
2.47222E-03 1.71434E-24
2.55965E-03 1.58263E-24
2.64859E-03 1.46250E-24
2.73905E-03 1.35278E-24
2.83103E-03 1.25245E-24
2.92452E-03 1.16059E-24
3.01952E-03 1.07637E-24
3.11604E-03 9.99088E-25
3.21407E-03 9.28079E-25
3.31362E-03 8.62768E-25
3.41468E-03 8.02636E-25
3.51725E-03 7.47216E-25
3.62133E-03 6.96090E-25
3.72692E-03 6.48882E-25
3.83403E-03 6.05252E-25
3.94265E-03 5.64894E-25
4.05278E-03 5.27531E-25
4.16442E-03 4.92913E-25
4.27757E-03 4.60813E-25
4.39223E-03 4.31025E-25
4.50840E-03 4.03362E-25
4.62608E-03 3.77655E-25
4.74527E-03 3.53749E-25
4.86597E-03 3.31503E-25
4.98817E-03 3.10788E-25
5.11188E-03 2.91487E-25
5.23711E-03 2.73493E-25
5.36383E-03 2.56707E-25
5.49207E-03 2.41039E-25
5.62181E-03 2.26407E-25
5.75306E-03 2.12735E-25
5.88581E-03 1.99953E-25
6.02007E-03 1.87999E-25
6.15583E-03 1.76812E-25
6.29310E-03 1.66338E-25
6.43187E-03 1.56529E-25
6.57214E-03 1.47337E-25
6.71392E-03 1.38719E-25
6.85720E-03 1.30638E-25
7.00198E-03 1.23057E-25
7.14827E-03 1.15941E-25
7.29605E-03 1.09260E-25
7.44534E-03 1.02985E-25
7.59612E-03 9.70892E-26
7.97965E-03 8.38512E-26
8.37255E-03 7.24926E-26
8.77480E-03 6.27289E-26
9.18641E-03 5.43225E-26
9.60736E-03 4.70737E-26
1.00376E-02 4.08147E-26
1.04773E-02 3.54038E-26
1.09262E-02 3.07208E-26
1.13844E-02 2.66638E-26
1.18520E-02 2.31462E-26
1.23288E-02 2.00939E-26
1.28150E-02 1.74436E-26
1.33104E-02 1.51412E-26
1.38150E-02 1.31401E-26
1.43290E-02 1.14002E-26
1.48521E-02 9.88711E-27
1.53845E-02 8.57100E-27
1.59262E-02 7.42614E-27
1.64770E-02 6.43026E-27
1.70371E-02 5.56408E-27
1.76063E-02 4.81083E-27
1.81848E-02 4.15598E-27
1.87724E-02 3.58688E-27
1.93692E-02 3.09252E-27
1.99751E-02 2.66332E-27
2.05901E-02 2.29092E-27
2.12143E-02 1.96803E-27
2.18476E-02 1.68831E-27
2.24900E-02 1.44619E-27
2.31415E-02 1.23684E-27
2.38021E-02 1.05602E-27
2.44717E-02 9.00023E-28
2.51504E-02 7.65629E-28
2.58382E-02 6.50009E-28
2.65349E-02 5.50696E-28
2.72407E-02 4.65534E-28
2.79555E-02 3.92640E-28
2.86793E-02 3.30370E-28
2.94120E-02 2.77289E-28
3.01537E-02 2.32146E-28
3.09043E-02 1.93848E-28
3.16639E-02 1.61446E-28
3.24324E-02 1.34112E-28
3.32098E-02 1.11126E-28
3.39961E-02 9.18630E-29
3.47912E-02 7.57796E-29
3.55952E-02 6.24059E-29
3.64081E-02 5.13347E-29
3.72297E-02 4.22141E-29
3.80602E-02 3.47406E-29
3.88995E-02 2.86528E-29
3.97476E-02 2.37261E-29
4.06044E-02 1.97679E-29
4.14700E-02 1.66135E-29
4.23443E-02 1.41224E-29
4.32273E-02 1.21751E-29
4.41190E-02 1.06704E-29
4.50194E-02 9.52277E-30
4.59284E-02 8.66038E-30
4.68461E-02 8.02305E-30
4.87074E-02 7.23196E-30
5.06030E-02 6.84533E-30
5.25328E-02 6.66093E-30
5.44967E-02 6.54985E-30
5.64946E-02 6.43501E-30
5.85262E-02 6.27509E-30
6.05914E-02 6.05278E-30
6.26901E-02 5.76616E-30
6.48222E-02 5.42253E-30
6.69873E-02 5.03408E-30
6.91854E-02 4.61501E-30
7.14163E-02 4.17952E-30
7.36799E-02 3.74068E-30
7.59760E-02 3.30972E-30
7.83043E-02 2.89579E-30
8.06647E-02 2.50585E-30
8.30571E-02 2.14484E-30
8.54812E-02 1.81587E-30
8.79369E-02 1.52044E-30
9.04240E-02 1.25880E-30
9.29422E-02 1.03013E-30
9.54915E-02 8.32848E-31
9.80716E-02 6.64824E-31
1.00682E-01 5.23562E-31
1.03323E-01 4.06371E-31
1.05995E-01 3.10491E-31
1.08696E-01 2.33201E-31
1.11427E-01 1.71892E-31
1.14188E-01 1.24123E-31
1.16978E-01 8.76570E-32
1.19797E-01 6.04812E-32
1.22645E-01 4.08151E-32
1.25522E-01 2.71093E-32
1.28428E-01 1.80362E-32
1.31361E-01 1.24767E-32
1.34323E-01 9.50258E-33
1.37313E-01 8.35732E-33
1.40330E-01 8.43630E-33
1.43375E-01 9.26670E-33
1.46447E-01 1.04883E-32
1.49545E-01 1.18354E-32
1.52671E-01 1.31205E-32
1.55823E-01 1.42189E-32
1.59001E-01 1.50561E-32
1.62205E-01 1.55963E-32
1.65435E-01 1.58322E-32
1.68690E-01 1.57776E-32
1.71970E-01 1.54602E-32
1.75276E-01 1.49162E-32
1.78606E-01 1.41865E-32
1.81961E-01 1.33131E-32
1.85340E-01 1.23368E-32
1.88743E-01 1.12954E-32
1.92169E-01 1.02230E-32
1.95619E-01 9.14885E-33
1.99092E-01 8.09762E-33
2.02589E-01 7.08898E-33
2.06107E-01 6.13805E-33
2.09649E-01 5.25568E-33
2.13212E-01 4.44899E-33
2.16797E-01 3.72174E-33
2.20404E-01 3.07498E-33
2.24032E-01 2.50743E-33
2.27680E-01 2.01607E-33
2.31350E-01 1.59648E-33
2.35040E-01 1.24330E-33
2.38751E-01 9.50578E-34
2.42481E-01 7.11997E-34
2.46231E-01 5.21180E-34
2.50000E-01 3.71857E-34
2.53788E-01 2.58017E-34
2.57595E-01 1.74025E-34
2.61421E-01 1.14695E-34
2.65264E-01 7.53394E-35
2.69126E-01 5.17907E-35
2.73005E-01 4.04058E-35
2.76901E-01 3.80527E-35
2.80814E-01 4.20865E-35
2.84744E-01 5.03150E-35
2.88691E-01 6.09607E-35
2.92653E-01 7.26167E-35
2.96632E-01 8.42046E-35
3.00625E-01 9.49293E-35
3.04634E-01 1.04237E-34
3.08658E-01 1.11777E-34
3.12697E-01 1.17361E-34
3.16749E-01 1.20934E-34
3.20816E-01 1.22541E-34
3.24896E-01 1.22305E-34
3.28990E-01 1.20399E-34
3.33097E-01 1.17032E-34
3.37216E-01 1.12432E-34
3.41348E-01 1.06832E-34
3.45492E-01 1.00462E-34
3.49647E-01 9.35402E-35
3.53814E-01 8.62679E-35
3.57992E-01 7.88269E-35
3.62181E-01 7.13763E-35
3.66381E-01 6.40517E-35
3.70590E-01 5.69656E-35
3.74810E-01 5.02081E-35
3.79039E-01 4.38480E-35
3.83277E-01 3.79349E-35
3.87524E-01 3.25012E-35
3.91780E-01 2.75636E-35
3.96044E-01 2.31262E-35
4.00316E-01 1.91821E-35
4.04596E-01 1.57153E-35
4.08882E-01 1.27032E-35
4.13176E-01 1.01176E-35
4.17476E-01 7.92662E-36
4.21783E-01 6.09618E-36
4.26095E-01 4.59094E-36
4.30413E-01 3.37549E-36
4.34737E-01 2.41497E-36
4.39065E-01 1.67565E-36
4.43398E-01 1.12591E-36
4.47736E-01 7.35966E-37
4.52077E-01 4.78601E-37
4.56422E-01 3.29068E-37
4.60770E-01 2.65300E-37
4.65122E-01 2.67704E-37
4.69476E-01 3.19310E-37
4.73832E-01 4.05509E-37
4.78190E-01 5.14004E-37
4.82550E-01 6.34564E-37
4.86912E-01 7.58870E-37
4.91274E-01 8.80347E-37
4.95637E-01 9.93932E-37
5.00000E-01 1.09590E-36
5.04363E-01 1.18368E-36
5.08726E-01 1.25568E-36
5.13088E-01 1.31111E-36
5.17450E-01 1.34986E-36
5.21810E-01 1.37238E-36
5.26168E-01 1.37946E-36
5.30524E-01 1.37226E-36
5.34878E-01 1.35216E-36
5.39230E-01 1.32063E-36
5.43578E-01 1.27924E-36
5.47923E-01 1.22958E-36
5.52264E-01 1.17323E-36
5.56602E-01 1.11163E-36
5.60935E-01 1.04624E-36
5.65263E-01 9.78334E-37
5.69587E-01 9.09117E-37
5.73905E-01 8.39618E-37
5.78217E-01 7.70756E-37
5.82524E-01 7.03316E-37
5.86824E-01 6.37968E-37
5.91118E-01 5.75252E-37
5.95404E-01 5.15568E-37
5.99684E-01 4.59289E-37
6.03956E-01 4.06563E-37
6.08220E-01 3.57609E-37
6.12476E-01 3.12433E-37
6.16723E-01 2.71072E-37
6.20961E-01 2.33468E-37
6.25190E-01 1.99523E-37
6.29410E-01 1.69080E-37
6.33619E-01 1.42012E-37
6.37819E-01 1.18121E-37
6.42008E-01 9.71977E-38
6.46186E-01 7.90241E-38
6.50353E-01 6.34163E-38
6.54508E-01 5.01213E-38
6.58652E-01 3.89394E-38
6.62784E-01 2.96568E-38
6.66903E-01 2.20709E-38
6.71010E-01 1.59852E-38
6.75104E-01 1.12058E-38
6.79184E-01 7.57720E-39
6.83251E-01 4.92155E-39
6.87303E-01 3.10321E-39
6.91342E-01 1.98296E-39
6.95366E-01 1.44124E-39
6.99375E-01 1.36846E-39
7.03368E-01 1.66736E-39
7.07347E-01 2.25404E-39
7.11309E-01 3.05335E-39
7.15256E-01 4.00171E-39
7.19186E-01 5.04370E-39
7.23099E-01 6.13323E-39
7.26995E-01 7.23204E-39
7.30874E-01 8.30815E-39
7.34736E-01 9.33625E-39
7.38579E-01 1.02953E-38
7.42405E-01 1.11719E-38
7.46212E-01 1.19548E-38
7.50000E-01 1.26345E-38
7.53769E-01 1.32102E-38
7.57519E-01 1.36791E-38
7.61249E-01 1.40423E-38
7.64960E-01 1.43019E-38
7.68650E-01 1.44637E-38
7.72320E-01 1.45315E-38
7.75968E-01 1.45132E-38
7.79596E-01 1.44152E-38
7.83203E-01 1.42481E-38
7.86788E-01 1.40134E-38
7.90351E-01 1.37227E-38
7.93893E-01 1.33834E-38
7.97411E-01 1.30032E-38
8.00908E-01 1.25860E-38
8.04381E-01 1.21417E-38
8.07831E-01 1.16732E-38
8.11257E-01 1.11900E-38
8.14660E-01 1.06932E-38
8.18039E-01 1.01917E-38
8.21394E-01 9.68619E-39
8.24724E-01 9.18146E-39
8.28030E-01 8.67773E-39
8.31310E-01 8.18304E-39
8.34565E-01 7.69771E-39
8.37795E-01 7.22119E-39
8.40999E-01 6.76042E-39
8.44177E-01 6.31390E-39
8.47329E-01 5.88376E-39
8.50455E-01 5.46941E-39
8.53553E-01 5.07428E-39
8.56625E-01 4.69713E-39
8.59670E-01 4.33994E-39
8.62687E-01 4.00121E-39
8.65677E-01 3.68363E-39
8.68639E-01 3.38245E-39
8.71572E-01 3.10122E-39
8.74478E-01 2.83804E-39
8.77355E-01 2.59201E-39
8.80203E-01 2.36329E-39
8.83022E-01 2.15160E-39
8.85812E-01 1.95353E-39
8.88573E-01 1.77107E-39
8.91304E-01 1.60226E-39
8.94005E-01 1.44702E-39
8.96677E-01 1.30325E-39
8.99318E-01 1.17142E-39
9.01928E-01 1.05122E-39
9.04508E-01 9.40900E-40
9.07058E-01 8.39935E-40
9.09576E-01 7.47516E-40
9.12063E-01 6.63924E-40
9.14519E-01 5.87898E-40
9.16943E-01 5.20080E-40
9.19335E-01 4.58313E-40
9.21696E-01 4.03000E-40
9.24024E-01 3.53282E-40
9.26320E-01 3.08864E-40
9.28584E-01 2.69936E-40
9.30815E-01 2.34743E-40
9.33013E-01 2.04039E-40
9.35178E-01 1.76313E-40
9.37310E-01 1.51936E-40
9.39409E-01 1.30582E-40
9.41474E-01 1.11369E-40
9.43505E-01 9.51504E-41
9.45503E-01 8.08360E-41
9.47467E-01 1.00000E-45
9.49397E-01 1.00000E-45
9.51293E-01 1.00000E-45
9.53154E-01 1.00000E-45
9.54981E-01 1.00000E-45
9.56773E-01 1.00000E-45
9.58530E-01 1.00000E-45
9.60252E-01 1.00000E-45
9.61940E-01 1.00000E-45
9.63592E-01 1.00000E-45
9.65209E-01 1.00000E-45
9.66790E-01 1.00000E-45
9.68336E-01 1.00000E-45
9.69846E-01 1.00000E-45
9.71321E-01 1.00000E-45
9.72759E-01 1.00000E-45
9.74162E-01 1.00000E-45
9.75528E-01 1.00000E-45
9.76858E-01 1.00000E-45
9.78152E-01 1.00000E-45
9.79410E-01 1.00000E-45
9.80631E-01 1.00000E-45
9.81815E-01 1.00000E-45
9.82963E-01 1.00000E-45
9.84074E-01 1.00000E-45
9.85148E-01 1.00000E-45
9.86185E-01 1.00000E-45
9.87185E-01 1.00000E-45
9.88148E-01 1.00000E-45
9.89074E-01 1.00000E-45
9.89962E-01 1.00000E-45
9.90814E-01 1.00000E-45
9.91627E-01 1.00000E-45
9.92404E-01 1.00000E-45
9.93143E-01 1.00000E-45
9.93844E-01 1.00000E-45
9.94508E-01 1.00000E-45
9.95134E-01 1.00000E-45
9.95722E-01 1.00000E-45
9.96273E-01 1.00000E-45
9.96786E-01 1.00000E-45
9.97261E-01 1.00000E-45
9.97698E-01 1.00000E-45
9.98097E-01 1.00000E-45
9.98459E-01 1.00000E-45
9.98782E-01 1.00000E-45
9.99067E-01 1.00000E-45
9.99315E-01 1.00000E-45
9.99524E-01 1.00000E-45
9.99695E-01 1.00000E-45
9.99829E-01 1.00000E-45
9.99924E-01 1.00000E-45
9.99981E-01 1.00000E-45
1.00000E+00 1.00000E-45
