 #
 # Subroutine ELSEPA. Elastic scattering of electrons and positrons
 #                    by neutral atoms and positive ions
 #
 # Projectile: positron
 # Kinetic energy = 9.00000E+08 eV = 3.30744E+07 a.u.
 #
 # WARNING: High-energy factorization with free-atom DF screening.
 #          Absorption, polarization and exchange corrections are
 #          switched off.
 #          Phase shifts are calculated for the bare nucleus.
 #          Scattering amplitudes are not evaluated.
 #
 # Element: Fe,  Z =  26,  atomic weight = 5.58450E+01 g/mol
 #
 # Nuclear model: Fermi distribution
 #                Average radius = 4.08989E-13 cm
 #                Skin thickness = 5.46000E-14 cm
 #
 # Number of electrons = 26
 #
 # Total elastic cross section = 1.94550E-18 cm**2 = 6.94750E-02 a0**2
 # 1st transport cross section = 1.73007E-27 cm**2 = 6.17820E-11 a0**2
 # 2nd transport cross section = 5.18941E-27 cm**2 = 1.85317E-10 a0**2
 #
 #
 # Differential cross section:                       MU=(1-COS(THETA))/2
 #
 #  THETA        MU          DCS          DCS        Sherman      error
 #  (deg)                 (cm**2/sr)   (a0**2/sr)    function
 #----------------------------------------------------------------------
0.00000E+00 1.57799E-08
7.61557E-13 1.25931E-08
1.18994E-12 1.12400E-08
1.71346E-12 9.88995E-09
2.33225E-12 8.61705E-09
3.04617E-12 7.46791E-09
3.85530E-12 6.45779E-09
4.75964E-12 5.58808E-09
5.75917E-12 4.84892E-09
6.85391E-12 4.22339E-09
8.04379E-12 3.69614E-09
9.32893E-12 3.25125E-09
1.07092E-11 2.87369E-09
1.21847E-11 2.55257E-09
1.37554E-11 2.27762E-09
1.54213E-11 2.04033E-09
1.71823E-11 1.83484E-09
1.90386E-11 1.65540E-09
2.09900E-11 1.49780E-09
2.30367E-11 1.35894E-09
2.51785E-11 1.23559E-09
2.74156E-11 1.12576E-09
2.97478E-11 1.02212E-09
3.21752E-11 9.28881E-10
3.46979E-11 8.48147E-10
3.73157E-11 7.77906E-10
4.00286E-11 7.16513E-10
4.28368E-11 6.62617E-10
4.57402E-11 6.09676E-10
4.87388E-11 5.58651E-10
5.18325E-11 5.13690E-10
5.50215E-11 4.73924E-10
5.83057E-11 4.38630E-10
6.16850E-11 4.07196E-10
6.51595E-11 3.77086E-10
6.87293E-11 3.47776E-10
7.23943E-11 3.21587E-10
7.61544E-11 2.98120E-10
1.18991E-10 1.46992E-10
1.71347E-10 7.84576E-11
2.33223E-10 4.53789E-11
3.04617E-10 2.82049E-11
3.85531E-10 1.85897E-11
4.75965E-10 1.28360E-11
5.75917E-10 9.19209E-12
6.85389E-10 6.76719E-12
8.04380E-10 5.09490E-12
9.32891E-10 3.90763E-12
1.07092E-09 3.04228E-12
1.21847E-09 2.40103E-12
1.37554E-09 1.91739E-12
1.54213E-09 1.54726E-12
1.71823E-09 1.26105E-12
1.90386E-09 1.03707E-12
2.09900E-09 8.60066E-13
2.30367E-09 7.18914E-13
2.51785E-09 6.05273E-13
2.74156E-09 5.13079E-13
2.97478E-09 4.37600E-13
3.21752E-09 3.75548E-13
3.46978E-09 3.24191E-13
3.73156E-09 2.81214E-13
4.00286E-09 2.45205E-13
4.28368E-09 2.14751E-13
4.57402E-09 1.88905E-13
4.87388E-09 1.66854E-13
5.18326E-09 1.47926E-13
5.50215E-09 1.31636E-13
5.83057E-09 1.17519E-13
6.16850E-09 1.05261E-13
6.51596E-09 9.45671E-14
6.87293E-09 8.51994E-14
7.23942E-09 7.69766E-14
7.61544E-09 6.97152E-14
1.18991E-08 2.91130E-14
1.71347E-08 1.42344E-14
2.33223E-08 7.75628E-15
3.04617E-08 4.57594E-15
3.85531E-08 2.86941E-15
4.75965E-08 1.88845E-15
5.75917E-08 1.29268E-15
6.85389E-08 9.14175E-16
8.04380E-08 6.64499E-16
9.32891E-08 4.94472E-16
1.07092E-07 3.75477E-16
1.21847E-07 2.90200E-16
1.37554E-07 2.27804E-16
1.54213E-07 1.81305E-16
1.71823E-07 1.46083E-16
1.90386E-07 1.19011E-16
2.09900E-07 9.79278E-17
2.30367E-07 8.13120E-17
2.51785E-07 6.80747E-17
2.74156E-07 5.74243E-17
2.97478E-07 4.87772E-17
3.21752E-07 4.16978E-17
3.46978E-07 3.58573E-17
3.73156E-07 3.10043E-17
4.00286E-07 2.69451E-17
4.28368E-07 2.35290E-17
4.57402E-07 2.06374E-17
4.87388E-07 1.81766E-17
5.18325E-07 1.60719E-17
5.50215E-07 1.42631E-17
5.83057E-07 1.27018E-17
6.16850E-07 1.13483E-17
6.51596E-07 1.01704E-17
6.87293E-07 9.14146E-18
7.23942E-07 8.23938E-18
7.61543E-07 7.44586E-18
1.18991E-06 3.04980E-18
1.71347E-06 1.47069E-18
2.33223E-06 7.93773E-19
3.04617E-06 4.65251E-19
3.85531E-06 2.90425E-19
4.75964E-06 1.90527E-19
5.75916E-06 1.30119E-19
6.85388E-06 9.18626E-20
8.04378E-06 6.66872E-20
9.32888E-06 4.95742E-20
1.07092E-05 3.76144E-20
1.21846E-05 2.90530E-20
1.37553E-05 2.27943E-20
1.54212E-05 1.81335E-20
1.71822E-05 1.46052E-20
1.90385E-05 1.18943E-20
2.09899E-05 9.78526E-21
2.30365E-05 8.12329E-21
2.51783E-05 6.79928E-21
2.74153E-05 5.73408E-21
2.97475E-05 4.86941E-21
3.21749E-05 4.16173E-21
3.46974E-05 3.57811E-21
3.73152E-05 3.09335E-21
4.00281E-05 2.68801E-21
4.28362E-05 2.34695E-21
4.57395E-05 2.05828E-21
4.87380E-05 1.81262E-21
5.18317E-05 1.60251E-21
5.50205E-05 1.42195E-21
5.83045E-05 1.26611E-21
6.16838E-05 1.13104E-21
6.51582E-05 1.01351E-21
6.87277E-05 9.10870E-22
7.23925E-05 8.20898E-22
7.61524E-05 7.26679E-22
9.21439E-05 4.93573E-22
1.09658E-04 3.46349E-22
1.28695E-04 2.49765E-22
1.49255E-04 1.84325E-22
1.71338E-04 1.38762E-22
1.94942E-04 1.06273E-22
2.20070E-04 8.26247E-23
2.46720E-04 6.50963E-23
2.74892E-04 5.18923E-23
3.04586E-04 4.18028E-23
3.35803E-04 3.39928E-23
3.68542E-04 2.78770E-23
4.02802E-04 2.30372E-23
4.38585E-04 1.91705E-23
4.75889E-04 1.60541E-23
5.14715E-04 1.35223E-23
5.55063E-04 1.14503E-23
5.96931E-04 9.74315E-24
6.40321E-04 8.32774E-24
6.85233E-04 7.14744E-24
7.31665E-04 6.15789E-24
7.79618E-04 5.32415E-24
8.29092E-04 4.61839E-24
8.80086E-04 4.01840E-24
9.32601E-04 3.50625E-24
9.86636E-04 3.06743E-24
1.04219E-03 2.69012E-24
1.09927E-03 2.36460E-24
1.15786E-03 2.08289E-24
1.21797E-03 1.83839E-24
1.27961E-03 1.62560E-24
1.34276E-03 1.43992E-24
1.40743E-03 1.27751E-24
1.47362E-03 1.13512E-24
1.54133E-03 1.01002E-24
1.61056E-03 8.99887E-25
1.68131E-03 8.02739E-25
1.75357E-03 7.16892E-25
1.82735E-03 6.40903E-25
1.90265E-03 5.73532E-25
1.97947E-03 5.13710E-25
2.05780E-03 4.60517E-25
2.13765E-03 4.13155E-25
2.21902E-03 3.70930E-25
2.30190E-03 3.33241E-25
2.38630E-03 2.99563E-25
2.47222E-03 2.69438E-25
2.55965E-03 2.42465E-25
2.64859E-03 2.18290E-25
2.73905E-03 1.96606E-25
2.83103E-03 1.77140E-25
2.92452E-03 1.59652E-25
3.01952E-03 1.43931E-25
3.11604E-03 1.29788E-25
3.21407E-03 1.17057E-25
3.31362E-03 1.05592E-25
3.41468E-03 9.52608E-26
3.51725E-03 8.59475E-26
3.62133E-03 7.75483E-26
3.72692E-03 6.99705E-26
3.83403E-03 6.31317E-26
3.94265E-03 5.69579E-26
4.05278E-03 5.13831E-26
4.16442E-03 4.63480E-26
4.27757E-03 4.17997E-26
4.39223E-03 3.76904E-26
4.50840E-03 3.39775E-26
4.62608E-03 3.06225E-26
4.74527E-03 2.75907E-26
4.86597E-03 2.48510E-26
4.98817E-03 2.23755E-26
5.11188E-03 2.01387E-26
5.23711E-03 1.81179E-26
5.36383E-03 1.62925E-26
5.49207E-03 1.46438E-26
5.62181E-03 1.31552E-26
5.75306E-03 1.18113E-26
5.88581E-03 1.05984E-26
6.02007E-03 9.50412E-27
6.15583E-03 8.51720E-27
6.29310E-03 7.62745E-27
6.43187E-03 6.82564E-27
6.57214E-03 6.10341E-27
6.71392E-03 5.45318E-27
6.85720E-03 4.86810E-27
7.00198E-03 4.34193E-27
7.14827E-03 3.86905E-27
7.29605E-03 3.44433E-27
7.44534E-03 3.06314E-27
7.59612E-03 2.72128E-27
7.97965E-03 2.01452E-27
8.37255E-03 1.48022E-27
8.77480E-03 1.07887E-27
9.18641E-03 7.79612E-28
9.60736E-03 5.58379E-28
1.00376E-02 3.96437E-28
1.04773E-02 2.79248E-28
1.09262E-02 1.95579E-28
1.13844E-02 1.36779E-28
1.18520E-02 9.62306E-29
1.23288E-02 6.88978E-29
1.28150E-02 5.09803E-29
1.33104E-02 3.96356E-29
1.38150E-02 3.27612E-29
1.43290E-02 2.88225E-29
1.48521E-02 2.67184E-29
1.53845E-02 2.56750E-29
1.59262E-02 2.51641E-29
1.64770E-02 2.48384E-29
1.70371E-02 2.44830E-29
1.76063E-02 2.39770E-29
1.81848E-02 2.32653E-29
1.87724E-02 2.23365E-29
1.93692E-02 2.12077E-29
1.99751E-02 1.99119E-29
2.05901E-02 1.84905E-29
2.12143E-02 1.69871E-29
2.18476E-02 1.54437E-29
2.24900E-02 1.38983E-29
2.31415E-02 1.23838E-29
2.38021E-02 1.09269E-29
2.44717E-02 9.54856E-30
2.51504E-02 8.26401E-30
2.58382E-02 7.08331E-30
2.65349E-02 6.01199E-30
2.72407E-02 5.05178E-30
2.79555E-02 4.20128E-30
2.86793E-02 3.45661E-30
2.94120E-02 2.81205E-30
3.01537E-02 2.26056E-30
3.09043E-02 1.79425E-30
3.16639E-02 1.40477E-30
3.24324E-02 1.08366E-30
3.32098E-02 8.22583E-31
3.39961E-02 6.13534E-31
3.47912E-02 4.48983E-31
3.55952E-02 3.21974E-31
3.64081E-02 2.26188E-31
3.72297E-02 1.55972E-31
3.80602E-02 1.06341E-31
3.88995E-02 7.29630E-32
3.97476E-02 5.21281E-32
4.06044E-02 4.07062E-32
4.14700E-02 3.60986E-32
4.23443E-02 3.61847E-32
4.32273E-02 3.92683E-32
4.41190E-02 4.40233E-32
4.50194E-02 4.94415E-32
4.59284E-02 5.47842E-32
4.68461E-02 5.95359E-32
4.87074E-02 6.60814E-32
5.06030E-02 6.79753E-32
5.25328E-02 6.55177E-32
5.44967E-02 5.97100E-32
5.64946E-02 5.17828E-32
5.85262E-02 4.29055E-32
6.05914E-02 3.40335E-32
6.26901E-02 2.58504E-32
6.48222E-02 1.87730E-32
6.69873E-02 1.29890E-32
6.91854E-02 8.51103E-33
7.14163E-02 5.23258E-33
7.36799E-02 2.97763E-33
7.59760E-02 1.54125E-33
7.83043E-02 7.19072E-34
8.06647E-02 3.26492E-34
8.30571E-02 2.09251E-34
8.54812E-02 2.47214E-34
8.79369E-02 3.53431E-34
9.04240E-02 4.70235E-34
9.29422E-02 5.63844E-34
9.54915E-02 6.18539E-34
9.80716E-02 6.31184E-34
1.00682E-01 6.06498E-34
1.03323E-01 5.53303E-34
1.05995E-01 4.81766E-34
1.08696E-01 4.01551E-34
1.11427E-01 3.20748E-34
1.14188E-01 2.45383E-34
1.16978E-01 1.79362E-34
1.19797E-01 1.24690E-34
1.22645E-01 8.18281E-35
1.25522E-01 5.01103E-35
1.28428E-01 2.81488E-35
1.31361E-01 1.41829E-35
1.34323E-01 6.35579E-36
1.37313E-01 2.91322E-36
1.40330E-01 2.32879E-36
1.43375E-01 3.36701E-36
1.46447E-01 5.09855E-36
1.49545E-01 6.88159E-36
1.52671E-01 8.32213E-36
1.55823E-01 9.22432E-36
1.59001E-01 9.53878E-36
1.62205E-01 9.31438E-36
1.65435E-01 8.65711E-36
1.68690E-01 7.69749E-36
1.71970E-01 6.56692E-36
1.75276E-01 5.38204E-36
1.78606E-01 4.23615E-36
1.81961E-01 3.19600E-36
1.85340E-01 2.30255E-36
1.88743E-01 1.57417E-36
1.92169E-01 1.01129E-36
1.95619E-01 6.01408E-37
1.99092E-01 3.23823E-37
2.02589E-01 1.53786E-37
2.06107E-01 6.57728E-38
2.09649E-01 3.58057E-38
2.13212E-01 4.30408E-38
2.16797E-01 7.04925E-38
2.20404E-01 1.05300E-37
2.24032E-01 1.38511E-37
2.27680E-01 1.64602E-37
2.31350E-01 1.80856E-37
2.35040E-01 1.86680E-37
2.38751E-01 1.82948E-37
2.42481E-01 1.71416E-37
2.46231E-01 1.54244E-37
2.50000E-01 1.33643E-37
2.53788E-01 1.11625E-37
2.57595E-01 8.98607E-38
2.61421E-01 6.96097E-38
2.65264E-01 5.17208E-38
2.69126E-01 3.66649E-38
2.73005E-01 2.45963E-38
2.76901E-01 1.54191E-38
2.80814E-01 8.86045E-39
2.84744E-01 1.00000E-45
2.88691E-01 1.00000E-45
2.92653E-01 1.00000E-45
2.96632E-01 1.00000E-45
3.00625E-01 1.00000E-45
3.04634E-01 1.00000E-45
3.08658E-01 1.00000E-45
3.12697E-01 1.00000E-45
3.16749E-01 1.00000E-45
3.20816E-01 1.00000E-45
3.24896E-01 1.00000E-45
3.28990E-01 1.00000E-45
3.33097E-01 1.00000E-45
3.37216E-01 1.00000E-45
3.41348E-01 1.00000E-45
3.45492E-01 1.00000E-45
3.49647E-01 1.00000E-45
3.53814E-01 1.00000E-45
3.57992E-01 1.00000E-45
3.62181E-01 1.00000E-45
3.66381E-01 1.00000E-45
3.70590E-01 1.00000E-45
3.74810E-01 1.00000E-45
3.79039E-01 1.00000E-45
3.83277E-01 1.00000E-45
3.87524E-01 1.00000E-45
3.91780E-01 1.00000E-45
3.96044E-01 1.00000E-45
4.00316E-01 1.00000E-45
4.04596E-01 1.00000E-45
4.08882E-01 1.00000E-45
4.13176E-01 1.00000E-45
4.17476E-01 1.00000E-45
4.21783E-01 1.00000E-45
4.26095E-01 1.00000E-45
4.30413E-01 1.00000E-45
4.34737E-01 1.00000E-45
4.39065E-01 1.00000E-45
4.43398E-01 1.00000E-45
4.47736E-01 1.00000E-45
4.52077E-01 1.00000E-45
4.56422E-01 1.00000E-45
4.60770E-01 1.00000E-45
4.65122E-01 1.00000E-45
4.69476E-01 1.00000E-45
4.73832E-01 1.00000E-45
4.78190E-01 1.00000E-45
4.82550E-01 1.00000E-45
4.86912E-01 1.00000E-45
4.91274E-01 1.00000E-45
4.95637E-01 1.00000E-45
5.00000E-01 1.00000E-45
5.04363E-01 1.00000E-45
5.08726E-01 1.00000E-45
5.13088E-01 1.00000E-45
5.17450E-01 1.00000E-45
5.21810E-01 1.00000E-45
5.26168E-01 1.00000E-45
5.30524E-01 1.00000E-45
5.34878E-01 1.00000E-45
5.39230E-01 1.00000E-45
5.43578E-01 1.00000E-45
5.47923E-01 1.00000E-45
5.52264E-01 1.00000E-45
5.56602E-01 1.00000E-45
5.60935E-01 1.00000E-45
5.65263E-01 1.00000E-45
5.69587E-01 1.00000E-45
5.73905E-01 1.00000E-45
5.78217E-01 1.00000E-45
5.82524E-01 1.00000E-45
5.86824E-01 1.00000E-45
5.91118E-01 1.00000E-45
5.95404E-01 1.00000E-45
5.99684E-01 1.00000E-45
6.03956E-01 1.00000E-45
6.08220E-01 1.00000E-45
6.12476E-01 1.00000E-45
6.16723E-01 1.00000E-45
6.20961E-01 1.00000E-45
6.25190E-01 1.00000E-45
6.29410E-01 1.00000E-45
6.33619E-01 1.00000E-45
6.37819E-01 1.00000E-45
6.42008E-01 1.00000E-45
6.46186E-01 1.00000E-45
6.50353E-01 1.00000E-45
6.54508E-01 1.00000E-45
6.58652E-01 1.00000E-45
6.62784E-01 1.00000E-45
6.66903E-01 1.00000E-45
6.71010E-01 1.00000E-45
6.75104E-01 1.00000E-45
6.79184E-01 1.00000E-45
6.83251E-01 1.00000E-45
6.87303E-01 1.00000E-45
6.91342E-01 1.00000E-45
6.95366E-01 1.00000E-45
6.99375E-01 1.00000E-45
7.03368E-01 1.00000E-45
7.07347E-01 1.00000E-45
7.11309E-01 1.00000E-45
7.15256E-01 1.00000E-45
7.19186E-01 1.00000E-45
7.23099E-01 1.00000E-45
7.26995E-01 1.00000E-45
7.30874E-01 1.00000E-45
7.34736E-01 1.00000E-45
7.38579E-01 1.00000E-45
7.42405E-01 1.00000E-45
7.46212E-01 1.00000E-45
7.50000E-01 1.00000E-45
7.53769E-01 1.00000E-45
7.57519E-01 1.00000E-45
7.61249E-01 1.00000E-45
7.64960E-01 1.00000E-45
7.68650E-01 1.00000E-45
7.72320E-01 1.00000E-45
7.75968E-01 1.00000E-45
7.79596E-01 1.00000E-45
7.83203E-01 1.00000E-45
7.86788E-01 1.00000E-45
7.90351E-01 1.00000E-45
7.93893E-01 1.00000E-45
7.97411E-01 1.00000E-45
8.00908E-01 1.00000E-45
8.04381E-01 1.00000E-45
8.07831E-01 1.00000E-45
8.11257E-01 1.00000E-45
8.14660E-01 1.00000E-45
8.18039E-01 1.00000E-45
8.21394E-01 1.00000E-45
8.24724E-01 1.00000E-45
8.28030E-01 1.00000E-45
8.31310E-01 1.00000E-45
8.34565E-01 1.00000E-45
8.37795E-01 1.00000E-45
8.40999E-01 1.00000E-45
8.44177E-01 1.00000E-45
8.47329E-01 1.00000E-45
8.50455E-01 1.00000E-45
8.53553E-01 1.00000E-45
8.56625E-01 1.00000E-45
8.59670E-01 1.00000E-45
8.62687E-01 1.00000E-45
8.65677E-01 1.00000E-45
8.68639E-01 1.00000E-45
8.71572E-01 1.00000E-45
8.74478E-01 1.00000E-45
8.77355E-01 1.00000E-45
8.80203E-01 1.00000E-45
8.83022E-01 1.00000E-45
8.85812E-01 1.00000E-45
8.88573E-01 1.00000E-45
8.91304E-01 1.00000E-45
8.94005E-01 1.00000E-45
8.96677E-01 1.00000E-45
8.99318E-01 1.00000E-45
9.01928E-01 1.00000E-45
9.04508E-01 1.00000E-45
9.07058E-01 1.00000E-45
9.09576E-01 1.00000E-45
9.12063E-01 1.00000E-45
9.14519E-01 1.00000E-45
9.16943E-01 1.00000E-45
9.19335E-01 1.00000E-45
9.21696E-01 1.00000E-45
9.24024E-01 1.00000E-45
9.26320E-01 1.00000E-45
9.28584E-01 1.00000E-45
9.30815E-01 1.00000E-45
9.33013E-01 1.00000E-45
9.35178E-01 1.00000E-45
9.37310E-01 1.00000E-45
9.39409E-01 1.00000E-45
9.41474E-01 1.00000E-45
9.43505E-01 1.00000E-45
9.45503E-01 1.00000E-45
9.47467E-01 1.00000E-45
9.49397E-01 1.00000E-45
9.51293E-01 1.00000E-45
9.53154E-01 1.00000E-45
9.54981E-01 1.00000E-45
9.56773E-01 1.00000E-45
9.58530E-01 1.00000E-45
9.60252E-01 1.00000E-45
9.61940E-01 1.00000E-45
9.63592E-01 1.00000E-45
9.65209E-01 1.00000E-45
9.66790E-01 1.00000E-45
9.68336E-01 1.00000E-45
9.69846E-01 1.00000E-45
9.71321E-01 1.00000E-45
9.72759E-01 1.00000E-45
9.74162E-01 1.00000E-45
9.75528E-01 1.00000E-45
9.76858E-01 1.00000E-45
9.78152E-01 1.00000E-45
9.79410E-01 1.00000E-45
9.80631E-01 1.00000E-45
9.81815E-01 1.00000E-45
9.82963E-01 1.00000E-45
9.84074E-01 1.00000E-45
9.85148E-01 1.00000E-45
9.86185E-01 1.00000E-45
9.87185E-01 1.00000E-45
9.88148E-01 1.00000E-45
9.89074E-01 1.00000E-45
9.89962E-01 1.00000E-45
9.90814E-01 1.00000E-45
9.91627E-01 1.00000E-45
9.92404E-01 1.00000E-45
9.93143E-01 1.00000E-45
9.93844E-01 1.00000E-45
9.94508E-01 1.00000E-45
9.95134E-01 1.00000E-45
9.95722E-01 1.00000E-45
9.96273E-01 1.00000E-45
9.96786E-01 1.00000E-45
9.97261E-01 1.00000E-45
9.97698E-01 1.00000E-45
9.98097E-01 1.00000E-45
9.98459E-01 1.00000E-45
9.98782E-01 1.00000E-45
9.99067E-01 1.00000E-45
9.99315E-01 1.00000E-45
9.99524E-01 1.00000E-45
9.99695E-01 1.00000E-45
9.99829E-01 1.00000E-45
9.99924E-01 1.00000E-45
9.99981E-01 1.00000E-45
1.00000E+00 1.00000E-45
