 #
 # Subroutine ELSEPA. Elastic scattering of electrons and positrons
 #                    by neutral atoms and positive ions
 #
 # Projectile: positron
 # Kinetic energy = 4.50000E+08 eV = 1.65372E+07 a.u.
 #
 # WARNING: High-energy factorization with free-atom DF screening.
 #          Absorption, polarization and exchange corrections are
 #          switched off.
 #          Phase shifts are calculated for the bare nucleus.
 #          Scattering amplitudes are not evaluated.
 #
 # Element: Fe,  Z =  26,  atomic weight = 5.58450E+01 g/mol
 #
 # Nuclear model: Fermi distribution
 #                Average radius = 4.08989E-13 cm
 #                Skin thickness = 5.46000E-14 cm
 #
 # Number of electrons = 26
 #
 # Total elastic cross section = 1.95837E-18 cm**2 = 6.99346E-02 a0**2
 # 1st transport cross section = 6.89700E-27 cm**2 = 2.46296E-10 a0**2
 # 2nd transport cross section = 2.06781E-26 cm**2 = 7.38429E-10 a0**2
 #
 #
 # Differential cross section:                       MU=(1-COS(THETA))/2
 #
 #  THETA        MU          DCS          DCS        Sherman      error
 #  (deg)                 (cm**2/sr)   (a0**2/sr)    function
 #----------------------------------------------------------------------
0.00000E+00 3.94945E-09
7.61557E-13 3.72130E-09
1.18994E-12 3.60211E-09
1.71346E-12 3.46481E-09
2.33225E-12 3.31303E-09
3.04617E-12 3.15112E-09
3.85530E-12 2.98300E-09
4.75964E-12 2.81225E-09
5.75917E-12 2.64195E-09
6.85391E-12 2.47417E-09
8.04379E-12 2.31146E-09
9.32893E-12 2.15551E-09
1.07092E-11 2.00741E-09
1.21847E-11 1.86786E-09
1.37554E-11 1.73710E-09
1.54213E-11 1.61508E-09
1.71823E-11 1.50197E-09
1.90386E-11 1.39746E-09
2.09900E-11 1.30115E-09
2.30367E-11 1.21254E-09
2.51785E-11 1.13100E-09
2.74156E-11 1.05607E-09
2.97478E-11 9.87308E-10
3.21752E-11 9.24187E-10
3.46979E-11 8.66215E-10
3.73157E-11 8.12927E-10
4.00286E-11 7.63773E-10
4.28368E-11 7.18500E-10
4.57402E-11 6.76749E-10
4.87388E-11 6.38190E-10
5.18325E-11 6.02529E-10
5.50215E-11 5.69439E-10
5.83057E-11 5.38681E-10
6.16850E-11 5.10100E-10
6.51595E-11 4.83501E-10
6.87293E-11 4.58709E-10
7.23943E-11 4.35565E-10
7.61544E-11 4.13846E-10
1.18991E-10 2.55463E-10
1.71347E-10 1.65627E-10
2.33223E-10 1.09616E-10
3.04617E-10 7.44882E-11
3.85531E-10 5.17615E-11
4.75965E-10 3.67185E-11
5.75917E-10 2.65778E-11
6.85389E-10 1.95978E-11
8.04380E-10 1.47582E-11
9.32891E-10 1.13346E-11
1.07092E-09 8.86311E-12
1.21847E-09 7.04492E-12
1.37554E-09 5.68261E-12
1.54213E-09 4.64339E-12
1.71823E-09 3.83869E-12
1.90386E-09 3.20623E-12
2.09900E-09 2.70237E-12
2.30367E-09 2.29600E-12
2.51785E-09 1.96398E-12
2.74156E-09 1.69032E-12
2.97478E-09 1.46294E-12
3.21752E-09 1.27257E-12
3.46978E-09 1.11213E-12
3.73156E-09 9.76019E-13
4.00286E-09 8.59605E-13
4.28368E-09 7.59849E-13
4.57402E-09 6.73956E-13
4.87388E-09 5.99669E-13
5.18326E-09 5.35160E-13
5.50215E-09 4.78873E-13
5.83057E-09 4.29612E-13
6.16850E-09 3.86421E-13
6.51596E-09 3.48436E-13
6.87293E-09 3.14932E-13
7.23942E-09 2.85300E-13
7.61544E-09 2.58995E-13
1.18991E-08 1.09279E-13
1.71347E-08 5.36278E-14
2.33223E-08 2.93467E-14
3.04617E-08 1.74091E-14
3.85531E-08 1.09822E-14
4.75965E-08 7.26993E-15
5.75917E-08 5.00285E-15
6.85389E-08 3.55447E-15
8.04380E-08 2.59400E-15
9.32891E-08 1.93678E-15
1.07092E-07 1.47487E-15
1.21847E-07 1.14261E-15
1.37554E-07 8.98730E-16
1.54213E-07 7.16481E-16
1.71823E-07 5.78105E-16
1.90386E-07 4.71531E-16
2.09900E-07 3.88389E-16
2.30367E-07 3.22766E-16
2.51785E-07 2.70420E-16
2.74156E-07 2.28256E-16
2.97478E-07 1.93990E-16
3.21752E-07 1.65913E-16
3.46978E-07 1.42733E-16
3.73156E-07 1.23459E-16
4.00286E-07 1.07329E-16
4.28368E-07 9.37475E-17
4.57402E-07 8.22464E-17
4.87388E-07 7.24550E-17
5.18325E-07 6.40774E-17
5.50215E-07 5.68757E-17
5.83057E-07 5.06574E-17
6.16850E-07 4.52658E-17
6.51596E-07 4.05724E-17
6.87293E-07 3.64716E-17
7.23942E-07 3.28759E-17
7.61543E-07 2.97124E-17
1.18991E-06 1.21770E-17
1.71347E-06 5.87358E-18
2.33223E-06 3.17058E-18
3.04617E-06 1.85851E-18
3.85531E-06 1.16020E-18
4.75964E-06 7.61154E-19
5.75916E-06 5.19835E-19
6.85388E-06 3.67005E-19
8.04378E-06 2.66429E-19
9.32888E-06 1.98061E-19
1.07092E-05 1.50280E-19
1.21846E-05 1.16075E-19
1.37553E-05 9.10706E-20
1.54212E-05 7.24498E-20
1.71822E-05 5.83533E-20
1.90385E-05 4.75223E-20
2.09899E-05 3.90960E-20
2.30365E-05 3.24559E-20
2.51783E-05 2.71660E-20
2.74153E-05 2.29101E-20
2.97475E-05 1.94554E-20
3.21749E-05 1.66280E-20
3.46974E-05 1.42961E-20
3.73152E-05 1.23594E-20
4.00281E-05 1.07399E-20
4.28362E-05 9.37716E-21
4.57395E-05 8.22380E-21
4.87380E-05 7.24228E-21
5.18317E-05 6.40278E-21
5.50205E-05 5.68136E-21
5.83045E-05 5.05870E-21
6.16838E-05 4.51903E-21
6.51582E-05 4.04947E-21
6.87277E-05 3.63935E-21
7.23925E-05 3.27987E-21
7.61524E-05 2.95285E-21
9.21439E-05 2.01388E-21
1.09658E-04 1.41965E-21
1.28695E-04 1.02894E-21
1.49255E-04 7.63539E-22
1.71338E-04 5.78244E-22
1.94942E-04 4.45719E-22
2.20070E-04 3.48940E-22
2.46720E-04 2.76951E-22
2.74892E-04 2.22514E-22
3.04586E-04 1.80748E-22
3.35803E-04 1.48277E-22
3.68542E-04 1.22731E-22
4.02802E-04 1.02416E-22
4.38585E-04 8.60995E-23
4.75889E-04 7.28772E-23
5.14715E-04 6.20725E-23
5.55063E-04 5.31761E-23
5.96931E-04 4.57988E-23
6.40321E-04 3.96410E-23
6.85233E-04 3.44698E-23
7.31665E-04 3.01023E-23
7.79618E-04 2.63940E-23
8.29092E-04 2.32297E-23
8.80086E-04 2.05170E-23
9.32601E-04 1.81813E-23
9.86636E-04 1.61617E-23
1.04219E-03 1.44088E-23
1.09927E-03 1.28817E-23
1.15786E-03 1.15467E-23
1.21797E-03 1.03758E-23
1.27961E-03 9.34552E-24
1.34276E-03 8.43638E-24
1.40743E-03 7.63183E-24
1.47362E-03 6.91794E-24
1.54133E-03 6.28285E-24
1.61056E-03 5.71650E-24
1.68131E-03 5.21027E-24
1.75357E-03 4.75676E-24
1.82735E-03 4.34963E-24
1.90265E-03 3.98337E-24
1.97947E-03 3.65325E-24
2.05780E-03 3.35514E-24
2.13765E-03 3.08546E-24
2.21902E-03 2.84107E-24
2.30190E-03 2.61923E-24
2.38630E-03 2.41755E-24
2.47222E-03 2.23390E-24
2.55965E-03 2.06644E-24
2.64859E-03 1.91352E-24
2.73905E-03 1.77368E-24
2.83103E-03 1.64564E-24
2.92452E-03 1.52825E-24
3.01952E-03 1.42050E-24
3.11604E-03 1.32147E-24
3.21407E-03 1.23037E-24
3.31362E-03 1.14645E-24
3.41468E-03 1.06907E-24
3.51725E-03 9.97657E-25
3.62133E-03 9.31673E-25
3.72692E-03 8.70651E-25
3.83403E-03 8.14166E-25
3.94265E-03 7.61832E-25
4.05278E-03 7.13302E-25
4.16442E-03 6.68261E-25
4.27757E-03 6.26425E-25
4.39223E-03 5.87535E-25
4.50840E-03 5.51355E-25
4.62608E-03 5.17672E-25
4.74527E-03 4.86290E-25
4.86597E-03 4.57032E-25
4.98817E-03 4.29735E-25
5.11188E-03 4.04252E-25
5.23711E-03 3.80446E-25
5.36383E-03 3.58193E-25
5.49207E-03 3.37380E-25
5.62181E-03 3.17902E-25
5.75306E-03 2.99663E-25
5.88581E-03 2.82575E-25
6.02007E-03 2.66556E-25
6.15583E-03 2.51532E-25
6.29310E-03 2.37434E-25
6.43187E-03 2.24198E-25
6.57214E-03 2.11766E-25
6.71392E-03 2.00084E-25
6.85720E-03 1.89101E-25
7.00198E-03 1.78771E-25
7.14827E-03 1.69051E-25
7.29605E-03 1.59901E-25
7.44534E-03 1.51285E-25
7.59612E-03 1.43168E-25
7.97965E-03 1.24856E-25
8.37255E-03 1.09031E-25
8.77480E-03 9.53289E-26
9.18641E-03 8.34406E-26
9.60736E-03 7.31077E-26
1.00376E-02 6.41118E-26
1.04773E-02 5.62679E-26
1.09262E-02 4.94186E-26
1.13844E-02 4.34302E-26
1.18520E-02 3.81879E-26
1.23288E-02 3.35939E-26
1.28150E-02 2.95639E-26
1.33104E-02 2.60254E-26
1.38150E-02 2.29159E-26
1.43290E-02 2.01813E-26
1.48521E-02 1.77749E-26
1.53845E-02 1.56560E-26
1.59262E-02 1.37894E-26
1.64770E-02 1.21443E-26
1.70371E-02 1.06938E-26
1.76063E-02 9.41460E-27
1.81848E-02 8.28620E-27
1.87724E-02 7.29065E-27
1.93692E-02 6.41223E-27
1.99751E-02 5.63713E-27
2.05901E-02 4.95323E-27
2.12143E-02 4.34985E-27
2.18476E-02 3.81759E-27
2.24900E-02 3.34818E-27
2.31415E-02 2.93431E-27
2.38021E-02 2.56953E-27
2.44717E-02 2.24815E-27
2.51504E-02 1.96514E-27
2.58382E-02 1.71606E-27
2.65349E-02 1.49696E-27
2.72407E-02 1.30437E-27
2.79555E-02 1.13520E-27
2.86793E-02 9.86726E-28
2.94120E-02 8.56529E-28
3.01537E-02 7.42468E-28
3.09043E-02 6.42645E-28
3.16639E-02 5.55382E-28
3.24324E-02 4.79188E-28
3.32098E-02 4.12746E-28
3.39961E-02 3.54888E-28
3.47912E-02 3.04578E-28
3.55952E-02 2.60902E-28
3.64081E-02 2.23050E-28
3.72297E-02 1.90305E-28
3.80602E-02 1.62033E-28
3.88995E-02 1.37674E-28
3.97476E-02 1.16734E-28
4.06044E-02 9.87769E-29
4.14700E-02 8.34173E-29
4.23443E-02 7.03162E-29
4.32273E-02 5.91752E-29
4.41190E-02 4.97320E-29
4.50194E-02 4.17558E-29
4.59284E-02 3.50446E-29
4.68461E-02 2.94210E-29
4.87074E-02 2.08368E-29
5.06030E-02 1.49850E-29
5.25328E-02 1.10944E-29
5.44967E-02 8.58584E-30
5.64946E-02 7.02849E-30
5.85262E-02 6.10607E-30
6.05914E-02 5.58980E-30
6.26901E-02 5.31733E-30
6.48222E-02 5.17630E-30
6.69873E-02 5.09148E-30
6.91854E-02 5.01490E-30
7.14163E-02 4.91823E-30
7.36799E-02 4.78697E-30
7.59760E-02 4.61608E-30
7.83043E-02 4.40670E-30
8.06647E-02 4.16377E-30
8.30571E-02 3.89426E-30
8.54812E-02 3.60601E-30
8.79369E-02 3.30685E-30
9.04240E-02 3.00409E-30
9.29422E-02 2.70417E-30
9.54915E-02 2.41255E-30
9.80716E-02 2.13360E-30
1.00682E-01 1.87066E-30
1.03323E-01 1.62609E-30
1.05995E-01 1.40140E-30
1.08696E-01 1.19733E-30
1.11427E-01 1.01400E-30
1.14188E-01 8.51023E-31
1.16978E-01 7.07615E-31
1.19797E-01 5.82692E-31
1.22645E-01 4.74961E-31
1.25522E-01 3.83001E-31
1.28428E-01 3.05322E-31
1.31361E-01 2.40417E-31
1.34323E-01 1.86809E-31
1.37313E-01 1.43077E-31
1.40330E-01 1.07882E-31
1.43375E-01 7.99829E-32
1.46447E-01 5.82452E-32
1.49545E-01 4.16465E-32
1.52671E-01 2.92773E-32
1.55823E-01 2.03383E-32
1.59001E-01 1.41356E-32
1.62205E-01 1.00744E-32
1.65435E-01 7.65127E-33
1.68690E-01 6.44568E-33
1.71970E-01 6.11158E-33
1.75276E-01 6.36874E-33
1.78606E-01 6.99436E-33
1.81961E-01 7.81518E-33
1.85340E-01 8.70002E-33
1.88743E-01 9.55304E-33
1.92169E-01 1.03075E-32
1.95619E-01 1.09205E-32
1.99092E-01 1.13677E-32
2.02589E-01 1.16397E-32
2.06107E-01 1.17381E-32
2.09649E-01 1.16726E-32
2.13212E-01 1.14585E-32
2.16797E-01 1.11147E-32
2.20404E-01 1.06617E-32
2.24032E-01 1.01210E-32
2.27680E-01 9.51330E-33
2.31350E-01 8.85851E-33
2.35040E-01 8.17479E-33
2.38751E-01 7.47839E-33
2.42481E-01 6.78346E-33
2.46231E-01 6.10199E-33
2.50000E-01 5.44382E-33
2.53788E-01 4.81676E-33
2.57595E-01 4.22670E-33
2.61421E-01 3.67783E-33
2.65264E-01 3.17280E-33
2.69126E-01 2.71291E-33
2.73005E-01 2.29835E-33
2.76901E-01 1.92836E-33
2.80814E-01 1.60144E-33
2.84744E-01 1.31547E-33
2.88691E-01 1.06793E-33
2.92653E-01 8.55975E-34
2.96632E-01 6.76578E-34
3.00625E-01 5.26630E-34
3.04634E-01 4.03019E-34
3.08658E-01 3.02696E-34
3.12697E-01 2.22732E-34
3.16749E-01 1.60353E-34
3.20816E-01 1.12975E-34
3.24896E-01 7.82188E-35
3.28990E-01 5.39245E-35
3.33097E-01 3.81532E-35
3.37216E-01 2.91859E-35
3.41348E-01 2.55178E-35
3.45492E-01 2.58471E-35
3.49647E-01 2.90643E-35
3.53814E-01 3.42360E-35
3.57992E-01 4.05911E-35
3.62181E-01 4.75039E-35
3.66381E-01 5.44788E-35
3.70590E-01 6.11336E-35
3.74810E-01 6.71854E-35
3.79039E-01 7.24357E-35
3.83277E-01 7.67574E-35
3.87524E-01 8.00823E-35
3.91780E-01 8.23904E-35
3.96044E-01 8.36995E-35
4.00316E-01 8.40570E-35
4.04596E-01 8.35320E-35
4.08882E-01 8.22089E-35
4.13176E-01 8.01816E-35
4.17476E-01 7.75489E-35
4.21783E-01 7.44112E-35
4.26095E-01 7.08669E-35
4.30413E-01 6.70106E-35
4.34737E-01 6.29308E-35
4.39065E-01 5.87086E-35
4.43398E-01 5.44179E-35
4.47736E-01 5.01236E-35
4.52077E-01 4.58824E-35
4.56422E-01 4.17424E-35
4.60770E-01 3.77440E-35
4.65122E-01 3.39190E-35
4.69476E-01 3.02929E-35
4.73832E-01 2.68841E-35
4.78190E-01 2.37052E-35
4.82550E-01 2.07636E-35
4.86912E-01 1.80619E-35
4.91274E-01 1.55989E-35
4.95637E-01 1.33701E-35
5.00000E-01 1.13680E-35
5.04363E-01 9.58334E-36
5.08726E-01 8.00456E-36
5.13088E-01 6.61943E-36
5.17450E-01 5.41440E-36
5.21810E-01 4.37560E-36
5.26168E-01 3.48916E-36
5.30524E-01 2.74088E-36
5.34878E-01 2.11698E-36
5.39230E-01 1.60425E-36
5.43578E-01 1.18988E-36
5.47923E-01 8.61835E-37
5.52264E-01 6.08742E-37
5.56602E-01 4.20219E-37
5.60935E-01 2.86514E-37
5.65263E-01 1.98880E-37
5.69587E-01 1.49294E-37
5.73905E-01 1.30656E-37
5.78217E-01 1.36607E-37
5.82524E-01 1.61571E-37
5.86824E-01 2.00663E-37
5.91118E-01 2.49677E-37
5.95404E-01 3.05050E-37
5.99684E-01 3.63739E-37
6.03956E-01 4.23259E-37
6.08220E-01 4.81567E-37
6.12476E-01 5.37039E-37
6.16723E-01 5.88430E-37
6.20961E-01 6.34810E-37
6.25190E-01 6.75524E-37
6.29410E-01 7.10149E-37
6.33619E-01 7.38504E-37
6.37819E-01 7.60549E-37
6.42008E-01 7.76380E-37
6.46186E-01 7.86194E-37
6.50353E-01 7.90359E-37
6.54508E-01 7.89185E-37
6.58652E-01 7.83126E-37
6.62784E-01 7.72628E-37
6.66903E-01 7.58171E-37
6.71010E-01 7.40228E-37
6.75104E-01 7.19240E-37
6.79184E-01 6.95731E-37
6.83251E-01 6.70066E-37
6.87303E-01 6.42730E-37
6.91342E-01 6.14088E-37
6.95366E-01 5.84514E-37
6.99375E-01 5.54342E-37
7.03368E-01 5.23873E-37
7.07347E-01 4.93394E-37
7.11309E-01 4.63127E-37
7.15256E-01 4.33313E-37
7.19186E-01 4.04131E-37
7.23099E-01 3.75700E-37
7.26995E-01 3.48193E-37
7.30874E-01 3.21706E-37
7.34736E-01 2.96325E-37
7.38579E-01 2.72123E-37
7.42405E-01 2.49125E-37
7.46212E-01 2.27365E-37
7.50000E-01 2.06883E-37
7.53769E-01 1.87650E-37
7.57519E-01 1.69665E-37
7.61249E-01 1.52912E-37
7.64960E-01 1.37363E-37
7.68650E-01 1.22976E-37
7.72320E-01 1.09719E-37
7.75968E-01 9.75374E-38
7.79596E-01 8.63869E-38
7.83203E-01 7.62017E-38
7.86788E-01 6.69559E-38
7.90351E-01 5.85773E-38
7.93893E-01 5.10128E-38
7.97411E-01 4.42071E-38
8.00908E-01 3.81187E-38
8.04381E-01 3.26829E-38
8.07831E-01 2.78590E-38
8.11257E-01 2.35882E-38
8.14660E-01 1.98349E-38
8.18039E-01 1.65427E-38
8.21394E-01 1.36796E-38
8.24724E-01 1.12021E-38
8.28030E-01 9.07946E-39
8.31310E-01 7.26582E-39
8.34565E-01 5.73319E-39
8.37795E-01 4.45542E-39
8.40999E-01 3.39644E-39
8.44177E-01 2.53486E-39
8.47329E-01 1.84550E-39
8.50455E-01 1.30825E-39
8.53553E-01 8.99920E-40
8.56625E-01 6.04744E-40
8.59670E-01 4.04742E-40
8.62687E-01 1.00000E-45
8.65677E-01 1.00000E-45
8.68639E-01 1.00000E-45
8.71572E-01 1.00000E-45
8.74478E-01 1.00000E-45
8.77355E-01 1.00000E-45
8.80203E-01 1.00000E-45
8.83022E-01 1.00000E-45
8.85812E-01 1.00000E-45
8.88573E-01 1.00000E-45
8.91304E-01 1.00000E-45
8.94005E-01 1.00000E-45
8.96677E-01 1.00000E-45
8.99318E-01 1.00000E-45
9.01928E-01 1.00000E-45
9.04508E-01 1.00000E-45
9.07058E-01 1.00000E-45
9.09576E-01 1.00000E-45
9.12063E-01 1.00000E-45
9.14519E-01 1.00000E-45
9.16943E-01 1.00000E-45
9.19335E-01 1.00000E-45
9.21696E-01 1.00000E-45
9.24024E-01 1.00000E-45
9.26320E-01 1.00000E-45
9.28584E-01 1.00000E-45
9.30815E-01 1.00000E-45
9.33013E-01 1.00000E-45
9.35178E-01 1.00000E-45
9.37310E-01 1.00000E-45
9.39409E-01 1.00000E-45
9.41474E-01 1.00000E-45
9.43505E-01 1.00000E-45
9.45503E-01 1.00000E-45
9.47467E-01 1.00000E-45
9.49397E-01 1.00000E-45
9.51293E-01 1.00000E-45
9.53154E-01 1.00000E-45
9.54981E-01 1.00000E-45
9.56773E-01 1.00000E-45
9.58530E-01 1.00000E-45
9.60252E-01 1.00000E-45
9.61940E-01 1.00000E-45
9.63592E-01 1.00000E-45
9.65209E-01 1.00000E-45
9.66790E-01 1.00000E-45
9.68336E-01 1.00000E-45
9.69846E-01 1.00000E-45
9.71321E-01 1.00000E-45
9.72759E-01 1.00000E-45
9.74162E-01 1.00000E-45
9.75528E-01 1.00000E-45
9.76858E-01 1.00000E-45
9.78152E-01 1.00000E-45
9.79410E-01 1.00000E-45
9.80631E-01 1.00000E-45
9.81815E-01 1.00000E-45
9.82963E-01 1.00000E-45
9.84074E-01 1.00000E-45
9.85148E-01 1.00000E-45
9.86185E-01 1.00000E-45
9.87185E-01 1.00000E-45
9.88148E-01 1.00000E-45
9.89074E-01 1.00000E-45
9.89962E-01 1.00000E-45
9.90814E-01 1.00000E-45
9.91627E-01 1.00000E-45
9.92404E-01 1.00000E-45
9.93143E-01 1.00000E-45
9.93844E-01 1.00000E-45
9.94508E-01 1.00000E-45
9.95134E-01 1.00000E-45
9.95722E-01 1.00000E-45
9.96273E-01 1.00000E-45
9.96786E-01 1.00000E-45
9.97261E-01 1.00000E-45
9.97698E-01 1.00000E-45
9.98097E-01 1.00000E-45
9.98459E-01 1.00000E-45
9.98782E-01 1.00000E-45
9.99067E-01 1.00000E-45
9.99315E-01 1.00000E-45
9.99524E-01 1.00000E-45
9.99695E-01 1.00000E-45
9.99829E-01 1.00000E-45
9.99924E-01 1.00000E-45
9.99981E-01 1.00000E-45
1.00000E+00 1.00000E-45
