 #
 # Subroutine ELSEPA. Elastic scattering of electrons and positrons
 #                    by neutral atoms and positive ions
 #
 # Projectile: positron
 # Kinetic energy = 2.50000E+08 eV = 9.18733E+06 a.u.
 #
 # WARNING: High-energy factorization with free-atom DF screening.
 #          Absorption, polarization and exchange corrections are
 #          switched off.
 #          Phase shifts are calculated for the bare nucleus.
 #          Scattering amplitudes are not evaluated.
 #
 # Element: Fe,  Z =  26,  atomic weight = 5.58450E+01 g/mol
 #
 # Nuclear model: Fermi distribution
 #                Average radius = 4.08989E-13 cm
 #                Skin thickness = 5.46000E-14 cm
 #
 # Number of electrons = 26
 #
 # Total elastic cross section = 1.95965E-18 cm**2 = 6.99804E-02 a0**2
 # 1st transport cross section = 2.22355E-26 cm**2 = 7.94044E-10 a0**2
 # 2nd transport cross section = 6.65733E-26 cm**2 = 2.37738E-09 a0**2
 #
 #
 # Differential cross section:                       MU=(1-COS(THETA))/2
 #
 #  THETA        MU          DCS          DCS        Sherman      error
 #  (deg)                 (cm**2/sr)   (a0**2/sr)    function
 #----------------------------------------------------------------------
0.00000E+00 1.22118E-09
7.61557E-13 1.19863E-09
1.18994E-12 1.18624E-09
1.71346E-12 1.17138E-09
2.33225E-12 1.15421E-09
3.04617E-12 1.13490E-09
3.85530E-12 1.11360E-09
4.75964E-12 1.09053E-09
5.75917E-12 1.06608E-09
6.85391E-12 1.04011E-09
8.04379E-12 1.01325E-09
9.32893E-12 9.85304E-10
1.07092E-11 9.56840E-10
1.21847E-11 9.27779E-10
1.37554E-11 8.98491E-10
1.54213E-11 8.69069E-10
1.71823E-11 8.39651E-10
1.90386E-11 8.10505E-10
2.09900E-11 7.81536E-10
2.30367E-11 7.53179E-10
2.51785E-11 7.25123E-10
2.74156E-11 6.97893E-10
2.97478E-11 6.71138E-10
3.21752E-11 6.45276E-10
3.46979E-11 6.20089E-10
3.73157E-11 5.95780E-10
4.00286E-11 5.72285E-10
4.28368E-11 5.49631E-10
4.57402E-11 5.27875E-10
4.87388E-11 5.06909E-10
5.18325E-11 4.86879E-10
5.50215E-11 4.67581E-10
5.83057E-11 4.49213E-10
6.16850E-11 4.31536E-10
6.51595E-11 4.14723E-10
6.87293E-11 3.98605E-10
7.23943E-11 3.83256E-10
7.61544E-11 3.68588E-10
1.18991E-10 2.54484E-10
1.71347E-10 1.82478E-10
2.33223E-10 1.35203E-10
3.04617E-10 1.02615E-10
3.85531E-10 7.88144E-11
4.75965E-10 6.11317E-11
5.75917E-10 4.89072E-11
6.85389E-10 3.85321E-11
8.04380E-10 3.11379E-11
9.32891E-10 2.49902E-11
1.07092E-09 2.03537E-11
1.21847E-09 1.66131E-11
1.37554E-09 1.36650E-11
1.54213E-09 1.13183E-11
1.71823E-09 9.41916E-12
1.90386E-09 7.90698E-12
2.09900E-09 6.66387E-12
2.30367E-09 5.66509E-12
2.51785E-09 4.83548E-12
2.74156E-09 4.15905E-12
2.97478E-09 3.59413E-12
3.21752E-09 3.12550E-12
3.46978E-09 2.73161E-12
3.73156E-09 2.39985E-12
4.00286E-09 2.11841E-12
4.28368E-09 1.87831E-12
4.57402E-09 1.67266E-12
4.87388E-09 1.49512E-12
5.18326E-09 1.34174E-12
5.50215E-09 1.20776E-12
5.83057E-09 1.09115E-12
6.16850E-09 9.88210E-13
6.51596E-09 8.97871E-13
6.87293E-09 8.17601E-13
7.23942E-09 7.46499E-13
7.61544E-09 6.83011E-13
1.18991E-08 3.09507E-13
1.71347E-08 1.58847E-13
2.33223E-08 8.88689E-14
3.04617E-08 5.32069E-14
3.85531E-08 3.36686E-14
4.75965E-08 2.23204E-14
5.75917E-08 1.53779E-14
6.85389E-08 1.09424E-14
8.04380E-08 8.00145E-15
9.32891E-08 5.98861E-15
1.07092E-07 4.57229E-15
1.21847E-07 3.55202E-15
1.37554E-07 2.80169E-15
1.54213E-07 2.23971E-15
1.71823E-07 1.81196E-15
1.90386E-07 1.48166E-15
2.09900E-07 1.22330E-15
2.30367E-07 1.01881E-15
2.51785E-07 8.55275E-16
2.74156E-07 7.23240E-16
2.97478E-07 6.15698E-16
3.21752E-07 5.27393E-16
3.46978E-07 4.54342E-16
3.73156E-07 3.93492E-16
4.00286E-07 3.42474E-16
4.28368E-07 2.99447E-16
4.57402E-07 2.62958E-16
4.87388E-07 2.31853E-16
5.18325E-07 2.05207E-16
5.50215E-07 1.82274E-16
5.83057E-07 1.62452E-16
6.16850E-07 1.45248E-16
6.51596E-07 1.30258E-16
6.87293E-07 1.17151E-16
7.23942E-07 1.05649E-16
7.61543E-07 9.55224E-17
1.18991E-06 3.92548E-17
1.71347E-06 1.89589E-17
2.33223E-06 1.02411E-17
3.04617E-06 6.00539E-18
3.85531E-06 3.74985E-18
4.75964E-06 2.46049E-18
5.75916E-06 1.68058E-18
6.85388E-06 1.18659E-18
8.04378E-06 8.61455E-19
9.32888E-06 6.40425E-19
1.07092E-05 4.85942E-19
1.21846E-05 3.75349E-19
1.37553E-05 2.94497E-19
1.54212E-05 2.34287E-19
1.71822E-05 1.88704E-19
1.90385E-05 1.53680E-19
2.09899E-05 1.26432E-19
2.30365E-05 1.04960E-19
2.51783E-05 8.78530E-20
2.74153E-05 7.40902E-20
2.97475E-05 6.29182E-20
3.21749E-05 5.37746E-20
3.46974E-05 4.62337E-20
3.73152E-05 3.99702E-20
4.00281E-05 3.47329E-20
4.28362E-05 3.03260E-20
4.57395E-05 2.65960E-20
4.87380E-05 2.34219E-20
5.18317E-05 2.07069E-20
5.50205E-05 1.83739E-20
5.83045E-05 1.63602E-20
6.16838E-05 1.46149E-20
6.51582E-05 1.30963E-20
6.87277E-05 1.17700E-20
7.23925E-05 1.06074E-20
7.61524E-05 9.57795E-21
9.21439E-05 6.53745E-21
1.09658E-04 4.61256E-21
1.28695E-04 3.34639E-21
1.49255E-04 2.48595E-21
1.71338E-04 1.88490E-21
1.94942E-04 1.45478E-21
2.20070E-04 1.14049E-21
2.46720E-04 9.06554E-22
2.74892E-04 7.29533E-22
3.04586E-04 5.93611E-22
3.35803E-04 4.87850E-22
3.68542E-04 4.04575E-22
4.02802E-04 3.38289E-22
4.38585E-04 2.85000E-22
4.75889E-04 2.41771E-22
5.14715E-04 2.06408E-22
5.55063E-04 1.77257E-22
5.96931E-04 1.53054E-22
6.40321E-04 1.32827E-22
6.85233E-04 1.15819E-22
7.31665E-04 1.01434E-22
7.79618E-04 8.92029E-23
8.29092E-04 7.87504E-23
8.80086E-04 6.97757E-23
9.32601E-04 6.20356E-23
9.86636E-04 5.53323E-23
1.04219E-03 4.95038E-23
1.09927E-03 4.44170E-23
1.15786E-03 3.99618E-23
1.21797E-03 3.60466E-23
1.27961E-03 3.25951E-23
1.34276E-03 2.95430E-23
1.40743E-03 2.68363E-23
1.47362E-03 2.44295E-23
1.54133E-03 2.22835E-23
1.61056E-03 2.03653E-23
1.68131E-03 1.86467E-23
1.75357E-03 1.71034E-23
1.82735E-03 1.57143E-23
1.90265E-03 1.44616E-23
1.97947E-03 1.33294E-23
2.05780E-03 1.23043E-23
2.13765E-03 1.13743E-23
2.21902E-03 1.05291E-23
2.30190E-03 9.75973E-24
2.38630E-03 9.05814E-24
2.47222E-03 8.41734E-24
2.55965E-03 7.83118E-24
2.64859E-03 7.29418E-24
2.73905E-03 6.80153E-24
2.83103E-03 6.34892E-24
2.92452E-03 5.93256E-24
3.01952E-03 5.54902E-24
3.11604E-03 5.19529E-24
3.21407E-03 4.86865E-24
3.31362E-03 4.56667E-24
3.41468E-03 4.28717E-24
3.51725E-03 4.02819E-24
3.62133E-03 3.78796E-24
3.72692E-03 3.56490E-24
3.83403E-03 3.35757E-24
3.94265E-03 3.16467E-24
4.05278E-03 2.98502E-24
4.16442E-03 2.81756E-24
4.27757E-03 2.66132E-24
4.39223E-03 2.51543E-24
4.50840E-03 2.37907E-24
4.62608E-03 2.25153E-24
4.74527E-03 2.13213E-24
4.86597E-03 2.02027E-24
4.98817E-03 1.91540E-24
5.11188E-03 1.81699E-24
5.23711E-03 1.72459E-24
5.36383E-03 1.63777E-24
5.49207E-03 1.55613E-24
5.62181E-03 1.47932E-24
5.75306E-03 1.40699E-24
5.88581E-03 1.33885E-24
6.02007E-03 1.27462E-24
6.15583E-03 1.21402E-24
6.29310E-03 1.15683E-24
6.43187E-03 1.10281E-24
6.57214E-03 1.05177E-24
6.71392E-03 1.00351E-24
6.85720E-03 9.57851E-25
7.00198E-03 9.14638E-25
7.14827E-03 8.73715E-25
7.29605E-03 8.34941E-25
7.44534E-03 7.98185E-25
7.59612E-03 7.63325E-25
7.97965E-03 6.83743E-25
8.37255E-03 6.13747E-25
8.77480E-03 5.52016E-25
9.18641E-03 4.97431E-25
9.60736E-03 4.49046E-25
1.00376E-02 4.06056E-25
1.04773E-02 3.67775E-25
1.09262E-02 3.33614E-25
1.13844E-02 3.03067E-25
1.18520E-02 2.75699E-25
1.23288E-02 2.51134E-25
1.28150E-02 2.29046E-25
1.33104E-02 2.09151E-25
1.38150E-02 1.91202E-25
1.43290E-02 1.74985E-25
1.48521E-02 1.60310E-25
1.53845E-02 1.47011E-25
1.59262E-02 1.34943E-25
1.64770E-02 1.23979E-25
1.70371E-02 1.14003E-25
1.76063E-02 1.04917E-25
1.81848E-02 9.66319E-26
1.87724E-02 8.90678E-26
1.93692E-02 8.21550E-26
1.99751E-02 7.58309E-26
2.05901E-02 7.00398E-26
2.12143E-02 6.47316E-26
2.18476E-02 5.98617E-26
2.24900E-02 5.53900E-26
2.31415E-02 5.12805E-26
2.38021E-02 4.75007E-26
2.44717E-02 4.40216E-26
2.51504E-02 4.08167E-26
2.58382E-02 3.78624E-26
2.65349E-02 3.51372E-26
2.72407E-02 3.26217E-26
2.79555E-02 3.02982E-26
2.86793E-02 2.81507E-26
2.94120E-02 2.61648E-26
3.01537E-02 2.43273E-26
3.09043E-02 2.26261E-26
3.16639E-02 2.10503E-26
3.24324E-02 1.95899E-26
3.32098E-02 1.82358E-26
3.39961E-02 1.69797E-26
3.47912E-02 1.58141E-26
3.55952E-02 1.47318E-26
3.64081E-02 1.37266E-26
3.72297E-02 1.27925E-26
3.80602E-02 1.19243E-26
3.88995E-02 1.11170E-26
3.97476E-02 1.03661E-26
4.06044E-02 9.66733E-27
4.14700E-02 9.01696E-27
4.23443E-02 8.41144E-27
4.32273E-02 7.84751E-27
4.41190E-02 7.32217E-27
4.50194E-02 6.83266E-27
4.59284E-02 6.37642E-27
4.68461E-02 5.95110E-27
4.87074E-02 5.18464E-27
5.06030E-02 4.51772E-27
5.25328E-02 3.93700E-27
5.44967E-02 3.43104E-27
5.64946E-02 2.98997E-27
5.85262E-02 2.60532E-27
6.05914E-02 2.26973E-27
6.26901E-02 1.97688E-27
6.48222E-02 1.72127E-27
6.69873E-02 1.49813E-27
6.91854E-02 1.30333E-27
7.14163E-02 1.13327E-27
7.36799E-02 9.84826E-28
7.59760E-02 8.55272E-28
7.83043E-02 7.42229E-28
8.06647E-02 6.43623E-28
8.30571E-02 5.57642E-28
8.54812E-02 4.82702E-28
8.79369E-02 4.17420E-28
9.04240E-02 3.60585E-28
9.29422E-02 3.11135E-28
9.54915E-02 2.68144E-28
9.80716E-02 2.30796E-28
1.00682E-01 1.98382E-28
1.03323E-01 1.70275E-28
1.05995E-01 1.45930E-28
1.08696E-01 1.24866E-28
1.11427E-01 1.06665E-28
1.14188E-01 9.09571E-29
1.16978E-01 7.74211E-29
1.19797E-01 6.57743E-29
1.22645E-01 5.57696E-29
1.25522E-01 4.71907E-29
1.28428E-01 3.98482E-29
1.31361E-01 3.35769E-29
1.34323E-01 2.82321E-29
1.37313E-01 2.36878E-29
1.40330E-01 1.98336E-29
1.43375E-01 1.65738E-29
1.46447E-01 1.38248E-29
1.49545E-01 1.15138E-29
1.52671E-01 9.57763E-30
1.55823E-01 7.96159E-30
1.59001E-01 6.61813E-30
1.62205E-01 5.50615E-30
1.65435E-01 4.59015E-30
1.68690E-01 3.83951E-30
1.71970E-01 3.22788E-30
1.75276E-01 2.73265E-30
1.78606E-01 2.33440E-30
1.81961E-01 2.01658E-30
1.85340E-01 1.76506E-30
1.88743E-01 1.56784E-30
1.92169E-01 1.41475E-30
1.95619E-01 1.29722E-30
1.99092E-01 1.20805E-30
2.02589E-01 1.14122E-30
2.06107E-01 1.09170E-30
2.09649E-01 1.05537E-30
2.13212E-01 1.02882E-30
2.16797E-01 1.00929E-30
2.20404E-01 9.94526E-31
2.24032E-01 9.82764E-31
2.27680E-01 9.72602E-31
2.31350E-01 9.62959E-31
2.35040E-01 9.53022E-31
2.38751E-01 9.42197E-31
2.42481E-01 9.30070E-31
2.46231E-01 9.16375E-31
2.50000E-01 9.00966E-31
2.53788E-01 8.83789E-31
2.57595E-01 8.64865E-31
2.61421E-01 8.44270E-31
2.65264E-01 8.22125E-31
2.69126E-01 7.98578E-31
2.73005E-01 7.73800E-31
2.76901E-01 7.47971E-31
2.80814E-01 7.21280E-31
2.84744E-01 6.93914E-31
2.88691E-01 6.66057E-31
2.92653E-01 6.37886E-31
2.96632E-01 6.09570E-31
3.00625E-01 5.81265E-31
3.04634E-01 5.53115E-31
3.08658E-01 5.25253E-31
3.12697E-01 4.97797E-31
3.16749E-01 4.70852E-31
3.20816E-01 4.44511E-31
3.24896E-01 4.18853E-31
3.28990E-01 3.93945E-31
3.33097E-01 3.69845E-31
3.37216E-01 3.46595E-31
3.41348E-01 3.24232E-31
3.45492E-01 3.02782E-31
3.49647E-01 2.82260E-31
3.53814E-01 2.62678E-31
3.57992E-01 2.44038E-31
3.62181E-01 2.26336E-31
3.66381E-01 2.09564E-31
3.70590E-01 1.93707E-31
3.74810E-01 1.78748E-31
3.79039E-01 1.64665E-31
3.83277E-01 1.51435E-31
3.87524E-01 1.39030E-31
3.91780E-01 1.27423E-31
3.96044E-01 1.16582E-31
4.00316E-01 1.06476E-31
4.04596E-01 9.70746E-32
4.08882E-01 8.83437E-32
4.13176E-01 8.02511E-32
4.17476E-01 7.27640E-32
4.21783E-01 6.58501E-32
4.26095E-01 5.94774E-32
4.30413E-01 5.36147E-32
4.34737E-01 4.82313E-32
4.39065E-01 4.32976E-32
4.43398E-01 3.87848E-32
4.47736E-01 3.46652E-32
4.52077E-01 3.09121E-32
4.56422E-01 2.75000E-32
4.60770E-01 2.44045E-32
4.65122E-01 2.16024E-32
4.69476E-01 1.90716E-32
4.73832E-01 1.67912E-32
4.78190E-01 1.47414E-32
4.82550E-01 1.29037E-32
4.86912E-01 1.12606E-32
4.91274E-01 9.79548E-33
4.95637E-01 8.49310E-33
5.00000E-01 7.33903E-33
5.04363E-01 6.31989E-33
5.08726E-01 5.42319E-33
5.13088E-01 4.63736E-33
5.17450E-01 3.95166E-33
5.21810E-01 3.35618E-33
5.26168E-01 2.84176E-33
5.30524E-01 2.39998E-33
5.34878E-01 2.02307E-33
5.39230E-01 1.70395E-33
5.43578E-01 1.43611E-33
5.47923E-01 1.21362E-33
5.52264E-01 1.03106E-33
5.56602E-01 8.83524E-34
5.60935E-01 7.66554E-34
5.65263E-01 6.76123E-34
5.69587E-01 6.08587E-34
5.73905E-01 5.60680E-34
5.78217E-01 5.29463E-34
5.82524E-01 5.12312E-34
5.86824E-01 5.06883E-34
5.91118E-01 5.11097E-34
5.95404E-01 5.23114E-34
5.99684E-01 5.41306E-34
6.03956E-01 5.64253E-34
6.08220E-01 5.90705E-34
6.12476E-01 6.19585E-34
6.16723E-01 6.49959E-34
6.20961E-01 6.81025E-34
6.25190E-01 7.12105E-34
6.29410E-01 7.42625E-34
6.33619E-01 7.72111E-34
6.37819E-01 8.00171E-34
6.42008E-01 8.26491E-34
6.46186E-01 8.50822E-34
6.50353E-01 8.72980E-34
6.54508E-01 8.92826E-34
6.58652E-01 9.10271E-34
6.62784E-01 9.25263E-34
6.66903E-01 9.37785E-34
6.71010E-01 9.47848E-34
6.75104E-01 9.55487E-34
6.79184E-01 9.60762E-34
6.83251E-01 9.63741E-34
6.87303E-01 9.64516E-34
6.91342E-01 9.63183E-34
6.95366E-01 9.59849E-34
6.99375E-01 9.54628E-34
7.03368E-01 9.47636E-34
7.07347E-01 9.38995E-34
7.11309E-01 9.28826E-34
7.15256E-01 9.17251E-34
7.19186E-01 9.04391E-34
7.23099E-01 8.90362E-34
7.26995E-01 8.75283E-34
7.30874E-01 8.59266E-34
7.34736E-01 8.42419E-34
7.38579E-01 8.24850E-34
7.42405E-01 8.06654E-34
7.46212E-01 7.87929E-34
7.50000E-01 7.68767E-34
7.53769E-01 7.49251E-34
7.57519E-01 7.29461E-34
7.61249E-01 7.09473E-34
7.64960E-01 6.89358E-34
7.68650E-01 6.69180E-34
7.72320E-01 6.49000E-34
7.75968E-01 6.28873E-34
7.79596E-01 6.08851E-34
7.83203E-01 5.88977E-34
7.86788E-01 5.69299E-34
7.90351E-01 5.49851E-34
7.93893E-01 5.30668E-34
7.97411E-01 5.11780E-34
8.00908E-01 4.93217E-34
8.04381E-01 4.74999E-34
8.07831E-01 4.57150E-34
8.11257E-01 4.39684E-34
8.14660E-01 4.22620E-34
8.18039E-01 4.05966E-34
8.21394E-01 3.89735E-34
8.24724E-01 3.73935E-34
8.28030E-01 3.58572E-34
8.31310E-01 3.43648E-34
8.34565E-01 3.29166E-34
8.37795E-01 3.15128E-34
8.40999E-01 3.01532E-34
8.44177E-01 2.88376E-34
8.47329E-01 2.75657E-34
8.50455E-01 2.63372E-34
8.53553E-01 2.51514E-34
8.56625E-01 2.40078E-34
8.59670E-01 2.29057E-34
8.62687E-01 2.18444E-34
8.65677E-01 2.08229E-34
8.68639E-01 1.98407E-34
8.71572E-01 1.88967E-34
8.74478E-01 1.79900E-34
8.77355E-01 1.71197E-34
8.80203E-01 1.62849E-34
8.83022E-01 1.54844E-34
8.85812E-01 1.47174E-34
8.88573E-01 1.39829E-34
8.91304E-01 1.32798E-34
8.94005E-01 1.26072E-34
8.96677E-01 1.19640E-34
8.99318E-01 1.13493E-34
9.01928E-01 1.07620E-34
9.04508E-01 1.02012E-34
9.07058E-01 9.66597E-35
9.09576E-01 9.15541E-35
9.12063E-01 8.66849E-35
9.14519E-01 8.20438E-35
9.16943E-01 7.76205E-35
9.19335E-01 7.34083E-35
9.21696E-01 6.93976E-35
9.24024E-01 6.55807E-35
9.26320E-01 6.19493E-35
9.28584E-01 5.84948E-35
9.30815E-01 5.52114E-35
9.33013E-01 5.20903E-35
9.35178E-01 4.91257E-35
9.37310E-01 4.63100E-35
9.39409E-01 4.36365E-35
9.41474E-01 4.10997E-35
9.43505E-01 3.86916E-35
9.45503E-01 3.64077E-35
9.47467E-01 3.42425E-35
9.49397E-01 3.21895E-35
9.51293E-01 3.02436E-35
9.53154E-01 2.84006E-35
9.54981E-01 2.66551E-35
9.56773E-01 2.50027E-35
9.58530E-01 2.34385E-35
9.60252E-01 2.19581E-35
9.61940E-01 2.05579E-35
9.63592E-01 1.92330E-35
9.65209E-01 1.79807E-35
9.66790E-01 1.67975E-35
9.68336E-01 1.56791E-35
9.69846E-01 1.46226E-35
9.71321E-01 1.36253E-35
9.72759E-01 1.26837E-35
9.74162E-01 1.17954E-35
9.75528E-01 1.09572E-35
9.76858E-01 1.01666E-35
9.78152E-01 9.42173E-36
9.79410E-01 8.71998E-36
9.80631E-01 8.05855E-36
9.81815E-01 7.43617E-36
9.82963E-01 6.85082E-36
9.84074E-01 6.29973E-36
9.85148E-01 5.78247E-36
9.86185E-01 5.29657E-36
9.87185E-01 4.84009E-36
9.88148E-01 4.41229E-36
9.89074E-01 4.01109E-36
9.89962E-01 3.63593E-36
9.90814E-01 3.28486E-36
9.91627E-01 2.95706E-36
9.92404E-01 2.65111E-36
9.93143E-01 2.36630E-36
9.93844E-01 2.10147E-36
9.94508E-01 1.85593E-36
9.95134E-01 1.62853E-36
9.95722E-01 1.41851E-36
9.96273E-01 1.22576E-36
9.96786E-01 1.04869E-36
9.97261E-01 8.87201E-37
9.97698E-01 7.40666E-37
9.98097E-01 6.08782E-37
9.98459E-01 4.90660E-37
9.98782E-01 3.85935E-37
9.99067E-01 2.94487E-37
9.99315E-01 2.15906E-37
9.99524E-01 1.49924E-37
9.99695E-01 9.61740E-38
9.99829E-01 5.46673E-38
9.99924E-01 2.50392E-38
9.99981E-01 7.32343E-39
1.00000E+00 1.36943E-39
