 #
 # Subroutine ELSEPA. Elastic scattering of electrons and positrons
 #                    by neutral atoms and positive ions
 #
 # Projectile: positron
 # Kinetic energy = 4.50000E+06 eV = 1.65372E+05 a.u.
 #
 # WARNING: High-energy factorization with free-atom DF screening.
 #          Absorption, polarization and exchange corrections are
 #          switched off.
 #          Phase shifts are calculated for the bare nucleus.
 #          Scattering amplitudes are not evaluated.
 #
 # Element: Fe,  Z =  26,  atomic weight = 5.58450E+01 g/mol
 #
 # Nuclear model: Fermi distribution
 #                Average radius = 4.08989E-13 cm
 #                Skin thickness = 5.46000E-14 cm
 #
 # Number of electrons = 26
 #
 # Total elastic cross section = 1.97724E-18 cm**2 = 7.06087E-02 a0**2
 # 1st transport cross section = 3.79808E-23 cm**2 = 1.35632E-06 a0**2
 # 2nd transport cross section = 1.09300E-22 cm**2 = 3.90316E-06 a0**2
 #
 #
 # Differential cross section:                       MU=(1-COS(THETA))/2
 #
 #  THETA        MU          DCS          DCS        Sherman      error
 #  (deg)                 (cm**2/sr)   (a0**2/sr)    function
 #----------------------------------------------------------------------
0.00000E+00 4.88624E-13
7.61557E-13 4.88620E-13
1.18994E-12 4.88617E-13
1.71346E-12 4.88615E-13
2.33225E-12 4.88612E-13
3.04617E-12 4.88608E-13
3.85530E-12 4.88604E-13
4.75964E-12 4.88600E-13
5.75917E-12 4.88595E-13
6.85391E-12 4.88590E-13
8.04379E-12 4.88584E-13
9.32893E-12 4.88578E-13
1.07092E-11 4.88571E-13
1.21847E-11 4.88564E-13
1.37554E-11 4.88556E-13
1.54213E-11 4.88548E-13
1.71823E-11 4.88540E-13
1.90386E-11 4.88531E-13
2.09900E-11 4.88521E-13
2.30367E-11 4.88512E-13
2.51785E-11 4.88501E-13
2.74156E-11 4.88491E-13
2.97478E-11 4.88479E-13
3.21752E-11 4.88468E-13
3.46979E-11 4.88456E-13
3.73157E-11 4.88443E-13
4.00286E-11 4.88430E-13
4.28368E-11 4.88417E-13
4.57402E-11 4.88403E-13
4.87388E-11 4.88388E-13
5.18325E-11 4.88374E-13
5.50215E-11 4.88358E-13
5.83057E-11 4.88343E-13
6.16850E-11 4.88326E-13
6.51595E-11 4.88310E-13
6.87293E-11 4.88293E-13
7.23943E-11 4.88275E-13
7.61544E-11 4.88257E-13
1.18991E-10 4.88053E-13
1.71347E-10 4.87803E-13
2.33223E-10 4.87509E-13
3.04617E-10 4.87169E-13
3.85531E-10 4.86785E-13
4.75965E-10 4.86357E-13
5.75917E-10 4.85884E-13
6.85389E-10 4.85368E-13
8.04380E-10 4.84807E-13
9.32891E-10 4.84203E-13
1.07092E-09 4.83555E-13
1.21847E-09 4.82865E-13
1.37554E-09 4.82132E-13
1.54213E-09 4.81356E-13
1.71823E-09 4.80538E-13
1.90386E-09 4.79679E-13
2.09900E-09 4.78778E-13
2.30367E-09 4.77836E-13
2.51785E-09 4.76854E-13
2.74156E-09 4.75831E-13
2.97478E-09 4.74769E-13
3.21752E-09 4.73667E-13
3.46978E-09 4.72527E-13
3.73156E-09 4.71348E-13
4.00286E-09 4.70132E-13
4.28368E-09 4.68878E-13
4.57402E-09 4.67587E-13
4.87388E-09 4.66261E-13
5.18326E-09 4.64898E-13
5.50215E-09 4.63500E-13
5.83057E-09 4.62068E-13
6.16850E-09 4.60602E-13
6.51596E-09 4.59102E-13
6.87293E-09 4.57569E-13
7.23942E-09 4.56004E-13
7.61544E-09 4.54408E-13
1.18991E-08 4.36805E-13
1.71347E-08 4.16789E-13
2.33223E-08 3.95014E-13
3.04617E-08 3.72142E-13
3.85531E-08 3.48779E-13
4.75965E-08 3.25452E-13
5.75917E-08 3.02593E-13
6.85389E-08 2.80510E-13
8.04380E-08 2.59492E-13
9.32891E-08 2.39702E-13
1.07092E-07 2.21233E-13
1.21847E-07 2.04121E-13
1.37554E-07 1.88356E-13
1.54213E-07 1.73895E-13
1.71823E-07 1.60675E-13
1.90386E-07 1.48616E-13
2.09900E-07 1.37634E-13
2.30367E-07 1.27639E-13
2.51785E-07 1.18535E-13
2.74156E-07 1.10250E-13
2.97478E-07 1.02703E-13
3.21752E-07 9.58215E-14
3.46978E-07 8.95377E-14
3.73156E-07 8.37908E-14
4.00286E-07 7.85257E-14
4.28368E-07 7.36932E-14
4.57402E-07 6.92493E-14
4.87388E-07 6.51548E-14
5.18325E-07 6.13733E-14
5.50215E-07 5.78706E-14
5.83057E-07 5.46247E-14
6.16850E-07 5.16113E-14
6.51596E-07 4.88088E-14
6.87293E-07 4.61981E-14
7.23942E-07 4.37621E-14
7.61543E-07 4.14857E-14
1.18991E-06 2.47420E-14
1.71347E-06 1.56200E-14
2.33223E-06 1.01449E-14
3.04617E-06 6.75157E-15
3.85531E-06 4.60317E-15
4.75964E-06 3.21713E-15
5.75916E-06 2.30518E-15
6.85388E-06 1.69193E-15
8.04378E-06 1.27148E-15
9.32888E-06 9.76164E-16
1.07092E-05 7.63890E-16
1.21846E-05 6.07940E-16
1.37553E-05 4.91017E-16
1.54212E-05 4.01704E-16
1.71822E-05 3.32321E-16
1.90385E-05 2.77588E-16
2.09899E-05 2.33870E-16
2.30365E-05 1.98495E-16
2.51783E-05 1.69517E-16
2.74153E-05 1.45623E-16
2.97475E-05 1.25766E-16
3.21749E-05 1.09148E-16
3.46974E-05 9.51523E-17
3.73152E-05 8.32962E-17
4.00281E-05 7.31987E-17
4.28362E-05 6.45566E-17
4.57395E-05 5.71271E-17
4.87380E-05 5.07142E-17
5.18317E-05 4.51573E-17
5.50205E-05 4.03244E-17
5.83045E-05 3.61108E-17
6.16838E-05 3.24256E-17
6.51582E-05 2.91926E-17
6.87277E-05 2.63479E-17
7.23925E-05 2.38374E-17
7.61524E-05 2.16157E-17
9.21439E-05 1.49286E-17
1.09658E-04 1.06288E-17
1.28695E-04 7.77132E-18
1.49255E-04 5.81355E-18
1.71338E-04 4.43676E-18
1.94942E-04 3.44552E-18
2.20070E-04 2.71709E-18
2.46720E-04 2.17195E-18
2.74892E-04 1.75725E-18
3.04586E-04 1.43718E-18
3.35803E-04 1.18689E-18
3.68542E-04 9.88832E-19
4.02802E-04 8.30407E-19
4.38585E-04 7.02472E-19
4.75889E-04 5.98243E-19
5.14715E-04 5.12629E-19
5.55063E-04 4.41777E-19
5.96931E-04 3.82734E-19
6.40321E-04 3.33214E-19
6.85233E-04 2.91432E-19
7.31665E-04 2.55983E-19
7.79618E-04 2.25750E-19
8.29092E-04 1.99838E-19
8.80086E-04 1.77527E-19
9.32601E-04 1.58235E-19
9.86636E-04 1.41487E-19
1.04219E-03 1.26890E-19
1.09927E-03 1.14122E-19
1.15786E-03 1.02916E-19
1.21797E-03 9.30473E-20
1.27961E-03 8.43301E-20
1.34276E-03 7.66071E-20
1.40743E-03 6.97454E-20
1.47362E-03 6.36325E-20
1.54133E-03 5.81725E-20
1.61056E-03 5.32839E-20
1.68131E-03 4.88966E-20
1.75357E-03 4.49503E-20
1.82735E-03 4.13929E-20
1.90265E-03 3.81795E-20
1.97947E-03 3.52710E-20
2.05780E-03 3.26334E-20
2.13765E-03 3.02370E-20
2.21902E-03 2.80559E-20
2.30190E-03 2.60673E-20
2.38630E-03 2.42513E-20
2.47222E-03 2.25902E-20
2.55965E-03 2.10684E-20
2.64859E-03 1.96723E-20
2.73905E-03 1.83896E-20
2.83103E-03 1.72094E-20
2.92452E-03 1.61221E-20
3.01952E-03 1.51190E-20
3.11604E-03 1.41925E-20
3.21407E-03 1.33357E-20
3.31362E-03 1.25424E-20
3.41468E-03 1.18070E-20
3.51725E-03 1.11245E-20
3.62133E-03 1.04905E-20
3.72692E-03 9.90089E-21
3.83403E-03 9.35199E-21
3.94265E-03 8.84047E-21
4.05278E-03 8.36335E-21
4.16442E-03 7.91787E-21
4.27757E-03 7.50157E-21
4.39223E-03 7.11218E-21
4.50840E-03 6.74765E-21
4.62608E-03 6.40610E-21
4.74527E-03 6.08581E-21
4.86597E-03 5.78523E-21
4.98817E-03 5.50291E-21
5.11188E-03 5.23755E-21
5.23711E-03 4.98793E-21
5.36383E-03 4.75296E-21
5.49207E-03 4.53162E-21
5.62181E-03 4.32297E-21
5.75306E-03 4.12614E-21
5.88581E-03 3.94035E-21
6.02007E-03 3.76487E-21
6.15583E-03 3.59901E-21
6.29310E-03 3.44215E-21
6.43187E-03 3.29371E-21
6.57214E-03 3.15316E-21
6.71392E-03 3.02000E-21
6.85720E-03 2.89377E-21
7.00198E-03 2.77404E-21
7.14827E-03 2.66041E-21
7.29605E-03 2.55252E-21
7.44534E-03 2.45003E-21
7.59612E-03 2.35260E-21
7.97965E-03 2.12934E-21
8.37255E-03 1.93185E-21
8.77480E-03 1.75664E-21
9.18641E-03 1.60078E-21
9.60736E-03 1.46176E-21
1.00376E-02 1.33745E-21
1.04773E-02 1.22602E-21
1.09262E-02 1.12591E-21
1.13844E-02 1.03577E-21
1.18520E-02 9.54440E-22
1.23288E-02 8.80899E-22
1.28150E-02 8.14274E-22
1.33104E-02 7.53802E-22
1.38150E-02 6.98815E-22
1.43290E-02 6.48728E-22
1.48521E-02 6.03027E-22
1.53845E-02 5.61261E-22
1.59262E-02 5.23031E-22
1.64770E-02 4.87984E-22
1.70371E-02 4.55809E-22
1.76063E-02 4.26229E-22
1.81848E-02 3.98997E-22
1.87724E-02 3.73894E-22
1.93692E-02 3.50723E-22
1.99751E-02 3.29310E-22
2.05901E-02 3.09496E-22
2.12143E-02 2.91142E-22
2.18476E-02 2.74121E-22
2.24900E-02 2.58318E-22
2.31415E-02 2.43630E-22
2.38021E-02 2.29966E-22
2.44717E-02 2.17240E-22
2.51504E-02 2.05376E-22
2.58382E-02 1.94306E-22
2.65349E-02 1.83967E-22
2.72407E-02 1.74303E-22
2.79555E-02 1.65260E-22
2.86793E-02 1.56792E-22
2.94120E-02 1.48856E-22
3.01537E-02 1.41412E-22
3.09043E-02 1.34424E-22
3.16639E-02 1.27860E-22
3.24324E-02 1.21688E-22
3.32098E-02 1.15881E-22
3.39961E-02 1.10415E-22
3.47912E-02 1.05264E-22
3.55952E-02 1.00408E-22
3.64081E-02 9.58259E-23
3.72297E-02 9.15006E-23
3.80602E-02 8.74145E-23
3.88995E-02 8.35522E-23
3.97476E-02 7.98991E-23
4.06044E-02 7.64417E-23
4.14700E-02 7.31678E-23
4.23443E-02 7.00658E-23
4.32273E-02 6.71250E-23
4.41190E-02 6.43355E-23
4.50194E-02 6.16881E-23
4.59284E-02 5.91743E-23
4.68461E-02 5.67860E-23
4.87074E-02 5.23570E-23
5.06030E-02 4.83476E-23
5.25328E-02 4.47113E-23
5.44967E-02 4.14072E-23
5.64946E-02 3.83998E-23
5.85262E-02 3.56579E-23
6.05914E-02 3.31539E-23
6.26901E-02 3.08636E-23
6.48222E-02 2.87655E-23
6.69873E-02 2.68408E-23
6.91854E-02 2.50727E-23
7.14163E-02 2.34461E-23
7.36799E-02 2.19477E-23
7.59760E-02 2.05658E-23
7.83043E-02 1.92895E-23
8.06647E-02 1.81096E-23
8.30571E-02 1.70173E-23
8.54812E-02 1.60051E-23
8.79369E-02 1.50660E-23
9.04240E-02 1.41939E-23
9.29422E-02 1.33831E-23
9.54915E-02 1.26285E-23
9.80716E-02 1.19256E-23
1.00682E-01 1.12702E-23
1.03323E-01 1.06586E-23
1.05995E-01 1.00872E-23
1.08696E-01 9.55305E-24
1.11427E-01 9.05319E-24
1.14188E-01 8.58506E-24
1.16978E-01 8.14630E-24
1.19797E-01 7.73474E-24
1.22645E-01 7.34838E-24
1.25522E-01 6.98542E-24
1.28428E-01 6.64419E-24
1.31361E-01 6.32316E-24
1.34323E-01 6.02092E-24
1.37313E-01 5.73617E-24
1.40330E-01 5.46773E-24
1.43375E-01 5.21449E-24
1.46447E-01 4.97545E-24
1.49545E-01 4.74966E-24
1.52671E-01 4.53627E-24
1.55823E-01 4.33446E-24
1.59001E-01 4.14351E-24
1.62205E-01 3.96272E-24
1.65435E-01 3.79146E-24
1.68690E-01 3.62913E-24
1.71970E-01 3.47519E-24
1.75276E-01 3.32913E-24
1.78606E-01 3.19047E-24
1.81961E-01 3.05878E-24
1.85340E-01 2.93363E-24
1.88743E-01 2.81465E-24
1.92169E-01 2.70149E-24
1.95619E-01 2.59379E-24
1.99092E-01 2.49127E-24
2.02589E-01 2.39361E-24
2.06107E-01 2.30056E-24
2.09649E-01 2.21185E-24
2.13212E-01 2.12725E-24
2.16797E-01 2.04653E-24
2.20404E-01 1.96948E-24
2.24032E-01 1.89592E-24
2.27680E-01 1.82564E-24
2.31350E-01 1.75849E-24
2.35040E-01 1.69429E-24
2.38751E-01 1.63289E-24
2.42481E-01 1.57416E-24
2.46231E-01 1.51795E-24
2.50000E-01 1.46413E-24
2.53788E-01 1.41260E-24
2.57595E-01 1.36322E-24
2.61421E-01 1.31591E-24
2.65264E-01 1.27055E-24
2.69126E-01 1.22705E-24
2.73005E-01 1.18532E-24
2.76901E-01 1.14528E-24
2.80814E-01 1.10684E-24
2.84744E-01 1.06994E-24
2.88691E-01 1.03449E-24
2.92653E-01 1.00044E-24
2.96632E-01 9.67714E-25
3.00625E-01 9.36256E-25
3.04634E-01 9.06007E-25
3.08658E-01 8.76912E-25
3.12697E-01 8.48920E-25
3.16749E-01 8.21982E-25
3.20816E-01 7.96052E-25
3.24896E-01 7.71085E-25
3.28990E-01 7.47039E-25
3.33097E-01 7.23875E-25
3.37216E-01 7.01554E-25
3.41348E-01 6.80040E-25
3.45492E-01 6.59300E-25
3.49647E-01 6.39300E-25
3.53814E-01 6.20011E-25
3.57992E-01 6.01401E-25
3.62181E-01 5.83444E-25
3.66381E-01 5.66112E-25
3.70590E-01 5.49380E-25
3.74810E-01 5.33223E-25
3.79039E-01 5.17619E-25
3.83277E-01 5.02545E-25
3.87524E-01 4.87981E-25
3.91780E-01 4.73905E-25
3.96044E-01 4.60300E-25
4.00316E-01 4.47146E-25
4.04596E-01 4.34426E-25
4.08882E-01 4.22123E-25
4.13176E-01 4.10222E-25
4.17476E-01 3.98707E-25
4.21783E-01 3.87563E-25
4.26095E-01 3.76776E-25
4.30413E-01 3.66334E-25
4.34737E-01 3.56222E-25
4.39065E-01 3.46430E-25
4.43398E-01 3.36945E-25
4.47736E-01 3.27756E-25
4.52077E-01 3.18852E-25
4.56422E-01 3.10223E-25
4.60770E-01 3.01859E-25
4.65122E-01 2.93751E-25
4.69476E-01 2.85888E-25
4.73832E-01 2.78264E-25
4.78190E-01 2.70869E-25
4.82550E-01 2.63695E-25
4.86912E-01 2.56735E-25
4.91274E-01 2.49981E-25
4.95637E-01 2.43427E-25
5.00000E-01 2.37064E-25
5.04363E-01 2.30887E-25
5.08726E-01 2.24890E-25
5.13088E-01 2.19066E-25
5.17450E-01 2.13409E-25
5.21810E-01 2.07915E-25
5.26168E-01 2.02577E-25
5.30524E-01 1.97391E-25
5.34878E-01 1.92351E-25
5.39230E-01 1.87452E-25
5.43578E-01 1.82691E-25
5.47923E-01 1.78062E-25
5.52264E-01 1.73561E-25
5.56602E-01 1.69185E-25
5.60935E-01 1.64929E-25
5.65263E-01 1.60790E-25
5.69587E-01 1.56763E-25
5.73905E-01 1.52845E-25
5.78217E-01 1.49033E-25
5.82524E-01 1.45324E-25
5.86824E-01 1.41714E-25
5.91118E-01 1.38200E-25
5.95404E-01 1.34780E-25
5.99684E-01 1.31449E-25
6.03956E-01 1.28207E-25
6.08220E-01 1.25050E-25
6.12476E-01 1.21975E-25
6.16723E-01 1.18980E-25
6.20961E-01 1.16063E-25
6.25190E-01 1.13221E-25
6.29410E-01 1.10452E-25
6.33619E-01 1.07754E-25
6.37819E-01 1.05125E-25
6.42008E-01 1.02562E-25
6.46186E-01 1.00065E-25
6.50353E-01 9.76307E-26
6.54508E-01 9.52575E-26
6.58652E-01 9.29438E-26
6.62784E-01 9.06879E-26
6.66903E-01 8.84881E-26
6.71010E-01 8.63428E-26
6.75104E-01 8.42504E-26
6.79184E-01 8.22096E-26
6.83251E-01 8.02189E-26
6.87303E-01 7.82769E-26
6.91342E-01 7.63821E-26
6.95366E-01 7.45334E-26
6.99375E-01 7.27295E-26
7.03368E-01 7.09691E-26
7.07347E-01 6.92511E-26
7.11309E-01 6.75743E-26
7.15256E-01 6.59376E-26
7.19186E-01 6.43400E-26
7.23099E-01 6.27803E-26
7.26995E-01 6.12576E-26
7.30874E-01 5.97709E-26
7.34736E-01 5.83192E-26
7.38579E-01 5.69017E-26
7.42405E-01 5.55174E-26
7.46212E-01 5.41655E-26
7.50000E-01 5.28451E-26
7.53769E-01 5.15555E-26
7.57519E-01 5.02958E-26
7.61249E-01 4.90652E-26
7.64960E-01 4.78631E-26
7.68650E-01 4.66886E-26
7.72320E-01 4.55412E-26
7.75968E-01 4.44201E-26
7.79596E-01 4.33247E-26
7.83203E-01 4.22543E-26
7.86788E-01 4.12083E-26
7.90351E-01 4.01861E-26
7.93893E-01 3.91872E-26
7.97411E-01 3.82108E-26
8.00908E-01 3.72566E-26
8.04381E-01 3.63240E-26
8.07831E-01 3.54124E-26
8.11257E-01 3.45214E-26
8.14660E-01 3.36504E-26
8.18039E-01 3.27990E-26
8.21394E-01 3.19667E-26
8.24724E-01 3.11530E-26
8.28030E-01 3.03576E-26
8.31310E-01 2.95800E-26
8.34565E-01 2.88198E-26
8.37795E-01 2.80766E-26
8.40999E-01 2.73499E-26
8.44177E-01 2.66395E-26
8.47329E-01 2.59449E-26
8.50455E-01 2.52658E-26
8.53553E-01 2.46019E-26
8.56625E-01 2.39527E-26
8.59670E-01 2.33180E-26
8.62687E-01 2.26975E-26
8.65677E-01 2.20908E-26
8.68639E-01 2.14977E-26
8.71572E-01 2.09178E-26
8.74478E-01 2.03509E-26
8.77355E-01 1.97966E-26
8.80203E-01 1.92547E-26
8.83022E-01 1.87250E-26
8.85812E-01 1.82072E-26
8.88573E-01 1.77010E-26
8.91304E-01 1.72062E-26
8.94005E-01 1.67226E-26
8.96677E-01 1.62499E-26
8.99318E-01 1.57879E-26
9.01928E-01 1.53364E-26
9.04508E-01 1.48951E-26
9.07058E-01 1.44640E-26
9.09576E-01 1.40427E-26
9.12063E-01 1.36311E-26
9.14519E-01 1.32290E-26
9.16943E-01 1.28361E-26
9.19335E-01 1.24524E-26
9.21696E-01 1.20777E-26
9.24024E-01 1.17118E-26
9.26320E-01 1.13544E-26
9.28584E-01 1.10055E-26
9.30815E-01 1.06650E-26
9.33013E-01 1.03325E-26
9.35178E-01 1.00081E-26
9.37310E-01 9.69155E-27
9.39409E-01 9.38272E-27
9.41474E-01 9.08147E-27
9.43505E-01 8.78767E-27
9.45503E-01 8.50121E-27
9.47467E-01 8.22194E-27
9.49397E-01 7.94977E-27
9.51293E-01 7.68455E-27
9.53154E-01 7.42620E-27
9.54981E-01 7.17458E-27
9.56773E-01 6.92961E-27
9.58530E-01 6.69116E-27
9.60252E-01 6.45915E-27
9.61940E-01 6.23347E-27
9.63592E-01 6.01403E-27
9.65209E-01 5.80073E-27
9.66790E-01 5.59350E-27
9.68336E-01 5.39224E-27
9.69846E-01 5.19686E-27
9.71321E-01 5.00730E-27
9.72759E-01 4.82346E-27
9.74162E-01 4.64528E-27
9.75528E-01 4.47268E-27
9.76858E-01 4.30559E-27
9.78152E-01 4.14394E-27
9.79410E-01 3.98767E-27
9.80631E-01 3.83670E-27
9.81815E-01 3.69099E-27
9.82963E-01 3.55048E-27
9.84074E-01 3.41509E-27
9.85148E-01 3.28479E-27
9.86185E-01 3.15952E-27
9.87185E-01 3.03922E-27
9.88148E-01 2.92386E-27
9.89074E-01 2.81338E-27
9.89962E-01 2.70774E-27
9.90814E-01 2.60689E-27
9.91627E-01 2.51080E-27
9.92404E-01 2.41944E-27
9.93143E-01 2.33275E-27
9.93844E-01 2.25071E-27
9.94508E-01 2.17329E-27
9.95134E-01 2.10046E-27
9.95722E-01 2.03218E-27
9.96273E-01 1.96843E-27
9.96786E-01 1.90919E-27
9.97261E-01 1.85442E-27
9.97698E-01 1.80412E-27
9.98097E-01 1.75826E-27
9.98459E-01 1.71681E-27
9.98782E-01 1.67978E-27
9.99067E-01 1.64714E-27
9.99315E-01 1.61887E-27
9.99524E-01 1.59497E-27
9.99695E-01 1.57543E-27
9.99829E-01 1.56024E-27
9.99924E-01 1.54939E-27
9.99981E-01 1.54289E-27
1.00000E+00 1.54072E-27
