 #
 # Subroutine ELSEPA. Elastic scattering of electrons and positrons
 #                    by neutral atoms and positive ions
 #
 # Projectile: positron
 # Kinetic energy = 1.75000E+08 eV = 6.43113E+06 a.u.
 #
 # WARNING: High-energy factorization with free-atom DF screening.
 #          Absorption, polarization and exchange corrections are
 #          switched off.
 #          Phase shifts are calculated for the bare nucleus.
 #          Scattering amplitudes are not evaluated.
 #
 # Element: Fe,  Z =  26,  atomic weight = 5.58450E+01 g/mol
 #
 # Nuclear model: Fermi distribution
 #                Average radius = 4.08989E-13 cm
 #                Skin thickness = 5.46000E-14 cm
 #
 # Number of electrons = 26
 #
 # Total elastic cross section = 1.95956E-18 cm**2 = 6.99772E-02 a0**2
 # 1st transport cross section = 4.51334E-26 cm**2 = 1.61174E-09 a0**2
 # 2nd transport cross section = 1.34861E-25 cm**2 = 4.81597E-09 a0**2
 #
 #
 # Differential cross section:                       MU=(1-COS(THETA))/2
 #
 #  THETA        MU          DCS          DCS        Sherman      error
 #  (deg)                 (cm**2/sr)   (a0**2/sr)    function
 #----------------------------------------------------------------------
0.00000E+00 5.99425E-10
7.61557E-13 5.93946E-10
1.18994E-12 5.90903E-10
1.71346E-12 5.87218E-10
2.33225E-12 5.82910E-10
3.04617E-12 5.78004E-10
3.85530E-12 5.72524E-10
4.75964E-12 5.66498E-10
5.75917E-12 5.59956E-10
6.85391E-12 5.52930E-10
8.04379E-12 5.45432E-10
9.32893E-12 5.37519E-10
1.07092E-11 5.29266E-10
1.21847E-11 5.20662E-10
1.37554E-11 5.11709E-10
1.54213E-11 5.02535E-10
1.71823E-11 4.93140E-10
1.90386E-11 4.83474E-10
2.09900E-11 4.73700E-10
2.30367E-11 4.63833E-10
2.51785E-11 4.53767E-10
2.74156E-11 4.43693E-10
2.97478E-11 4.33642E-10
3.21752E-11 4.23457E-10
3.46979E-11 4.13347E-10
3.73157E-11 4.03337E-10
4.00286E-11 3.93292E-10
4.28368E-11 3.83365E-10
4.57402E-11 3.73597E-10
4.87388E-11 3.63878E-10
5.18325E-11 3.54303E-10
5.50215E-11 3.44930E-10
5.83057E-11 3.35672E-10
6.16850E-11 3.26575E-10
6.51595E-11 3.17704E-10
6.87293E-11 3.08998E-10
7.23943E-11 3.00458E-10
7.61544E-11 2.92157E-10
1.18991E-10 2.20231E-10
1.71347E-10 1.67278E-10
2.33223E-10 1.29204E-10
3.04617E-10 1.01706E-10
3.85531E-10 8.14795E-11
4.75965E-10 6.62502E-11
5.75917E-10 5.45010E-11
6.85389E-10 4.52589E-11
8.04380E-10 3.75739E-11
9.32891E-10 3.14167E-11
1.07092E-09 2.67123E-11
1.21847E-09 2.27833E-11
1.37554E-09 1.93012E-11
1.54213E-09 1.65585E-11
1.71823E-09 1.42873E-11
1.90386E-09 1.22345E-11
2.09900E-09 1.05774E-11
2.30367E-09 9.20897E-12
2.51785E-09 7.96902E-12
2.74156E-09 6.94729E-12
2.97478E-09 6.09848E-12
3.21752E-09 5.33436E-12
3.46978E-09 4.69283E-12
3.73156E-09 4.15118E-12
4.00286E-09 3.67207E-12
4.28368E-09 3.26103E-12
4.57402E-09 2.90897E-12
4.87388E-09 2.59948E-12
5.18326E-09 2.33000E-12
5.50215E-09 2.09624E-12
5.83057E-09 1.89049E-12
6.16850E-09 1.70938E-12
6.51596E-09 1.55049E-12
6.87293E-09 1.40989E-12
7.23942E-09 1.28499E-12
7.61544E-09 1.17433E-12
1.18991E-08 5.33963E-13
1.71347E-08 2.81567E-13
2.33223E-08 1.62834E-13
3.04617E-08 1.00293E-13
3.85531E-08 6.47677E-14
4.75965E-08 4.34762E-14
5.75917E-08 3.01672E-14
6.85389E-08 2.15447E-14
8.04380E-08 1.57748E-14
9.32891E-08 1.18158E-14
1.07092E-07 9.02443E-15
1.21847E-07 7.01066E-15
1.37554E-07 5.53056E-15
1.54213E-07 4.42266E-15
1.71823E-07 3.57985E-15
1.90386E-07 2.92936E-15
2.09900E-07 2.42038E-15
2.30367E-07 2.01767E-15
2.51785E-07 1.69559E-15
2.74156E-07 1.43546E-15
2.97478E-07 1.22344E-15
3.21752E-07 1.04913E-15
3.46978E-07 9.04826E-16
3.73156E-07 7.84523E-16
4.00286E-07 6.83575E-16
4.28368E-07 5.98354E-16
4.57402E-07 5.25970E-16
4.87388E-07 4.64206E-16
5.18325E-07 4.11242E-16
5.50215E-07 3.65615E-16
5.83057E-07 3.26137E-16
6.16850E-07 2.91827E-16
6.51596E-07 2.61907E-16
6.87293E-07 2.35721E-16
7.23942E-07 2.12723E-16
7.61543E-07 1.92458E-16
1.18991E-06 7.94517E-17
1.71347E-06 3.84678E-17
2.33223E-06 2.08082E-17
3.04617E-06 1.22121E-17
3.85531E-06 7.62932E-18
4.75964E-06 5.00772E-18
5.75916E-06 3.42121E-18
6.85388E-06 2.41595E-18
8.04378E-06 1.75417E-18
9.32888E-06 1.30420E-18
1.07092E-05 9.89670E-19
1.21846E-05 7.64474E-19
1.37553E-05 5.99828E-19
1.54212E-05 4.77207E-19
1.71822E-05 3.84373E-19
1.90385E-05 3.13039E-19
2.09899E-05 2.57541E-19
2.30365E-05 2.13804E-19
2.51783E-05 1.78960E-19
2.74153E-05 1.50927E-19
2.97475E-05 1.28170E-19
3.21749E-05 1.09544E-19
3.46974E-05 9.41834E-20
3.73152E-05 8.14245E-20
4.00281E-05 7.07557E-20
4.28362E-05 6.17785E-20
4.57395E-05 5.41803E-20
4.87380E-05 4.77142E-20
5.18317E-05 4.21836E-20
5.50205E-05 3.74309E-20
5.83045E-05 3.33287E-20
6.16838E-05 2.97733E-20
6.51582E-05 2.66797E-20
6.87277E-05 2.39778E-20
7.23925E-05 2.16095E-20
7.61524E-05 1.95216E-20
9.21439E-05 1.33265E-20
1.09658E-04 9.40419E-21
1.28695E-04 6.82397E-21
1.49255E-04 5.07040E-21
1.71338E-04 3.84535E-21
1.94942E-04 2.96862E-21
2.20070E-04 2.32792E-21
2.46720E-04 1.85095E-21
2.74892E-04 1.48999E-21
3.04586E-04 1.21279E-21
3.35803E-04 9.97065E-22
3.68542E-04 8.27181E-22
4.02802E-04 6.91931E-22
4.38585E-04 5.83181E-22
4.75889E-04 4.94944E-22
5.14715E-04 4.22747E-22
5.55063E-04 3.63221E-22
5.96931E-04 3.13789E-22
6.40321E-04 2.72466E-22
6.85233E-04 2.37710E-22
7.31665E-04 2.08307E-22
7.79618E-04 1.83300E-22
8.29092E-04 1.61923E-22
8.80086E-04 1.43563E-22
9.32601E-04 1.27724E-22
9.86636E-04 1.14002E-22
1.04219E-03 1.02067E-22
1.09927E-03 9.16476E-23
1.15786E-03 8.25183E-23
1.21797E-03 7.44927E-23
1.27961E-03 6.74147E-23
1.34276E-03 6.11534E-23
1.40743E-03 5.55986E-23
1.47362E-03 5.06568E-23
1.54133E-03 4.62488E-23
1.61056E-03 4.23071E-23
1.68131E-03 3.87739E-23
1.75357E-03 3.55994E-23
1.82735E-03 3.27410E-23
1.90265E-03 3.01617E-23
1.97947E-03 2.78295E-23
2.05780E-03 2.57167E-23
2.13765E-03 2.37990E-23
2.21902E-03 2.20553E-23
2.30190E-03 2.04670E-23
2.38630E-03 1.90178E-23
2.47222E-03 1.76935E-23
2.55965E-03 1.64813E-23
2.64859E-03 1.53701E-23
2.73905E-03 1.43500E-23
2.83103E-03 1.34123E-23
2.92452E-03 1.25491E-23
3.01952E-03 1.17534E-23
3.11604E-03 1.10190E-23
3.21407E-03 1.03405E-23
3.31362E-03 9.71267E-24
3.41468E-03 9.13118E-24
3.51725E-03 8.59199E-24
3.62133E-03 8.09148E-24
3.72692E-03 7.62637E-24
3.83403E-03 7.19372E-24
3.94265E-03 6.79086E-24
4.05278E-03 6.41539E-24
4.16442E-03 6.06510E-24
4.27757E-03 5.73802E-24
4.39223E-03 5.43232E-24
4.50840E-03 5.14637E-24
4.62608E-03 4.87866E-24
4.74527E-03 4.62783E-24
4.86597E-03 4.39262E-24
4.98817E-03 4.17188E-24
5.11188E-03 3.96458E-24
5.23711E-03 3.76974E-24
5.36383E-03 3.58648E-24
5.49207E-03 3.41400E-24
5.62181E-03 3.25155E-24
5.75306E-03 3.09844E-24
5.88581E-03 2.95404E-24
6.02007E-03 2.81776E-24
6.15583E-03 2.68908E-24
6.29310E-03 2.56749E-24
6.43187E-03 2.45253E-24
6.57214E-03 2.34378E-24
6.71392E-03 2.24084E-24
6.85720E-03 2.14335E-24
7.00198E-03 2.05096E-24
7.14827E-03 1.96337E-24
7.29605E-03 1.88029E-24
7.44534E-03 1.80143E-24
7.59612E-03 1.72655E-24
7.97965E-03 1.55523E-24
8.37255E-03 1.40407E-24
8.77480E-03 1.27032E-24
9.18641E-03 1.15166E-24
9.60736E-03 1.04610E-24
1.00376E-02 9.51977E-25
1.04773E-02 8.67851E-25
1.09262E-02 7.92491E-25
1.13844E-02 7.24840E-25
1.18520E-02 6.63985E-25
1.23288E-02 6.09135E-25
1.28150E-02 5.59604E-25
1.33104E-02 5.14796E-25
1.38150E-02 4.74189E-25
1.43290E-02 4.37330E-25
1.48521E-02 4.03817E-25
1.53845E-02 3.73300E-25
1.59262E-02 3.45471E-25
1.64770E-02 3.20055E-25
1.70371E-02 2.96812E-25
1.76063E-02 2.75527E-25
1.81848E-02 2.56011E-25
1.87724E-02 2.38095E-25
1.93692E-02 2.21627E-25
1.99751E-02 2.06473E-25
2.05901E-02 1.92512E-25
2.12143E-02 1.79638E-25
2.18476E-02 1.67752E-25
2.24900E-02 1.56768E-25
2.31415E-02 1.46607E-25
2.38021E-02 1.37199E-25
2.44717E-02 1.28481E-25
2.51504E-02 1.20393E-25
2.58382E-02 1.12885E-25
2.65349E-02 1.05909E-25
2.72407E-02 9.94217E-26
2.79555E-02 9.33844E-26
2.86793E-02 8.77616E-26
2.94120E-02 8.25209E-26
3.01537E-02 7.76329E-26
3.09043E-02 7.30705E-26
3.16639E-02 6.88094E-26
3.24324E-02 6.48269E-26
3.32098E-02 6.11024E-26
3.39961E-02 5.76171E-26
3.47912E-02 5.43536E-26
3.55952E-02 5.12961E-26
3.64081E-02 4.84298E-26
3.72297E-02 4.57414E-26
3.80602E-02 4.32184E-26
3.88995E-02 4.08494E-26
3.97476E-02 3.86239E-26
4.06044E-02 3.65322E-26
4.14700E-02 3.45652E-26
4.23443E-02 3.27146E-26
4.32273E-02 3.09728E-26
4.41190E-02 2.93327E-26
4.50194E-02 2.77875E-26
4.59284E-02 2.63313E-26
4.68461E-02 2.49583E-26
4.87074E-02 2.24413E-26
5.06030E-02 2.01985E-26
5.25328E-02 1.81972E-26
5.44967E-02 1.64089E-26
5.64946E-02 1.48089E-26
5.85262E-02 1.33754E-26
6.05914E-02 1.20897E-26
6.26901E-02 1.09352E-26
6.48222E-02 9.89745E-27
6.69873E-02 8.96368E-27
6.91854E-02 8.12267E-27
7.14163E-02 7.36452E-27
7.36799E-02 6.68047E-27
7.59760E-02 6.06279E-27
7.83043E-02 5.50460E-27
8.06647E-02 4.99980E-27
8.30571E-02 4.54299E-27
8.54812E-02 4.12931E-27
8.79369E-02 3.75449E-27
9.04240E-02 3.41466E-27
9.29422E-02 3.10640E-27
9.54915E-02 2.82663E-27
9.80716E-02 2.57259E-27
1.00682E-01 2.34182E-27
1.03323E-01 2.13210E-27
1.05995E-01 1.94144E-27
1.08696E-01 1.76803E-27
1.11427E-01 1.61027E-27
1.14188E-01 1.46670E-27
1.16978E-01 1.33601E-27
1.19797E-01 1.21701E-27
1.22645E-01 1.10863E-27
1.25522E-01 1.00990E-27
1.28428E-01 9.19945E-28
1.31361E-01 8.37972E-28
1.34323E-01 7.63261E-28
1.37313E-01 6.95161E-28
1.40330E-01 6.33080E-28
1.43375E-01 5.76481E-28
1.46447E-01 5.24878E-28
1.49545E-01 4.77826E-28
1.52671E-01 4.34924E-28
1.55823E-01 3.95806E-28
1.59001E-01 3.60137E-28
1.62205E-01 3.27615E-28
1.65435E-01 2.97964E-28
1.68690E-01 2.70931E-28
1.71970E-01 2.46289E-28
1.75276E-01 2.23827E-28
1.78606E-01 2.03355E-28
1.81961E-01 1.84699E-28
1.85340E-01 1.67701E-28
1.88743E-01 1.52216E-28
1.92169E-01 1.38112E-28
1.95619E-01 1.25269E-28
1.99092E-01 1.13576E-28
2.02589E-01 1.02933E-28
2.06107E-01 9.32485E-29
2.09649E-01 8.44380E-29
2.13212E-01 7.64252E-29
2.16797E-01 6.91402E-29
2.20404E-01 6.25190E-29
2.24032E-01 5.65032E-29
2.27680E-01 5.10396E-29
2.31350E-01 4.60793E-29
2.35040E-01 4.15778E-29
2.38751E-01 3.74944E-29
2.42481E-01 3.37920E-29
2.46231E-01 3.04365E-29
2.50000E-01 2.73970E-29
2.53788E-01 2.46452E-29
2.57595E-01 2.21550E-29
2.61421E-01 1.99030E-29
2.65264E-01 1.78675E-29
2.69126E-01 1.60289E-29
2.73005E-01 1.43692E-29
2.76901E-01 1.28719E-29
2.80814E-01 1.15222E-29
2.84744E-01 1.03063E-29
2.88691E-01 9.21187E-30
2.92653E-01 8.22750E-30
2.96632E-01 7.34288E-30
3.00625E-01 6.54858E-30
3.04634E-01 5.83603E-30
3.08658E-01 5.19741E-30
3.12697E-01 4.62562E-30
3.16749E-01 4.11420E-30
3.20816E-01 3.65726E-30
3.24896E-01 3.24947E-30
3.28990E-01 2.88596E-30
3.33097E-01 2.56232E-30
3.37216E-01 2.27456E-30
3.41348E-01 2.01905E-30
3.45492E-01 1.79249E-30
3.49647E-01 1.59190E-30
3.53814E-01 1.41458E-30
3.57992E-01 1.25809E-30
3.62181E-01 1.12023E-30
3.66381E-01 9.98982E-31
3.70590E-01 8.92559E-31
3.74810E-01 7.99331E-31
3.79039E-01 7.17832E-31
3.83277E-01 6.46743E-31
3.87524E-01 5.84875E-31
3.91780E-01 5.31161E-31
3.96044E-01 4.84642E-31
4.00316E-01 4.44460E-31
4.04596E-01 4.09843E-31
4.08882E-01 3.80104E-31
4.13176E-01 3.54627E-31
4.17476E-01 3.32862E-31
4.21783E-01 3.14321E-31
4.26095E-01 2.98570E-31
4.30413E-01 2.85221E-31
4.34737E-01 2.73933E-31
4.39065E-01 2.64404E-31
4.43398E-01 2.56367E-31
4.47736E-01 2.49587E-31
4.52077E-01 2.43858E-31
4.56422E-01 2.39000E-31
4.60770E-01 2.34856E-31
4.65122E-01 2.31289E-31
4.69476E-01 2.28181E-31
4.73832E-01 2.25431E-31
4.78190E-01 2.22949E-31
4.82550E-01 2.20663E-31
4.86912E-01 2.18510E-31
4.91274E-01 2.16435E-31
4.95637E-01 2.14396E-31
5.00000E-01 2.12356E-31
5.04363E-01 2.10286E-31
5.08726E-01 2.08163E-31
5.13088E-01 2.05968E-31
5.17450E-01 2.03688E-31
5.21810E-01 2.01313E-31
5.26168E-01 1.98838E-31
5.30524E-01 1.96257E-31
5.34878E-01 1.93572E-31
5.39230E-01 1.90782E-31
5.43578E-01 1.87890E-31
5.47923E-01 1.84900E-31
5.52264E-01 1.81818E-31
5.56602E-01 1.78650E-31
5.60935E-01 1.75402E-31
5.65263E-01 1.72082E-31
5.69587E-01 1.68698E-31
5.73905E-01 1.65256E-31
5.78217E-01 1.61766E-31
5.82524E-01 1.58236E-31
5.86824E-01 1.54672E-31
5.91118E-01 1.51083E-31
5.95404E-01 1.47477E-31
5.99684E-01 1.43861E-31
6.03956E-01 1.40242E-31
6.08220E-01 1.36626E-31
6.12476E-01 1.33021E-31
6.16723E-01 1.29432E-31
6.20961E-01 1.25865E-31
6.25190E-01 1.22325E-31
6.29410E-01 1.18817E-31
6.33619E-01 1.15346E-31
6.37819E-01 1.11916E-31
6.42008E-01 1.08530E-31
6.46186E-01 1.05194E-31
6.50353E-01 1.01909E-31
6.54508E-01 9.86778E-32
6.58652E-01 9.55040E-32
6.62784E-01 9.23894E-32
6.66903E-01 8.93360E-32
6.71010E-01 8.63453E-32
6.75104E-01 8.34189E-32
6.79184E-01 8.05577E-32
6.83251E-01 7.77628E-32
6.87303E-01 7.50348E-32
6.91342E-01 7.23743E-32
6.95366E-01 6.97815E-32
6.99375E-01 6.72566E-32
7.03368E-01 6.47995E-32
7.07347E-01 6.24099E-32
7.11309E-01 6.00877E-32
7.15256E-01 5.78323E-32
7.19186E-01 5.56430E-32
7.23099E-01 5.35194E-32
7.26995E-01 5.14605E-32
7.30874E-01 4.94655E-32
7.34736E-01 4.75335E-32
7.38579E-01 4.56633E-32
7.42405E-01 4.38541E-32
7.46212E-01 4.21045E-32
7.50000E-01 4.04135E-32
7.53769E-01 3.87799E-32
7.57519E-01 3.72024E-32
7.61249E-01 3.56797E-32
7.64960E-01 3.42106E-32
7.68650E-01 3.27936E-32
7.72320E-01 3.14276E-32
7.75968E-01 3.01113E-32
7.79596E-01 2.88431E-32
7.83203E-01 2.76220E-32
7.86788E-01 2.64464E-32
7.90351E-01 2.53151E-32
7.93893E-01 2.42269E-32
7.97411E-01 2.31803E-32
8.00908E-01 2.21742E-32
8.04381E-01 2.12072E-32
8.07831E-01 2.02781E-32
8.11257E-01 1.93857E-32
8.14660E-01 1.85288E-32
8.18039E-01 1.77062E-32
8.21394E-01 1.69168E-32
8.24724E-01 1.61594E-32
8.28030E-01 1.54328E-32
8.31310E-01 1.47361E-32
8.34565E-01 1.40681E-32
8.37795E-01 1.34278E-32
8.40999E-01 1.28142E-32
8.44177E-01 1.22264E-32
8.47329E-01 1.16634E-32
8.50455E-01 1.11242E-32
8.53553E-01 1.06079E-32
8.56625E-01 1.01137E-32
8.59670E-01 9.64077E-33
8.62687E-01 9.18821E-33
8.65677E-01 8.75528E-33
8.68639E-01 8.34116E-33
8.71572E-01 7.94515E-33
8.74478E-01 7.56649E-33
8.77355E-01 7.20451E-33
8.80203E-01 6.85853E-33
8.83022E-01 6.52790E-33
8.85812E-01 6.21197E-33
8.88573E-01 5.91016E-33
8.91304E-01 5.62188E-33
8.94005E-01 5.34657E-33
8.96677E-01 5.08367E-33
8.99318E-01 4.83267E-33
9.01928E-01 4.59307E-33
9.04508E-01 4.36439E-33
9.07058E-01 4.14615E-33
9.09576E-01 3.93790E-33
9.12063E-01 3.73922E-33
9.14519E-01 3.54969E-33
9.16943E-01 3.36893E-33
9.19335E-01 3.19654E-33
9.21696E-01 3.03216E-33
9.24024E-01 2.87543E-33
9.26320E-01 2.72602E-33
9.28584E-01 2.58362E-33
9.30815E-01 2.44789E-33
9.33013E-01 2.31856E-33
9.35178E-01 2.19533E-33
9.37310E-01 2.07792E-33
9.39409E-01 1.96609E-33
9.41474E-01 1.85957E-33
9.43505E-01 1.75813E-33
9.45503E-01 1.66155E-33
9.47467E-01 1.56958E-33
9.49397E-01 1.48204E-33
9.51293E-01 1.39872E-33
9.53154E-01 1.31942E-33
9.54981E-01 1.24396E-33
9.56773E-01 1.17217E-33
9.58530E-01 1.10388E-33
9.60252E-01 1.03892E-33
9.61940E-01 9.77155E-34
9.63592E-01 9.18433E-34
9.65209E-01 8.62609E-34
9.66790E-01 8.09547E-34
9.68336E-01 7.59132E-34
9.69846E-01 7.11238E-34
9.71321E-01 6.65744E-34
9.72759E-01 6.22547E-34
9.74162E-01 5.81539E-34
9.75528E-01 5.42624E-34
9.76858E-01 5.05708E-34
9.78152E-01 4.70694E-34
9.79410E-01 4.37499E-34
9.80631E-01 4.06049E-34
9.81815E-01 3.76256E-34
9.82963E-01 3.48048E-34
9.84074E-01 3.21366E-34
9.85148E-01 2.96127E-34
9.86185E-01 2.72278E-34
9.87185E-01 2.49763E-34
9.88148E-01 2.28518E-34
9.89074E-01 2.08496E-34
9.89962E-01 1.89640E-34
9.90814E-01 1.71908E-34
9.91627E-01 1.55253E-34
9.92404E-01 1.39637E-34
9.93143E-01 1.25015E-34
9.93844E-01 1.11354E-34
9.94508E-01 9.86148E-35
9.95134E-01 8.67702E-35
9.95722E-01 7.57895E-35
9.96273E-01 6.56372E-35
9.96786E-01 5.62985E-35
9.97261E-01 4.77433E-35
9.97698E-01 3.99506E-35
9.98097E-01 3.28978E-35
9.98459E-01 2.65722E-35
9.98782E-01 2.09568E-35
9.99067E-01 1.60342E-35
9.99315E-01 1.17930E-35
9.99524E-01 8.22191E-36
9.99695E-01 5.31354E-36
9.99829E-01 3.05790E-36
9.99924E-01 1.45200E-36
9.99981E-01 4.89752E-37
1.00000E+00 1.70190E-37
