 #
 # Subroutine ELSEPA. Elastic scattering of electrons and positrons
 #                    by neutral atoms and positive ions
 #
 # Projectile: positron
 # Kinetic energy = 1.25000E+06 eV = 4.59367E+04 a.u.
 #
 # WARNING: High-energy factorization with free-atom DF screening.
 #          Absorption, polarization and exchange corrections are
 #          switched off.
 #          Phase shifts are calculated for the bare nucleus.
 #          Scattering amplitudes are not evaluated.
 #
 # Element: Fe,  Z =  26,  atomic weight = 5.58450E+01 g/mol
 #
 # Nuclear model: Fermi distribution
 #                Average radius = 4.08989E-13 cm
 #                Skin thickness = 5.46000E-14 cm
 #
 # Number of electrons = 26
 #
 # Total elastic cross section = 2.13593E-18 cm**2 = 7.62755E-02 a0**2
 # 1st transport cross section = 2.89445E-22 cm**2 = 1.03363E-05 a0**2
 # 2nd transport cross section = 8.20177E-22 cm**2 = 2.92891E-05 a0**2
 #
 #
 # Differential cross section:                       MU=(1-COS(THETA))/2
 #
 #  THETA        MU          DCS          DCS        Sherman      error
 #  (deg)                 (cm**2/sr)   (a0**2/sr)    function
 #----------------------------------------------------------------------
0.00000E+00 6.03454E-14
7.61557E-13 6.03453E-14
1.18994E-12 6.03453E-14
1.71346E-12 6.03452E-14
2.33225E-12 6.03452E-14
3.04617E-12 6.03451E-14
3.85530E-12 6.03450E-14
4.75964E-12 6.03450E-14
5.75917E-12 6.03449E-14
6.85391E-12 6.03448E-14
8.04379E-12 6.03447E-14
9.32893E-12 6.03446E-14
1.07092E-11 6.03445E-14
1.21847E-11 6.03444E-14
1.37554E-11 6.03443E-14
1.54213E-11 6.03442E-14
1.71823E-11 6.03441E-14
1.90386E-11 6.03439E-14
2.09900E-11 6.03438E-14
2.30367E-11 6.03436E-14
2.51785E-11 6.03435E-14
2.74156E-11 6.03433E-14
2.97478E-11 6.03432E-14
3.21752E-11 6.03430E-14
3.46979E-11 6.03428E-14
3.73157E-11 6.03426E-14
4.00286E-11 6.03424E-14
4.28368E-11 6.03422E-14
4.57402E-11 6.03420E-14
4.87388E-11 6.03418E-14
5.18325E-11 6.03416E-14
5.50215E-11 6.03414E-14
5.83057E-11 6.03412E-14
6.16850E-11 6.03409E-14
6.51595E-11 6.03407E-14
6.87293E-11 6.03404E-14
7.23943E-11 6.03402E-14
7.61544E-11 6.03399E-14
1.18991E-10 6.03370E-14
1.71347E-10 6.03334E-14
2.33223E-10 6.03291E-14
3.04617E-10 6.03242E-14
3.85531E-10 6.03187E-14
4.75965E-10 6.03126E-14
5.75917E-10 6.03058E-14
6.85389E-10 6.02983E-14
8.04380E-10 6.02903E-14
9.32891E-10 6.02816E-14
1.07092E-09 6.02722E-14
1.21847E-09 6.02623E-14
1.37554E-09 6.02517E-14
1.54213E-09 6.02404E-14
1.71823E-09 6.02285E-14
1.90386E-09 6.02160E-14
2.09900E-09 6.02029E-14
2.30367E-09 6.01891E-14
2.51785E-09 6.01747E-14
2.74156E-09 6.01597E-14
2.97478E-09 6.01440E-14
3.21752E-09 6.01277E-14
3.46978E-09 6.01108E-14
3.73156E-09 6.00932E-14
4.00286E-09 6.00750E-14
4.28368E-09 6.00562E-14
4.57402E-09 6.00368E-14
4.87388E-09 6.00168E-14
5.18326E-09 5.99961E-14
5.50215E-09 5.99748E-14
5.83057E-09 5.99529E-14
6.16850E-09 5.99303E-14
6.51596E-09 5.99072E-14
6.87293E-09 5.98834E-14
7.23942E-09 5.98590E-14
7.61544E-09 5.98340E-14
1.18991E-08 5.95505E-14
1.71347E-08 5.92071E-14
2.33223E-08 5.88055E-14
3.04617E-08 5.83476E-14
3.85531E-08 5.78358E-14
4.75965E-08 5.72723E-14
5.75917E-08 5.66599E-14
6.85389E-08 5.60013E-14
8.04380E-08 5.52994E-14
9.32891E-08 5.45535E-14
1.07092E-07 5.37738E-14
1.21847E-07 5.29640E-14
1.37554E-07 5.21181E-14
1.54213E-07 5.12454E-14
1.71823E-07 5.03532E-14
1.90386E-07 4.94376E-14
2.09900E-07 4.85008E-14
2.30367E-07 4.75545E-14
2.51785E-07 4.65983E-14
2.74156E-07 4.56248E-14
2.97478E-07 4.46508E-14
3.21752E-07 4.36790E-14
3.46978E-07 4.26946E-14
3.73156E-07 4.17163E-14
4.00286E-07 4.07472E-14
4.28368E-07 3.97767E-14
4.57402E-07 3.88139E-14
4.87388E-07 3.78656E-14
5.18325E-07 3.69257E-14
5.50215E-07 3.59939E-14
5.83057E-07 3.50805E-14
6.16850E-07 3.41834E-14
6.51596E-07 3.32942E-14
6.87293E-07 3.24259E-14
7.23942E-07 3.15787E-14
7.61543E-07 3.07410E-14
1.18991E-06 2.34350E-14
1.71347E-06 1.79473E-14
2.33223E-06 1.39407E-14
3.04617E-06 1.10182E-14
3.85531E-06 8.85583E-15
4.75964E-06 7.22247E-15
5.75916E-06 5.96142E-15
6.85388E-06 4.96799E-15
8.04378E-06 4.17181E-15
9.32888E-06 3.48172E-15
1.07092E-05 2.95231E-15
1.21846E-05 2.54072E-15
1.37553E-05 2.16684E-15
1.54212E-05 1.85465E-15
1.71822E-05 1.60549E-15
1.90385E-05 1.38941E-15
2.09899E-05 1.19923E-15
2.30365E-05 1.04410E-15
2.51783E-05 9.13441E-16
2.74153E-05 7.95278E-16
2.97475E-05 6.97116E-16
3.21749E-05 6.14970E-16
3.46974E-05 5.40739E-16
3.73152E-05 4.77845E-16
4.00281E-05 4.24433E-16
4.28362E-05 3.77305E-16
4.57395E-05 3.36312E-16
4.87380E-05 3.01023E-16
5.18317E-05 2.70118E-16
5.50205E-05 2.42844E-16
5.83045E-05 2.19087E-16
6.16838E-05 1.98248E-16
6.51582E-05 1.79700E-16
6.87277E-05 1.63375E-16
7.23925E-05 1.48955E-16
7.61524E-05 1.36049E-16
9.21439E-05 9.68898E-17
1.09658E-04 7.12054E-17
1.28695E-04 5.37247E-17
1.49255E-04 4.14057E-17
1.71338E-04 3.24888E-17
1.94942E-04 2.58777E-17
2.20070E-04 2.08731E-17
2.46720E-04 1.70155E-17
2.74892E-04 1.40000E-17
3.04586E-04 1.16172E-17
3.35803E-04 9.71321E-18
3.68542E-04 8.17700E-18
4.02802E-04 6.92528E-18
4.38585E-04 5.90004E-18
4.75889E-04 5.05458E-18
5.14715E-04 4.35295E-18
5.55063E-04 3.76681E-18
5.96931E-04 3.27476E-18
6.40321E-04 2.85961E-18
6.85233E-04 2.50755E-18
7.31665E-04 2.20748E-18
7.79618E-04 1.95058E-18
8.29092E-04 1.72954E-18
8.80086E-04 1.53875E-18
9.32601E-04 1.37384E-18
9.86636E-04 1.23055E-18
1.04219E-03 1.10505E-18
1.09927E-03 9.95297E-19
1.15786E-03 8.98981E-19
1.21797E-03 8.13836E-19
1.27961E-03 7.38606E-19
1.34276E-03 6.71956E-19
1.40743E-03 6.12615E-19
1.47362E-03 5.59691E-19
1.54133E-03 5.12416E-19
1.61056E-03 4.70032E-19
1.68131E-03 4.31919E-19
1.75357E-03 3.97630E-19
1.82735E-03 3.66700E-19
1.90265E-03 3.38690E-19
1.97947E-03 3.13329E-19
2.05780E-03 2.90322E-19
2.13765E-03 2.69362E-19
2.21902E-03 2.50273E-19
2.30190E-03 2.32861E-19
2.38630E-03 2.16928E-19
2.47222E-03 2.02332E-19
2.55965E-03 1.88956E-19
2.64859E-03 1.76667E-19
2.73905E-03 1.65351E-19
2.83103E-03 1.54936E-19
2.92452E-03 1.45333E-19
3.01952E-03 1.36449E-19
3.11604E-03 1.28239E-19
3.21407E-03 1.20643E-19
3.31362E-03 1.13592E-19
3.41468E-03 1.07050E-19
3.51725E-03 1.00976E-19
3.62133E-03 9.53226E-20
3.72692E-03 9.00570E-20
3.83403E-03 8.51530E-20
3.94265E-03 8.05774E-20
4.05278E-03 7.63005E-20
4.16442E-03 7.23058E-20
4.27757E-03 6.85706E-20
4.39223E-03 6.50677E-20
4.50840E-03 6.17872E-20
4.62608E-03 5.87124E-20
4.74527E-03 5.58226E-20
4.86597E-03 5.31084E-20
4.98817E-03 5.05583E-20
5.11188E-03 4.81577E-20
5.23711E-03 4.58966E-20
5.36383E-03 4.37675E-20
5.49207E-03 4.17600E-20
5.62181E-03 3.98643E-20
5.75306E-03 3.80754E-20
5.88581E-03 3.63863E-20
6.02007E-03 3.47874E-20
6.15583E-03 3.32758E-20
6.29310E-03 3.18458E-20
6.43187E-03 3.04905E-20
6.57214E-03 2.92062E-20
6.71392E-03 2.79891E-20
6.85720E-03 2.68341E-20
7.00198E-03 2.57374E-20
7.14827E-03 2.46964E-20
7.29605E-03 2.37073E-20
7.44534E-03 2.27664E-20
7.59612E-03 2.18718E-20
7.97965E-03 1.98192E-20
8.37255E-03 1.80007E-20
8.77480E-03 1.63852E-20
9.18641E-03 1.49456E-20
9.60736E-03 1.36600E-20
1.00376E-02 1.25090E-20
1.04773E-02 1.14762E-20
1.09262E-02 1.05470E-20
1.13844E-02 9.70956E-21
1.18520E-02 8.95317E-21
1.23288E-02 8.26864E-21
1.28150E-02 7.64788E-21
1.33104E-02 7.08395E-21
1.38150E-02 6.57079E-21
1.43290E-02 6.10301E-21
1.48521E-02 5.67588E-21
1.53845E-02 5.28522E-21
1.59262E-02 4.92743E-21
1.64770E-02 4.59924E-21
1.70371E-02 4.29776E-21
1.76063E-02 4.02041E-21
1.81848E-02 3.76496E-21
1.87724E-02 3.52936E-21
1.93692E-02 3.31180E-21
1.99751E-02 3.11063E-21
2.05901E-02 2.92441E-21
2.12143E-02 2.75184E-21
2.18476E-02 2.59174E-21
2.24900E-02 2.44303E-21
2.31415E-02 2.30477E-21
2.38021E-02 2.17610E-21
2.44717E-02 2.05622E-21
2.51504E-02 1.94443E-21
2.58382E-02 1.84009E-21
2.65349E-02 1.74260E-21
2.72407E-02 1.65145E-21
2.79555E-02 1.56614E-21
2.86793E-02 1.48623E-21
2.94120E-02 1.41131E-21
3.01537E-02 1.34103E-21
3.09043E-02 1.27504E-21
3.16639E-02 1.21302E-21
3.24324E-02 1.15471E-21
3.32098E-02 1.09984E-21
3.39961E-02 1.04816E-21
3.47912E-02 9.99458E-22
3.55952E-02 9.53534E-22
3.64081E-02 9.10198E-22
3.72297E-02 8.69279E-22
3.80602E-02 8.30615E-22
3.88995E-02 7.94062E-22
3.97476E-02 7.59483E-22
4.06044E-02 7.26751E-22
4.14700E-02 6.95749E-22
4.23443E-02 6.66371E-22
4.32273E-02 6.38515E-22
4.41190E-02 6.12088E-22
4.50194E-02 5.87003E-22
4.59284E-02 5.63179E-22
4.68461E-02 5.40543E-22
4.87074E-02 4.98554E-22
5.06030E-02 4.60533E-22
5.25328E-02 4.26039E-22
5.44967E-02 3.94688E-22
5.64946E-02 3.66145E-22
5.85262E-02 3.40114E-22
6.05914E-02 3.16336E-22
6.26901E-02 2.94582E-22
6.48222E-02 2.74650E-22
6.69873E-02 2.56359E-22
6.91854E-02 2.39553E-22
7.14163E-02 2.24088E-22
7.36799E-02 2.09839E-22
7.59760E-02 1.96694E-22
7.83043E-02 1.84552E-22
8.06647E-02 1.73323E-22
8.30571E-02 1.62926E-22
8.54812E-02 1.53289E-22
8.79369E-02 1.44347E-22
9.04240E-02 1.36040E-22
9.29422E-02 1.28315E-22
9.54915E-02 1.21125E-22
9.80716E-02 1.14426E-22
1.00682E-01 1.08178E-22
1.03323E-01 1.02346E-22
1.05995E-01 9.68965E-23
1.08696E-01 9.18007E-23
1.11427E-01 8.70313E-23
1.14188E-01 8.25636E-23
1.16978E-01 7.83753E-23
1.19797E-01 7.44457E-23
1.22645E-01 7.07560E-23
1.25522E-01 6.72890E-23
1.28428E-01 6.40288E-23
1.31361E-01 6.09609E-23
1.34323E-01 5.80718E-23
1.37313E-01 5.53494E-23
1.40330E-01 5.27824E-23
1.43375E-01 5.03601E-23
1.46447E-01 4.80731E-23
1.49545E-01 4.59125E-23
1.52671E-01 4.38699E-23
1.55823E-01 4.19378E-23
1.59001E-01 4.01092E-23
1.62205E-01 3.83775E-23
1.65435E-01 3.67367E-23
1.68690E-01 3.51811E-23
1.71970E-01 3.37055E-23
1.75276E-01 3.23051E-23
1.78606E-01 3.09754E-23
1.81961E-01 2.97121E-23
1.85340E-01 2.85114E-23
1.88743E-01 2.73695E-23
1.92169E-01 2.62832E-23
1.95619E-01 2.52491E-23
1.99092E-01 2.42644E-23
2.02589E-01 2.33263E-23
2.06107E-01 2.24321E-23
2.09649E-01 2.15794E-23
2.13212E-01 2.07660E-23
2.16797E-01 1.99898E-23
2.20404E-01 1.92487E-23
2.24032E-01 1.85408E-23
2.27680E-01 1.78645E-23
2.31350E-01 1.72180E-23
2.35040E-01 1.65997E-23
2.38751E-01 1.60084E-23
2.42481E-01 1.54425E-23
2.46231E-01 1.49007E-23
2.50000E-01 1.43819E-23
2.53788E-01 1.38850E-23
2.57595E-01 1.34087E-23
2.61421E-01 1.29522E-23
2.65264E-01 1.25144E-23
2.69126E-01 1.20944E-23
2.73005E-01 1.16915E-23
2.76901E-01 1.13047E-23
2.80814E-01 1.09333E-23
2.84744E-01 1.05766E-23
2.88691E-01 1.02339E-23
2.92653E-01 9.90460E-24
2.96632E-01 9.58801E-24
3.00625E-01 9.28358E-24
3.04634E-01 8.99077E-24
3.08658E-01 8.70904E-24
3.12697E-01 8.43791E-24
3.16749E-01 8.17691E-24
3.20816E-01 7.92559E-24
3.24896E-01 7.68353E-24
3.28990E-01 7.45032E-24
3.33097E-01 7.22559E-24
3.37216E-01 7.00898E-24
3.41348E-01 6.80013E-24
3.45492E-01 6.59873E-24
3.49647E-01 6.40445E-24
3.53814E-01 6.21700E-24
3.57992E-01 6.03611E-24
3.62181E-01 5.86150E-24
3.66381E-01 5.69290E-24
3.70590E-01 5.53009E-24
3.74810E-01 5.37283E-24
3.79039E-01 5.22089E-24
3.83277E-01 5.07406E-24
3.87524E-01 4.93215E-24
3.91780E-01 4.79495E-24
3.96044E-01 4.66229E-24
4.00316E-01 4.53398E-24
4.04596E-01 4.40986E-24
4.08882E-01 4.28977E-24
4.13176E-01 4.17356E-24
4.17476E-01 4.06107E-24
4.21783E-01 3.95217E-24
4.26095E-01 3.84673E-24
4.30413E-01 3.74461E-24
4.34737E-01 3.64569E-24
4.39065E-01 3.54986E-24
4.43398E-01 3.45700E-24
4.47736E-01 3.36700E-24
4.52077E-01 3.27976E-24
4.56422E-01 3.19518E-24
4.60770E-01 3.11317E-24
4.65122E-01 3.03363E-24
4.69476E-01 2.95648E-24
4.73832E-01 2.88164E-24
4.78190E-01 2.80901E-24
4.82550E-01 2.73854E-24
4.86912E-01 2.67013E-24
4.91274E-01 2.60372E-24
4.95637E-01 2.53925E-24
5.00000E-01 2.47664E-24
5.04363E-01 2.41583E-24
5.08726E-01 2.35676E-24
5.13088E-01 2.29938E-24
5.17450E-01 2.24363E-24
5.21810E-01 2.18945E-24
5.26168E-01 2.13680E-24
5.30524E-01 2.08561E-24
5.34878E-01 2.03585E-24
5.39230E-01 1.98747E-24
5.43578E-01 1.94042E-24
5.47923E-01 1.89466E-24
5.52264E-01 1.85015E-24
5.56602E-01 1.80685E-24
5.60935E-01 1.76472E-24
5.65263E-01 1.72373E-24
5.69587E-01 1.68384E-24
5.73905E-01 1.64501E-24
5.78217E-01 1.60721E-24
5.82524E-01 1.57041E-24
5.86824E-01 1.53458E-24
5.91118E-01 1.49970E-24
5.95404E-01 1.46572E-24
5.99684E-01 1.43262E-24
6.03956E-01 1.40039E-24
6.08220E-01 1.36898E-24
6.12476E-01 1.33838E-24
6.16723E-01 1.30856E-24
6.20961E-01 1.27951E-24
6.25190E-01 1.25119E-24
6.29410E-01 1.22358E-24
6.33619E-01 1.19667E-24
6.37819E-01 1.17044E-24
6.42008E-01 1.14486E-24
6.46186E-01 1.11991E-24
6.50353E-01 1.09558E-24
6.54508E-01 1.07186E-24
6.58652E-01 1.04872E-24
6.62784E-01 1.02614E-24
6.66903E-01 1.00412E-24
6.71010E-01 9.82629E-25
6.75104E-01 9.61662E-25
6.79184E-01 9.41201E-25
6.83251E-01 9.21232E-25
6.87303E-01 9.01742E-25
6.91342E-01 8.82719E-25
6.95366E-01 8.64148E-25
6.99375E-01 8.46019E-25
7.03368E-01 8.28318E-25
7.07347E-01 8.11035E-25
7.11309E-01 7.94159E-25
7.15256E-01 7.77678E-25
7.19186E-01 7.61583E-25
7.23099E-01 7.45862E-25
7.26995E-01 7.30507E-25
7.30874E-01 7.15507E-25
7.34736E-01 7.00854E-25
7.38579E-01 6.86538E-25
7.42405E-01 6.72552E-25
7.46212E-01 6.58885E-25
7.50000E-01 6.45531E-25
7.53769E-01 6.32481E-25
7.57519E-01 6.19728E-25
7.61249E-01 6.07264E-25
7.64960E-01 5.95082E-25
7.68650E-01 5.83175E-25
7.72320E-01 5.71535E-25
7.75968E-01 5.60158E-25
7.79596E-01 5.49035E-25
7.83203E-01 5.38161E-25
7.86788E-01 5.27530E-25
7.90351E-01 5.17136E-25
7.93893E-01 5.06973E-25
7.97411E-01 4.97036E-25
8.00908E-01 4.87319E-25
8.04381E-01 4.77816E-25
8.07831E-01 4.68524E-25
8.11257E-01 4.59437E-25
8.14660E-01 4.50550E-25
8.18039E-01 4.41858E-25
8.21394E-01 4.33358E-25
8.24724E-01 4.25044E-25
8.28030E-01 4.16912E-25
8.31310E-01 4.08959E-25
8.34565E-01 4.01179E-25
8.37795E-01 3.93570E-25
8.40999E-01 3.86127E-25
8.44177E-01 3.78847E-25
8.47329E-01 3.71726E-25
8.50455E-01 3.64760E-25
8.53553E-01 3.57946E-25
8.56625E-01 3.51282E-25
8.59670E-01 3.44762E-25
8.62687E-01 3.38385E-25
8.65677E-01 3.32148E-25
8.68639E-01 3.26047E-25
8.71572E-01 3.20079E-25
8.74478E-01 3.14242E-25
8.77355E-01 3.08533E-25
8.80203E-01 3.02949E-25
8.83022E-01 2.97488E-25
8.85812E-01 2.92147E-25
8.88573E-01 2.86923E-25
8.91304E-01 2.81815E-25
8.94005E-01 2.76821E-25
8.96677E-01 2.71936E-25
8.99318E-01 2.67161E-25
9.01928E-01 2.62491E-25
9.04508E-01 2.57926E-25
9.07058E-01 2.53464E-25
9.09576E-01 2.49101E-25
9.12063E-01 2.44838E-25
9.14519E-01 2.40670E-25
9.16943E-01 2.36598E-25
9.19335E-01 2.32618E-25
9.21696E-01 2.28730E-25
9.24024E-01 2.24931E-25
9.26320E-01 2.21221E-25
9.28584E-01 2.17596E-25
9.30815E-01 2.14057E-25
9.33013E-01 2.10601E-25
9.35178E-01 2.07227E-25
9.37310E-01 2.03933E-25
9.39409E-01 2.00719E-25
9.41474E-01 1.97583E-25
9.43505E-01 1.94522E-25
9.45503E-01 1.91538E-25
9.47467E-01 1.88627E-25
9.49397E-01 1.85789E-25
9.51293E-01 1.83023E-25
9.53154E-01 1.80327E-25
9.54981E-01 1.77701E-25
9.56773E-01 1.75143E-25
9.58530E-01 1.72653E-25
9.60252E-01 1.70229E-25
9.61940E-01 1.67871E-25
9.63592E-01 1.65577E-25
9.65209E-01 1.63346E-25
9.66790E-01 1.61179E-25
9.68336E-01 1.59073E-25
9.69846E-01 1.57028E-25
9.71321E-01 1.55044E-25
9.72759E-01 1.53119E-25
9.74162E-01 1.51252E-25
9.75528E-01 1.49444E-25
9.76858E-01 1.47693E-25
9.78152E-01 1.45998E-25
9.79410E-01 1.44360E-25
9.80631E-01 1.42777E-25
9.81815E-01 1.41248E-25
9.82963E-01 1.39774E-25
9.84074E-01 1.38353E-25
9.85148E-01 1.36985E-25
9.86185E-01 1.35670E-25
9.87185E-01 1.34407E-25
9.88148E-01 1.33195E-25
9.89074E-01 1.32035E-25
9.89962E-01 1.30925E-25
9.90814E-01 1.29865E-25
9.91627E-01 1.28855E-25
9.92404E-01 1.27895E-25
9.93143E-01 1.26984E-25
9.93844E-01 1.26121E-25
9.94508E-01 1.25307E-25
9.95134E-01 1.24541E-25
9.95722E-01 1.23823E-25
9.96273E-01 1.23152E-25
9.96786E-01 1.22529E-25
9.97261E-01 1.21953E-25
9.97698E-01 1.21423E-25
9.98097E-01 1.20941E-25
9.98459E-01 1.20504E-25
9.98782E-01 1.20115E-25
9.99067E-01 1.19771E-25
9.99315E-01 1.19474E-25
9.99524E-01 1.19222E-25
9.99695E-01 1.19016E-25
9.99829E-01 1.18856E-25
9.99924E-01 1.18742E-25
9.99981E-01 1.18674E-25
1.00000E+00 1.18651E-25
