 #
 # Subroutine ELSEPA. Elastic scattering of electrons and positrons
 #                    by neutral atoms and positive ions
 #
 # Projectile: positron
 # Kinetic energy = 3.50000E+07 eV = 1.28623E+06 a.u.
 #
 # WARNING: High-energy factorization with free-atom DF screening.
 #          Absorption, polarization and exchange corrections are
 #          switched off.
 #          Phase shifts are calculated for the bare nucleus.
 #          Scattering amplitudes are not evaluated.
 #
 # Element: Fe,  Z =  26,  atomic weight = 5.58450E+01 g/mol
 #
 # Nuclear model: Fermi distribution
 #                Average radius = 4.08989E-13 cm
 #                Skin thickness = 5.46000E-14 cm
 #
 # Number of electrons = 26
 #
 # Total elastic cross section = 1.95959E-18 cm**2 = 6.99783E-02 a0**2
 # 1st transport cross section = 1.00269E-24 cm**2 = 3.58067E-08 a0**2
 # 2nd transport cross section = 2.92968E-24 cm**2 = 1.04621E-07 a0**2
 #
 #
 # Differential cross section:                       MU=(1-COS(THETA))/2
 #
 #  THETA        MU          DCS          DCS        Sherman      error
 #  (deg)                 (cm**2/sr)   (a0**2/sr)    function
 #----------------------------------------------------------------------
0.00000E+00 2.45387E-11
7.61557E-13 2.45294E-11
1.18994E-12 2.45242E-11
1.71346E-12 2.45178E-11
2.33225E-12 2.45103E-11
3.04617E-12 2.45017E-11
3.85530E-12 2.44919E-11
4.75964E-12 2.44809E-11
5.75917E-12 2.44688E-11
6.85391E-12 2.44556E-11
8.04379E-12 2.44412E-11
9.32893E-12 2.44257E-11
1.07092E-11 2.44091E-11
1.21847E-11 2.43914E-11
1.37554E-11 2.43725E-11
1.54213E-11 2.43525E-11
1.71823E-11 2.43314E-11
1.90386E-11 2.43092E-11
2.09900E-11 2.42859E-11
2.30367E-11 2.42615E-11
2.51785E-11 2.42360E-11
2.74156E-11 2.42095E-11
2.97478E-11 2.41818E-11
3.21752E-11 2.41531E-11
3.46979E-11 2.41233E-11
3.73157E-11 2.40924E-11
4.00286E-11 2.40605E-11
4.28368E-11 2.40275E-11
4.57402E-11 2.39935E-11
4.87388E-11 2.39585E-11
5.18325E-11 2.39224E-11
5.50215E-11 2.38854E-11
5.83057E-11 2.38473E-11
6.16850E-11 2.38082E-11
6.51595E-11 2.37681E-11
6.87293E-11 2.37270E-11
7.23943E-11 2.36850E-11
7.61544E-11 2.36420E-11
1.18991E-10 2.31608E-11
1.71347E-10 2.25939E-11
2.33223E-10 2.19506E-11
3.04617E-10 2.12473E-11
3.85531E-10 2.04931E-11
4.75965E-10 1.96998E-11
5.75917E-10 1.88832E-11
6.85389E-10 1.80492E-11
8.04380E-10 1.72103E-11
9.32891E-10 1.63784E-11
1.07092E-09 1.55544E-11
1.21847E-09 1.47501E-11
1.37554E-09 1.39719E-11
1.54213E-09 1.32167E-11
1.71823E-09 1.24947E-11
1.90386E-09 1.18062E-11
2.09900E-09 1.11492E-11
2.30367E-09 1.05285E-11
2.51785E-09 9.94231E-12
2.74156E-09 9.38884E-12
2.97478E-09 8.86980E-12
3.21752E-09 8.38214E-12
3.46978E-09 7.92468E-12
3.73156E-09 7.49732E-12
4.00286E-09 7.09665E-12
4.28368E-09 6.72200E-12
4.57402E-09 6.37247E-12
4.87388E-09 6.04467E-12
5.18326E-09 5.73849E-12
5.50215E-09 5.45275E-12
5.83057E-09 5.18416E-12
6.16850E-09 4.93326E-12
6.51596E-09 4.69848E-12
6.87293E-09 4.47751E-12
7.23942E-09 4.27069E-12
7.61544E-09 4.07645E-12
1.18991E-08 2.64972E-12
1.71347E-08 1.80682E-12
2.33223E-08 1.25138E-12
3.04617E-08 9.03567E-13
3.85531E-08 6.57520E-13
4.75965E-08 4.83849E-13
5.75917E-08 3.63090E-13
6.85389E-08 2.74102E-13
8.04380E-08 2.09983E-13
9.32891E-08 1.63314E-13
1.07092E-07 1.28237E-13
1.21847E-07 1.02138E-13
1.37554E-07 8.23929E-14
1.54213E-07 6.71601E-14
1.71823E-07 5.53864E-14
1.90386E-07 4.61476E-14
2.09900E-07 3.87991E-14
2.30367E-07 3.29110E-14
2.51785E-07 2.81362E-14
2.74156E-07 2.42194E-14
2.97478E-07 2.09877E-14
3.21752E-07 1.82909E-14
3.46978E-07 1.60220E-14
3.73156E-07 1.41059E-14
4.00286E-07 1.24689E-14
4.28368E-07 1.10654E-14
4.57402E-07 9.85856E-15
4.87388E-07 8.80751E-15
5.18325E-07 7.89402E-15
5.50215E-07 7.09753E-15
5.83057E-07 6.39467E-15
6.16850E-07 5.77749E-15
6.51596E-07 5.23272E-15
6.87293E-07 4.74797E-15
7.23942E-07 4.31822E-15
7.61543E-07 3.93507E-15
1.18991E-06 1.70261E-15
1.71347E-06 8.43074E-16
2.33223E-06 4.62175E-16
3.04617E-06 2.74211E-16
3.85531E-06 1.72960E-16
4.75964E-06 1.14546E-16
5.75916E-06 7.88932E-17
6.85388E-06 5.61182E-17
8.04378E-06 4.10117E-17
9.32888E-06 3.06623E-17
1.07092E-05 2.33816E-17
1.21846E-05 1.81377E-17
1.37553E-05 1.42828E-17
1.54212E-05 1.13988E-17
1.71822E-05 9.20591E-18
1.90385E-05 7.51479E-18
2.09899E-05 6.19495E-18
2.30365E-05 5.15173E-18
2.51783E-05 4.31863E-18
2.74153E-05 3.64688E-18
2.97475E-05 3.10051E-18
3.21749E-05 2.65259E-18
3.46974E-05 2.28261E-18
3.73152E-05 1.97490E-18
4.00281E-05 1.71730E-18
4.28362E-05 1.50031E-18
4.57395E-05 1.31649E-18
4.87380E-05 1.15992E-18
5.18317E-05 1.02591E-18
5.50205E-05 9.10665E-19
5.83045E-05 8.11136E-19
6.16838E-05 7.24828E-19
6.51582E-05 6.49694E-19
6.87277E-05 5.84043E-19
7.23925E-05 5.26474E-19
7.61524E-05 4.75820E-19
9.21439E-05 3.25061E-19
1.09658E-04 2.29517E-19
1.28695E-04 1.66620E-19
1.49255E-04 1.23851E-19
1.71338E-04 9.39598E-20
1.94942E-04 7.25599E-20
2.20070E-04 5.69167E-20
2.46720E-04 4.52684E-20
2.74892E-04 3.64510E-20
3.04586E-04 2.96784E-20
3.35803E-04 2.44069E-20
3.68542E-04 2.02547E-20
4.02802E-04 1.69484E-20
4.38585E-04 1.42895E-20
4.75889E-04 1.21317E-20
5.14715E-04 1.03658E-20
5.55063E-04 8.90963E-21
5.96931E-04 7.70012E-21
6.40321E-04 6.68886E-21
6.85233E-04 5.83812E-21
7.31665E-04 5.11828E-21
7.79618E-04 4.50592E-21
8.29092E-04 3.98235E-21
8.80086E-04 3.53257E-21
9.32601E-04 3.14445E-21
9.86636E-04 2.80813E-21
1.04219E-03 2.51554E-21
1.09927E-03 2.26003E-21
1.15786E-03 2.03610E-21
1.21797E-03 1.83919E-21
1.27961E-03 1.66548E-21
1.34276E-03 1.51178E-21
1.40743E-03 1.37537E-21
1.47362E-03 1.25398E-21
1.54133E-03 1.14567E-21
1.61056E-03 1.04879E-21
1.68131E-03 9.61911E-22
1.75357E-03 8.83831E-22
1.82735E-03 8.13500E-22
1.90265E-03 7.50013E-22
1.97947E-03 6.92589E-22
2.05780E-03 6.40546E-22
2.13765E-03 5.93290E-22
2.21902E-03 5.50304E-22
2.30190E-03 5.11132E-22
2.38630E-03 4.75377E-22
2.47222E-03 4.42688E-22
2.55965E-03 4.12754E-22
2.64859E-03 3.85302E-22
2.73905E-03 3.60089E-22
2.83103E-03 3.36900E-22
2.92452E-03 3.15543E-22
3.01952E-03 2.95848E-22
3.11604E-03 2.77662E-22
3.21407E-03 2.60848E-22
3.31362E-03 2.45285E-22
3.41468E-03 2.30862E-22
3.51725E-03 2.17481E-22
3.62133E-03 2.05052E-22
3.72692E-03 1.93496E-22
3.83403E-03 1.82741E-22
3.94265E-03 1.72720E-22
4.05278E-03 1.63375E-22
4.16442E-03 1.54651E-22
4.27757E-03 1.46500E-22
4.39223E-03 1.38878E-22
4.50840E-03 1.31743E-22
4.62608E-03 1.25059E-22
4.74527E-03 1.18792E-22
4.86597E-03 1.12912E-22
4.98817E-03 1.07389E-22
5.11188E-03 1.02199E-22
5.23711E-03 9.73179E-23
5.36383E-03 9.27235E-23
5.49207E-03 8.83961E-23
5.62181E-03 8.43173E-23
5.75306E-03 8.04701E-23
5.88581E-03 7.68391E-23
6.02007E-03 7.34098E-23
6.15583E-03 7.01689E-23
6.29310E-03 6.71042E-23
6.43187E-03 6.42043E-23
6.57214E-03 6.14588E-23
6.71392E-03 5.88579E-23
6.85720E-03 5.63925E-23
7.00198E-03 5.40543E-23
7.14827E-03 5.18355E-23
7.29605E-03 4.97289E-23
7.44534E-03 4.77278E-23
7.59612E-03 4.58259E-23
7.97965E-03 4.14678E-23
8.37255E-03 3.76135E-23
8.77480E-03 3.41949E-23
9.18641E-03 3.11541E-23
9.60736E-03 2.84424E-23
1.00376E-02 2.60181E-23
1.04773E-02 2.38453E-23
1.09262E-02 2.18935E-23
1.13844E-02 2.01364E-23
1.18520E-02 1.85511E-23
1.23288E-02 1.71179E-23
1.28150E-02 1.58197E-23
1.33104E-02 1.46416E-23
1.38150E-02 1.35704E-23
1.43290E-02 1.25949E-23
1.48521E-02 1.17049E-23
1.53845E-02 1.08916E-23
1.59262E-02 1.01473E-23
1.64770E-02 9.46513E-24
1.70371E-02 8.83889E-24
1.76063E-02 8.26324E-24
1.81848E-02 7.73336E-24
1.87724E-02 7.24497E-24
1.93692E-02 6.79424E-24
1.99751E-02 6.37775E-24
2.05901E-02 5.99244E-24
2.12143E-02 5.63556E-24
2.18476E-02 5.30464E-24
2.24900E-02 4.99746E-24
2.31415E-02 4.71200E-24
2.38021E-02 4.44645E-24
2.44717E-02 4.19919E-24
2.51504E-02 3.96872E-24
2.58382E-02 3.75371E-24
2.65349E-02 3.55292E-24
2.72407E-02 3.36525E-24
2.79555E-02 3.18969E-24
2.86793E-02 3.02532E-24
2.94120E-02 2.87129E-24
3.01537E-02 2.72684E-24
3.09043E-02 2.59126E-24
3.16639E-02 2.46392E-24
3.24324E-02 2.34422E-24
3.32098E-02 2.23162E-24
3.39961E-02 2.12562E-24
3.47912E-02 2.02578E-24
3.55952E-02 1.93165E-24
3.64081E-02 1.84287E-24
3.72297E-02 1.75907E-24
3.80602E-02 1.67992E-24
3.88995E-02 1.60512E-24
3.97476E-02 1.53438E-24
4.06044E-02 1.46744E-24
4.14700E-02 1.40407E-24
4.23443E-02 1.34404E-24
4.32273E-02 1.28714E-24
4.41190E-02 1.23318E-24
4.50194E-02 1.18197E-24
4.59284E-02 1.13336E-24
4.68461E-02 1.08719E-24
4.87074E-02 1.00159E-24
5.06030E-02 9.24136E-25
5.25328E-02 8.53917E-25
5.44967E-02 7.90142E-25
5.64946E-02 7.32121E-25
5.85262E-02 6.79245E-25
6.05914E-02 6.30980E-25
6.26901E-02 5.86855E-25
6.48222E-02 5.46455E-25
6.69873E-02 5.09411E-25
6.91854E-02 4.75397E-25
7.14163E-02 4.44123E-25
7.36799E-02 4.15330E-25
7.59760E-02 3.88787E-25
7.83043E-02 3.64289E-25
8.06647E-02 3.41651E-25
8.30571E-02 3.20708E-25
8.54812E-02 3.01310E-25
8.79369E-02 2.83325E-25
9.04240E-02 2.66632E-25
9.29422E-02 2.51123E-25
9.54915E-02 2.36698E-25
9.80716E-02 2.23269E-25
1.00682E-01 2.10756E-25
1.03323E-01 1.99085E-25
1.05995E-01 1.88191E-25
1.08696E-01 1.78012E-25
1.11427E-01 1.68493E-25
1.14188E-01 1.59585E-25
1.16978E-01 1.51242E-25
1.19797E-01 1.43421E-25
1.22645E-01 1.36084E-25
1.25522E-01 1.29197E-25
1.28428E-01 1.22727E-25
1.31361E-01 1.16645E-25
1.34323E-01 1.10923E-25
1.37313E-01 1.05536E-25
1.40330E-01 1.00461E-25
1.43375E-01 9.56783E-26
1.46447E-01 9.11668E-26
1.49545E-01 8.69090E-26
1.52671E-01 8.28882E-26
1.55823E-01 7.90889E-26
1.59001E-01 7.54970E-26
1.62205E-01 7.20991E-26
1.65435E-01 6.88831E-26
1.68690E-01 6.58375E-26
1.71970E-01 6.29518E-26
1.75276E-01 6.02163E-26
1.78606E-01 5.76218E-26
1.81961E-01 5.51598E-26
1.85340E-01 5.28225E-26
1.88743E-01 5.06024E-26
1.92169E-01 4.84927E-26
1.95619E-01 4.64870E-26
1.99092E-01 4.45794E-26
2.02589E-01 4.27642E-26
2.06107E-01 4.10363E-26
2.09649E-01 3.93906E-26
2.13212E-01 3.78228E-26
2.16797E-01 3.63285E-26
2.20404E-01 3.49036E-26
2.24032E-01 3.35445E-26
2.27680E-01 3.22476E-26
2.31350E-01 3.10095E-26
2.35040E-01 2.98273E-26
2.38751E-01 2.86979E-26
2.42481E-01 2.76186E-26
2.46231E-01 2.65869E-26
2.50000E-01 2.56002E-26
2.53788E-01 2.46564E-26
2.57595E-01 2.37532E-26
2.61421E-01 2.28886E-26
2.65264E-01 2.20607E-26
2.69126E-01 2.12678E-26
2.73005E-01 2.05080E-26
2.76901E-01 1.97798E-26
2.80814E-01 1.90817E-26
2.84744E-01 1.84122E-26
2.88691E-01 1.77699E-26
2.92653E-01 1.71537E-26
2.96632E-01 1.65622E-26
3.00625E-01 1.59943E-26
3.04634E-01 1.54489E-26
3.08658E-01 1.49251E-26
3.12697E-01 1.44217E-26
3.16749E-01 1.39379E-26
3.20816E-01 1.34729E-26
3.24896E-01 1.30257E-26
3.28990E-01 1.25955E-26
3.33097E-01 1.21817E-26
3.37216E-01 1.17835E-26
3.41348E-01 1.14003E-26
3.45492E-01 1.10313E-26
3.49647E-01 1.06760E-26
3.53814E-01 1.03337E-26
3.57992E-01 1.00041E-26
3.62181E-01 9.68638E-27
3.66381E-01 9.38019E-27
3.70590E-01 9.08504E-27
3.74810E-01 8.80045E-27
3.79039E-01 8.52599E-27
3.83277E-01 8.26125E-27
3.87524E-01 8.00583E-27
3.91780E-01 7.75936E-27
3.96044E-01 7.52147E-27
4.00316E-01 7.29183E-27
4.04596E-01 7.07010E-27
4.08882E-01 6.85598E-27
4.13176E-01 6.64916E-27
4.17476E-01 6.44936E-27
4.21783E-01 6.25631E-27
4.26095E-01 6.06974E-27
4.30413E-01 5.88941E-27
4.34737E-01 5.71508E-27
4.39065E-01 5.54652E-27
4.43398E-01 5.38351E-27
4.47736E-01 5.22584E-27
4.52077E-01 5.07332E-27
4.56422E-01 4.92575E-27
4.60770E-01 4.78295E-27
4.65122E-01 4.64474E-27
4.69476E-01 4.51095E-27
4.73832E-01 4.38143E-27
4.78190E-01 4.25602E-27
4.82550E-01 4.13457E-27
4.86912E-01 4.01694E-27
4.91274E-01 3.90299E-27
4.95637E-01 3.79258E-27
5.00000E-01 3.68561E-27
5.04363E-01 3.58194E-27
5.08726E-01 3.48146E-27
5.13088E-01 3.38405E-27
5.17450E-01 3.28962E-27
5.21810E-01 3.19805E-27
5.26168E-01 3.10925E-27
5.30524E-01 3.02313E-27
5.34878E-01 2.93959E-27
5.39230E-01 2.85855E-27
5.43578E-01 2.77992E-27
5.47923E-01 2.70362E-27
5.52264E-01 2.62957E-27
5.56602E-01 2.55770E-27
5.60935E-01 2.48793E-27
5.65263E-01 2.42020E-27
5.69587E-01 2.35444E-27
5.73905E-01 2.29058E-27
5.78217E-01 2.22857E-27
5.82524E-01 2.16834E-27
5.86824E-01 2.10983E-27
5.91118E-01 2.05299E-27
5.95404E-01 1.99777E-27
5.99684E-01 1.94411E-27
6.03956E-01 1.89197E-27
6.08220E-01 1.84129E-27
6.12476E-01 1.79204E-27
6.16723E-01 1.74416E-27
6.20961E-01 1.69761E-27
6.25190E-01 1.65235E-27
6.29410E-01 1.60835E-27
6.33619E-01 1.56556E-27
6.37819E-01 1.52394E-27
6.42008E-01 1.48347E-27
6.46186E-01 1.44409E-27
6.50353E-01 1.40579E-27
6.54508E-01 1.36853E-27
6.58652E-01 1.33228E-27
6.62784E-01 1.29700E-27
6.66903E-01 1.26267E-27
6.71010E-01 1.22926E-27
6.75104E-01 1.19674E-27
6.79184E-01 1.16509E-27
6.83251E-01 1.13428E-27
6.87303E-01 1.10428E-27
6.91342E-01 1.07508E-27
6.95366E-01 1.04664E-27
6.99375E-01 1.01895E-27
7.03368E-01 9.91989E-28
7.07347E-01 9.65729E-28
7.11309E-01 9.40153E-28
7.15256E-01 9.15240E-28
7.19186E-01 8.90973E-28
7.23099E-01 8.67333E-28
7.26995E-01 8.44302E-28
7.30874E-01 8.21863E-28
7.34736E-01 8.00000E-28
7.38579E-01 7.78695E-28
7.42405E-01 7.57935E-28
7.46212E-01 7.37702E-28
7.50000E-01 7.17984E-28
7.53769E-01 6.98766E-28
7.57519E-01 6.80033E-28
7.61249E-01 6.61774E-28
7.64960E-01 6.43974E-28
7.68650E-01 6.26621E-28
7.72320E-01 6.09703E-28
7.75968E-01 5.93209E-28
7.79596E-01 5.77127E-28
7.83203E-01 5.61446E-28
7.86788E-01 5.46155E-28
7.90351E-01 5.31244E-28
7.93893E-01 5.16703E-28
7.97411E-01 5.02521E-28
8.00908E-01 4.88691E-28
8.04381E-01 4.75202E-28
8.07831E-01 4.62045E-28
8.11257E-01 4.49212E-28
8.14660E-01 4.36694E-28
8.18039E-01 4.24483E-28
8.21394E-01 4.12572E-28
8.24724E-01 4.00953E-28
8.28030E-01 3.89617E-28
8.31310E-01 3.78559E-28
8.34565E-01 3.67771E-28
8.37795E-01 3.57245E-28
8.40999E-01 3.46977E-28
8.44177E-01 3.36958E-28
8.47329E-01 3.27183E-28
8.50455E-01 3.17646E-28
8.53553E-01 3.08341E-28
8.56625E-01 2.99262E-28
8.59670E-01 2.90403E-28
8.62687E-01 2.81760E-28
8.65677E-01 2.73327E-28
8.68639E-01 2.65098E-28
8.71572E-01 2.57070E-28
8.74478E-01 2.49237E-28
8.77355E-01 2.41594E-28
8.80203E-01 2.34137E-28
8.83022E-01 2.26862E-28
8.85812E-01 2.19764E-28
8.88573E-01 2.12840E-28
8.91304E-01 2.06084E-28
8.94005E-01 1.99494E-28
8.96677E-01 1.93064E-28
8.99318E-01 1.86793E-28
9.01928E-01 1.80676E-28
9.04508E-01 1.74709E-28
9.07058E-01 1.68889E-28
9.09576E-01 1.63213E-28
9.12063E-01 1.57678E-28
9.14519E-01 1.52280E-28
9.16943E-01 1.47017E-28
9.19335E-01 1.41885E-28
9.21696E-01 1.36883E-28
9.24024E-01 1.32006E-28
9.26320E-01 1.27252E-28
9.28584E-01 1.22619E-28
9.30815E-01 1.18104E-28
9.33013E-01 1.13704E-28
9.35178E-01 1.09418E-28
9.37310E-01 1.05242E-28
9.39409E-01 1.01175E-28
9.41474E-01 9.72147E-29
9.43505E-01 9.33584E-29
9.45503E-01 8.96043E-29
9.47467E-01 8.59504E-29
9.49397E-01 8.23947E-29
9.51293E-01 7.89352E-29
9.53154E-01 7.55703E-29
9.54981E-01 7.22981E-29
9.56773E-01 6.91168E-29
9.58530E-01 6.60249E-29
9.60252E-01 6.30206E-29
9.61940E-01 6.01024E-29
9.63592E-01 5.72688E-29
9.65209E-01 5.45182E-29
9.66790E-01 5.18493E-29
9.68336E-01 4.92607E-29
9.69846E-01 4.67511E-29
9.71321E-01 4.43190E-29
9.72759E-01 4.19634E-29
9.74162E-01 3.96829E-29
9.75528E-01 3.74764E-29
9.76858E-01 3.53428E-29
9.78152E-01 3.32810E-29
9.79410E-01 3.12899E-29
9.80631E-01 2.93686E-29
9.81815E-01 2.75159E-29
9.82963E-01 2.57311E-29
9.84074E-01 2.40132E-29
9.85148E-01 2.23613E-29
9.86185E-01 2.07746E-29
9.87185E-01 1.92522E-29
9.88148E-01 1.77936E-29
9.89074E-01 1.63978E-29
9.89962E-01 1.50642E-29
9.90814E-01 1.37921E-29
9.91627E-01 1.25809E-29
9.92404E-01 1.14300E-29
9.93143E-01 1.03389E-29
9.93844E-01 9.30684E-30
9.94508E-01 8.33349E-30
9.95134E-01 7.41830E-30
9.95722E-01 6.56082E-30
9.96273E-01 5.76064E-30
9.96786E-01 5.01735E-30
9.97261E-01 4.33058E-30
9.97698E-01 3.69999E-30
9.98097E-01 3.12528E-30
9.98459E-01 2.60615E-30
9.98782E-01 2.14236E-30
9.99067E-01 1.73366E-30
9.99315E-01 1.37987E-30
9.99524E-01 1.08080E-30
9.99695E-01 8.36305E-31
9.99829E-01 6.46271E-31
9.99924E-01 5.10596E-31
9.99981E-01 4.29221E-31
1.00000E+00 4.02094E-31
