 #
 # Subroutine ELSEPA. Elastic scattering of electrons and positrons
 #                    by neutral atoms and positive ions
 #
 # Projectile: electron
 # Kinetic energy = 4.50000E+07 eV = 1.65372E+06 a.u.
 #
 # WARNING: High-energy factorization with free-atom DF screening.
 #          Absorption, polarization and exchange corrections are
 #          switched off.
 #          Phase shifts are calculated for the bare nucleus.
 #          Scattering amplitudes are not evaluated.
 #
 # Element: Os,  Z =  76,  atomic weight = 1.90230E+02 g/mol
 #
 # Nuclear model: Fermi distribution
 #                Average radius = 6.15380E-13 cm
 #                Skin thickness = 5.46000E-14 cm
 #
 # Number of electrons = 76
 #
 # Total elastic cross section = 7.68081E-18 cm**2 = 2.74287E-01 a0**2
 # 1st transport cross section = 5.35210E-24 cm**2 = 1.91127E-07 a0**2
 # 2nd transport cross section = 1.56220E-23 cm**2 = 5.57873E-07 a0**2
 #
 #
 # Differential cross section:                       MU=(1-COS(THETA))/2
 #
 #  THETA        MU          DCS          DCS        Sherman      error
 #  (deg)                 (cm**2/sr)   (a0**2/sr)    function
 #----------------------------------------------------------------------
0.00000E+00 1.06688E-10
7.61557E-13 1.06640E-10
1.18994E-12 1.06614E-10
1.71346E-12 1.06581E-10
2.33225E-12 1.06542E-10
3.04617E-12 1.06498E-10
3.85530E-12 1.06448E-10
4.75964E-12 1.06392E-10
5.75917E-12 1.06330E-10
6.85391E-12 1.06262E-10
8.04379E-12 1.06188E-10
9.32893E-12 1.06109E-10
1.07092E-11 1.06024E-10
1.21847E-11 1.05933E-10
1.37554E-11 1.05837E-10
1.54213E-11 1.05735E-10
1.71823E-11 1.05627E-10
1.90386E-11 1.05513E-10
2.09900E-11 1.05394E-10
2.30367E-11 1.05270E-10
2.51785E-11 1.05140E-10
2.74156E-11 1.05004E-10
2.97478E-11 1.04863E-10
3.21752E-11 1.04717E-10
3.46979E-11 1.04565E-10
3.73157E-11 1.04408E-10
4.00286E-11 1.04246E-10
4.28368E-11 1.04078E-10
4.57402E-11 1.03905E-10
4.87388E-11 1.03727E-10
5.18325E-11 1.03544E-10
5.50215E-11 1.03356E-10
5.83057E-11 1.03163E-10
6.16850E-11 1.02965E-10
6.51595E-11 1.02762E-10
6.87293E-11 1.02554E-10
7.23943E-11 1.02342E-10
7.61544E-11 1.02125E-10
1.18991E-10 9.96997E-11
1.71347E-10 9.68784E-11
2.33223E-10 9.37057E-11
3.04617E-10 9.02647E-11
3.85531E-10 8.66270E-11
4.75965E-10 8.28604E-11
5.75917E-10 7.90264E-11
6.85389E-10 7.51708E-11
8.04380E-10 7.13269E-11
9.32891E-10 6.75560E-11
1.07092E-09 6.38896E-11
1.21847E-09 6.03517E-11
1.37554E-09 5.69592E-11
1.54213E-09 5.37137E-11
1.71823E-09 5.06207E-11
1.90386E-09 4.76966E-11
2.09900E-09 4.49408E-11
2.30367E-09 4.23497E-11
2.51785E-09 3.99182E-11
2.74156E-09 3.76320E-11
2.97478E-09 3.54872E-11
3.21752E-09 3.34825E-11
3.46978E-09 3.16096E-11
3.73156E-09 2.98602E-11
4.00286E-09 2.82261E-11
4.28368E-09 2.66935E-11
4.57402E-09 2.52595E-11
4.87388E-09 2.39196E-11
5.18326E-09 2.26668E-11
5.50215E-09 2.14949E-11
5.83057E-09 2.03978E-11
6.16850E-09 1.93656E-11
6.51596E-09 1.83975E-11
6.87293E-09 1.74896E-11
7.23942E-09 1.66375E-11
7.61544E-09 1.58372E-11
1.18991E-08 9.89989E-12
1.71347E-08 6.56296E-12
2.33223E-08 4.47889E-12
3.04617E-08 3.17144E-12
3.85531E-08 2.31416E-12
4.75965E-08 1.73122E-12
5.75917E-08 1.32229E-12
6.85389E-08 1.02646E-12
8.04380E-08 8.06726E-13
9.32891E-08 6.42292E-13
1.07092E-07 5.17062E-13
1.21847E-07 4.20302E-13
1.37554E-07 3.44638E-13
1.54213E-07 2.84709E-13
1.71823E-07 2.36901E-13
1.90386E-07 1.98640E-13
2.09900E-07 1.67766E-13
2.30367E-07 1.42663E-13
2.51785E-07 1.22110E-13
2.74156E-07 1.05184E-13
2.97478E-07 9.10404E-14
3.21752E-07 7.92365E-14
3.46978E-07 6.93323E-14
3.73156E-07 6.09702E-14
4.00286E-07 5.38658E-14
4.28368E-07 4.77842E-14
4.57402E-07 4.25503E-14
4.87388E-07 3.80237E-14
5.18325E-07 3.40896E-14
5.50215E-07 3.06552E-14
5.83057E-07 2.76451E-14
6.16850E-07 2.49936E-14
6.51596E-07 2.26544E-14
6.87293E-07 2.05850E-14
7.23942E-07 1.87485E-14
7.61543E-07 1.71138E-14
1.18991E-06 7.57496E-15
1.71347E-06 3.84951E-15
2.33223E-06 2.15708E-15
3.04617E-06 1.30043E-15
3.85531E-06 8.29820E-16
4.75964E-06 5.54177E-16
5.75916E-06 3.84146E-16
6.85388E-06 2.74665E-16
8.04378E-06 2.01583E-16
9.32888E-06 1.51277E-16
1.07092E-05 1.15726E-16
1.21846E-05 9.00272E-17
1.37553E-05 7.10760E-17
1.54212E-05 5.68540E-17
1.71822E-05 4.60138E-17
1.90385E-05 3.76140E-17
2.09899E-05 3.10815E-17
2.30365E-05 2.59018E-17
2.51783E-05 2.17504E-17
2.74153E-05 1.83929E-17
2.97475E-05 1.56564E-17
3.21749E-05 1.34102E-17
3.46974E-05 1.15539E-17
3.73152E-05 1.00094E-17
4.00281E-05 8.71574E-18
4.28362E-05 7.62507E-18
4.57395E-05 6.69986E-18
4.87380E-05 5.91057E-18
5.18317E-05 5.23385E-18
5.50205E-05 4.65107E-18
5.83045E-05 4.14714E-18
6.16838E-05 3.70975E-18
6.51582E-05 3.32869E-18
6.87277E-05 2.99548E-18
7.23925E-05 2.70307E-18
7.61524E-05 2.44524E-18
9.21439E-05 1.67691E-18
1.09658E-04 1.18813E-18
1.28695E-04 8.65332E-19
1.49255E-04 6.45111E-19
1.71338E-04 4.90764E-19
1.94942E-04 3.79963E-19
2.20070E-04 2.98765E-19
2.46720E-04 2.38164E-19
2.74892E-04 1.92191E-19
3.04586E-04 1.56806E-19
3.35803E-04 1.29213E-19
3.68542E-04 1.07438E-19
4.02802E-04 9.00691E-20
4.38585E-04 7.60782E-20
4.75889E-04 6.47058E-20
5.14715E-04 5.53853E-20
5.55063E-04 4.76873E-20
5.96931E-04 4.12844E-20
6.40321E-04 3.59235E-20
6.85233E-04 3.14072E-20
7.31665E-04 2.75808E-20
7.79618E-04 2.43214E-20
8.29092E-04 2.15310E-20
8.80086E-04 1.91307E-20
9.32601E-04 1.70569E-20
9.86636E-04 1.52577E-20
1.04219E-03 1.36903E-20
1.09927E-03 1.23200E-20
1.15786E-03 1.11175E-20
1.21797E-03 1.00589E-20
1.27961E-03 9.12387E-21
1.34276E-03 8.29548E-21
1.40743E-03 7.55946E-21
1.47362E-03 6.90366E-21
1.54133E-03 6.31783E-21
1.61056E-03 5.79316E-21
1.68131E-03 5.32213E-21
1.75357E-03 4.89827E-21
1.82735E-03 4.51603E-21
1.90265E-03 4.17057E-21
1.97947E-03 3.85772E-21
2.05780E-03 3.57384E-21
2.13765E-03 3.31576E-21
2.21902E-03 3.08072E-21
2.30190E-03 2.86628E-21
2.38630E-03 2.67030E-21
2.47222E-03 2.49091E-21
2.55965E-03 2.32643E-21
2.64859E-03 2.17541E-21
2.73905E-03 2.03654E-21
2.83103E-03 1.90866E-21
2.92452E-03 1.79074E-21
3.01952E-03 1.68186E-21
3.11604E-03 1.58119E-21
3.21407E-03 1.48801E-21
3.31362E-03 1.40164E-21
3.41468E-03 1.32151E-21
3.51725E-03 1.24707E-21
3.62133E-03 1.17784E-21
3.72692E-03 1.11339E-21
3.83403E-03 1.05334E-21
3.94265E-03 9.97307E-22
4.05278E-03 9.44989E-22
4.16442E-03 8.96090E-22
4.27757E-03 8.50343E-22
4.39223E-03 8.07505E-22
4.50840E-03 7.67356E-22
4.62608E-03 7.29698E-22
4.74527E-03 6.94343E-22
4.86597E-03 6.61123E-22
4.98817E-03 6.29890E-22
5.11188E-03 6.00495E-22
5.23711E-03 5.72812E-22
5.36383E-03 5.46725E-22
5.49207E-03 5.22119E-22
5.62181E-03 4.98896E-22
5.75306E-03 4.76965E-22
5.88581E-03 4.56238E-22
6.02007E-03 4.36636E-22
6.15583E-03 4.18087E-22
6.29310E-03 4.00524E-22
6.43187E-03 3.83882E-22
6.57214E-03 3.68105E-22
6.71392E-03 3.53140E-22
6.85720E-03 3.38935E-22
7.00198E-03 3.25445E-22
7.14827E-03 3.12627E-22
7.29605E-03 3.00441E-22
7.44534E-03 2.88849E-22
7.59612E-03 2.77818E-22
7.97965E-03 2.52480E-22
8.37255E-03 2.29995E-22
8.77480E-03 2.09984E-22
9.18641E-03 1.92125E-22
9.60736E-03 1.76144E-22
1.00376E-02 1.61808E-22
1.04773E-02 1.48915E-22
1.09262E-02 1.37295E-22
1.13844E-02 1.26797E-22
1.18520E-02 1.17294E-22
1.23288E-02 1.08674E-22
1.28150E-02 1.00840E-22
1.33104E-02 9.37018E-23
1.38150E-02 8.71899E-23
1.43290E-02 8.12388E-23
1.48521E-02 7.57910E-23
1.53845E-02 7.07960E-23
1.59262E-02 6.62089E-23
1.64770E-02 6.19900E-23
1.70371E-02 5.81043E-23
1.76063E-02 5.45202E-23
1.81848E-02 5.12099E-23
1.87724E-02 4.81486E-23
1.93692E-02 4.53138E-23
1.99751E-02 4.26855E-23
2.05901E-02 4.02459E-23
2.12143E-02 3.79788E-23
2.18476E-02 3.58696E-23
2.24900E-02 3.39052E-23
2.31415E-02 3.20738E-23
2.38021E-02 3.03645E-23
2.44717E-02 2.87677E-23
2.51504E-02 2.72745E-23
2.58382E-02 2.58769E-23
2.65349E-02 2.45677E-23
2.72407E-02 2.33400E-23
2.79555E-02 2.21879E-23
2.86793E-02 2.11059E-23
2.94120E-02 2.00887E-23
3.01537E-02 1.91318E-23
3.09043E-02 1.82310E-23
3.16639E-02 1.73822E-23
3.24324E-02 1.65819E-23
3.32098E-02 1.58268E-23
3.39961E-02 1.51139E-23
3.47912E-02 1.44403E-23
3.55952E-02 1.38034E-23
3.64081E-02 1.32009E-23
3.72297E-02 1.26305E-23
3.80602E-02 1.20903E-23
3.88995E-02 1.15782E-23
3.97476E-02 1.10926E-23
4.06044E-02 1.06318E-23
4.14700E-02 1.01943E-23
4.23443E-02 9.77869E-24
4.32273E-02 9.38369E-24
4.41190E-02 9.00807E-24
4.50194E-02 8.65070E-24
4.59284E-02 8.31052E-24
4.68461E-02 7.98655E-24
4.87074E-02 7.38360E-24
5.06030E-02 6.83522E-24
5.25328E-02 6.33558E-24
5.44967E-02 5.87957E-24
5.64946E-02 5.46272E-24
5.85262E-02 5.08106E-24
6.05914E-02 4.73110E-24
6.26901E-02 4.40975E-24
6.48222E-02 4.11425E-24
6.69873E-02 3.84217E-24
6.91854E-02 3.59133E-24
7.14163E-02 3.35979E-24
7.36799E-02 3.14580E-24
7.59760E-02 2.94782E-24
7.83043E-02 2.76443E-24
8.06647E-02 2.59439E-24
8.30571E-02 2.43656E-24
8.54812E-02 2.28991E-24
8.79369E-02 2.15353E-24
9.04240E-02 2.02658E-24
9.29422E-02 1.90830E-24
9.54915E-02 1.79800E-24
9.80716E-02 1.69506E-24
1.00682E-01 1.59891E-24
1.03323E-01 1.50903E-24
1.05995E-01 1.42495E-24
1.08696E-01 1.34624E-24
1.11427E-01 1.27249E-24
1.14188E-01 1.20336E-24
1.16978E-01 1.13850E-24
1.19797E-01 1.07762E-24
1.22645E-01 1.02043E-24
1.25522E-01 9.66683E-25
1.28428E-01 9.16135E-25
1.31361E-01 8.68569E-25
1.34323E-01 8.23785E-25
1.37313E-01 7.81598E-25
1.40330E-01 7.41837E-25
1.43375E-01 7.04341E-25
1.46447E-01 6.68966E-25
1.49545E-01 6.35574E-25
1.52671E-01 6.04041E-25
1.55823E-01 5.74248E-25
1.59001E-01 5.46088E-25
1.62205E-01 5.19460E-25
1.65435E-01 4.94269E-25
1.68690E-01 4.70429E-25
1.71970E-01 4.47857E-25
1.75276E-01 4.26479E-25
1.78606E-01 4.06224E-25
1.81961E-01 3.87026E-25
1.85340E-01 3.68822E-25
1.88743E-01 3.51557E-25
1.92169E-01 3.35175E-25
1.95619E-01 3.19626E-25
1.99092E-01 3.04865E-25
2.02589E-01 2.90845E-25
2.06107E-01 2.77526E-25
2.09649E-01 2.64870E-25
2.13212E-01 2.52839E-25
2.16797E-01 2.41400E-25
2.20404E-01 2.30520E-25
2.24032E-01 2.20171E-25
2.27680E-01 2.10322E-25
2.31350E-01 2.00948E-25
2.35040E-01 1.92023E-25
2.38751E-01 1.83525E-25
2.42481E-01 1.75430E-25
2.46231E-01 1.67718E-25
2.50000E-01 1.60369E-25
2.53788E-01 1.53364E-25
2.57595E-01 1.46687E-25
2.61421E-01 1.40319E-25
2.65264E-01 1.34247E-25
2.69126E-01 1.28454E-25
2.73005E-01 1.22928E-25
2.76901E-01 1.17654E-25
2.80814E-01 1.12620E-25
2.84744E-01 1.07816E-25
2.88691E-01 1.03228E-25
2.92653E-01 9.88473E-26
2.96632E-01 9.46634E-26
3.00625E-01 9.06667E-26
3.04634E-01 8.68484E-26
3.08658E-01 8.31999E-26
3.12697E-01 7.97132E-26
3.16749E-01 7.63805E-26
3.20816E-01 7.31947E-26
3.24896E-01 7.01488E-26
3.28990E-01 6.72364E-26
3.33097E-01 6.44511E-26
3.37216E-01 6.17871E-26
3.41348E-01 5.92387E-26
3.45492E-01 5.68008E-26
3.49647E-01 5.44681E-26
3.53814E-01 5.22360E-26
3.57992E-01 5.00998E-26
3.62181E-01 4.80551E-26
3.66381E-01 4.60979E-26
3.70590E-01 4.42241E-26
3.74810E-01 4.24301E-26
3.79039E-01 4.07123E-26
3.83277E-01 3.90672E-26
3.87524E-01 3.74917E-26
3.91780E-01 3.59826E-26
3.96044E-01 3.45370E-26
4.00316E-01 3.31522E-26
4.04596E-01 3.18253E-26
4.08882E-01 3.05540E-26
4.13176E-01 2.93358E-26
4.17476E-01 2.81682E-26
4.21783E-01 2.70493E-26
4.26095E-01 2.59768E-26
4.30413E-01 2.49487E-26
4.34737E-01 2.39631E-26
4.39065E-01 2.30182E-26
4.43398E-01 2.21122E-26
4.47736E-01 2.12435E-26
4.52077E-01 2.04104E-26
4.56422E-01 1.96115E-26
4.60770E-01 1.88453E-26
4.65122E-01 1.81104E-26
4.69476E-01 1.74054E-26
4.73832E-01 1.67292E-26
4.78190E-01 1.60804E-26
4.82550E-01 1.54580E-26
4.86912E-01 1.48608E-26
4.91274E-01 1.42878E-26
4.95637E-01 1.37379E-26
5.00000E-01 1.32102E-26
5.04363E-01 1.27037E-26
5.08726E-01 1.22177E-26
5.13088E-01 1.17511E-26
5.17450E-01 1.13032E-26
5.21810E-01 1.08733E-26
5.26168E-01 1.04605E-26
5.30524E-01 1.00643E-26
5.34878E-01 9.68376E-27
5.39230E-01 9.31842E-27
5.43578E-01 8.96758E-27
5.47923E-01 8.63067E-27
5.52264E-01 8.30710E-27
5.56602E-01 7.99633E-27
5.60935E-01 7.69783E-27
5.65263E-01 7.41110E-27
5.69587E-01 7.13567E-27
5.73905E-01 6.87105E-27
5.78217E-01 6.61683E-27
5.82524E-01 6.37256E-27
5.86824E-01 6.13785E-27
5.91118E-01 5.91231E-27
5.95404E-01 5.69557E-27
5.99684E-01 5.48726E-27
6.03956E-01 5.28705E-27
6.08220E-01 5.09460E-27
6.12476E-01 4.90961E-27
6.16723E-01 4.73177E-27
6.20961E-01 4.56080E-27
6.25190E-01 4.39641E-27
6.29410E-01 4.23835E-27
6.33619E-01 4.08635E-27
6.37819E-01 3.94017E-27
6.42008E-01 3.79958E-27
6.46186E-01 3.66436E-27
6.50353E-01 3.53429E-27
6.54508E-01 3.40916E-27
6.58652E-01 3.28877E-27
6.62784E-01 3.17295E-27
6.66903E-01 3.06149E-27
6.71010E-01 2.95423E-27
6.75104E-01 2.85101E-27
6.79184E-01 2.75165E-27
6.83251E-01 2.65602E-27
6.87303E-01 2.56395E-27
6.91342E-01 2.47531E-27
6.95366E-01 2.38996E-27
6.99375E-01 2.30777E-27
7.03368E-01 2.22861E-27
7.07347E-01 2.15237E-27
7.11309E-01 2.07894E-27
7.15256E-01 2.00819E-27
7.19186E-01 1.94002E-27
7.23099E-01 1.87434E-27
7.26995E-01 1.81104E-27
7.30874E-01 1.75004E-27
7.34736E-01 1.69123E-27
7.38579E-01 1.63454E-27
7.42405E-01 1.57988E-27
7.46212E-01 1.52717E-27
7.50000E-01 1.47634E-27
7.53769E-01 1.42731E-27
7.57519E-01 1.38001E-27
7.61249E-01 1.33438E-27
7.64960E-01 1.29035E-27
7.68650E-01 1.24785E-27
7.72320E-01 1.20684E-27
7.75968E-01 1.16725E-27
7.79596E-01 1.12903E-27
7.83203E-01 1.09212E-27
7.86788E-01 1.05647E-27
7.90351E-01 1.02204E-27
7.93893E-01 9.88784E-28
7.97411E-01 9.56648E-28
8.00908E-01 9.25594E-28
8.04381E-01 8.95581E-28
8.07831E-01 8.66569E-28
8.11257E-01 8.38521E-28
8.14660E-01 8.11399E-28
8.18039E-01 7.85170E-28
8.21394E-01 7.59799E-28
8.24724E-01 7.35255E-28
8.28030E-01 7.11507E-28
8.31310E-01 6.88525E-28
8.34565E-01 6.66281E-28
8.37795E-01 6.44748E-28
8.40999E-01 6.23900E-28
8.44177E-01 6.03710E-28
8.47329E-01 5.84157E-28
8.50455E-01 5.65215E-28
8.53553E-01 5.46864E-28
8.56625E-01 5.29082E-28
8.59670E-01 5.11848E-28
8.62687E-01 4.95144E-28
8.65677E-01 4.78949E-28
8.68639E-01 4.63247E-28
8.71572E-01 4.48020E-28
8.74478E-01 4.33251E-28
8.77355E-01 4.18924E-28
8.80203E-01 4.05025E-28
8.83022E-01 3.91538E-28
8.85812E-01 3.78449E-28
8.88573E-01 3.65746E-28
8.91304E-01 3.53414E-28
8.94005E-01 3.41442E-28
8.96677E-01 3.29818E-28
8.99318E-01 3.18530E-28
9.01928E-01 3.07568E-28
9.04508E-01 2.96920E-28
9.07058E-01 2.86577E-28
9.09576E-01 2.76529E-28
9.12063E-01 2.66766E-28
9.14519E-01 2.57281E-28
9.16943E-01 2.48064E-28
9.19335E-01 2.39108E-28
9.21696E-01 2.30403E-28
9.24024E-01 2.21944E-28
9.26320E-01 2.13722E-28
9.28584E-01 2.05731E-28
9.30815E-01 1.97964E-28
9.33013E-01 1.90415E-28
9.35178E-01 1.83077E-28
9.37310E-01 1.75945E-28
9.39409E-01 1.69014E-28
9.41474E-01 1.62277E-28
9.43505E-01 1.55730E-28
9.45503E-01 1.49367E-28
9.47467E-01 1.43185E-28
9.49397E-01 1.37178E-28
9.51293E-01 1.31343E-28
9.53154E-01 1.25674E-28
9.54981E-01 1.20169E-28
9.56773E-01 1.14822E-28
9.58530E-01 1.09632E-28
9.60252E-01 1.04593E-28
9.61940E-01 9.97035E-29
9.63592E-01 9.49593E-29
9.65209E-01 9.03576E-29
9.66790E-01 8.58955E-29
9.68336E-01 8.15702E-29
9.69846E-01 7.73789E-29
9.71321E-01 7.33192E-29
9.72759E-01 6.93886E-29
9.74162E-01 6.55847E-29
9.75528E-01 6.19052E-29
9.76858E-01 5.83482E-29
9.78152E-01 5.49115E-29
9.79410E-01 5.15931E-29
9.80631E-01 4.83913E-29
9.81815E-01 4.53043E-29
9.82963E-01 4.23303E-29
9.84074E-01 3.94678E-29
9.85148E-01 3.67152E-29
9.86185E-01 3.40711E-29
9.87185E-01 3.15341E-29
9.88148E-01 2.91029E-29
9.89074E-01 2.67763E-29
9.89962E-01 2.45530E-29
9.90814E-01 2.24320E-29
9.91627E-01 2.04122E-29
9.92404E-01 1.84926E-29
9.93143E-01 1.66723E-29
9.93844E-01 1.49504E-29
9.94508E-01 1.33261E-29
9.95134E-01 1.17985E-29
9.95722E-01 1.03671E-29
9.96273E-01 9.03098E-30
9.96786E-01 7.78969E-30
9.97261E-01 6.64260E-30
9.97698E-01 5.58918E-30
9.98097E-01 4.62895E-30
9.98459E-01 3.76147E-30
9.98782E-01 2.98635E-30
9.99067E-01 2.30324E-30
9.99315E-01 1.71183E-30
9.99524E-01 1.21185E-30
9.99695E-01 8.03083E-31
9.99829E-01 4.85341E-31
9.99924E-01 2.58483E-31
9.99981E-01 1.22409E-31
1.00000E+00 7.70576E-32
