 #
 # Subroutine ELSEPA. Elastic scattering of electrons and positrons
 #                    by neutral atoms and positive ions
 #
 # Projectile: electron
 # Kinetic energy = 9.00000E+06 eV = 3.30744E+05 a.u.
 #
 # WARNING: High-energy factorization with free-atom DF screening.
 #          Absorption, polarization and exchange corrections are
 #          switched off.
 #          Phase shifts are calculated for the bare nucleus.
 #          Scattering amplitudes are not evaluated.
 #
 # Element: Os,  Z =  76,  atomic weight = 1.90230E+02 g/mol
 #
 # Nuclear model: Fermi distribution
 #                Average radius = 6.15380E-13 cm
 #                Skin thickness = 5.46000E-14 cm
 #
 # Number of electrons = 76
 #
 # Total elastic cross section = 7.70558E-18 cm**2 = 2.75171E-01 a0**2
 # 1st transport cross section = 1.13619E-22 cm**2 = 4.05741E-06 a0**2
 # 2nd transport cross section = 3.11584E-22 cm**2 = 1.11269E-05 a0**2
 #
 #
 # Differential cross section:                       MU=(1-COS(THETA))/2
 #
 #  THETA        MU          DCS          DCS        Sherman      error
 #  (deg)                 (cm**2/sr)   (a0**2/sr)    function
 #----------------------------------------------------------------------
0.00000E+00 4.65946E-12
7.61557E-13 4.65937E-12
1.18994E-12 4.65932E-12
1.71346E-12 4.65926E-12
2.33225E-12 4.65918E-12
3.04617E-12 4.65910E-12
3.85530E-12 4.65900E-12
4.75964E-12 4.65889E-12
5.75917E-12 4.65877E-12
6.85391E-12 4.65864E-12
8.04379E-12 4.65850E-12
9.32893E-12 4.65835E-12
1.07092E-11 4.65819E-12
1.21847E-11 4.65801E-12
1.37554E-11 4.65783E-12
1.54213E-11 4.65763E-12
1.71823E-11 4.65742E-12
1.90386E-11 4.65720E-12
2.09900E-11 4.65697E-12
2.30367E-11 4.65673E-12
2.51785E-11 4.65647E-12
2.74156E-11 4.65621E-12
2.97478E-11 4.65593E-12
3.21752E-11 4.65565E-12
3.46979E-11 4.65535E-12
3.73157E-11 4.65504E-12
4.00286E-11 4.65472E-12
4.28368E-11 4.65438E-12
4.57402E-11 4.65404E-12
4.87388E-11 4.65369E-12
5.18325E-11 4.65332E-12
5.50215E-11 4.65295E-12
5.83057E-11 4.65256E-12
6.16850E-11 4.65216E-12
6.51595E-11 4.65175E-12
6.87293E-11 4.65133E-12
7.23943E-11 4.65089E-12
7.61544E-11 4.65045E-12
1.18991E-10 4.64540E-12
1.71347E-10 4.63925E-12
2.33223E-10 4.63199E-12
3.04617E-10 4.62364E-12
3.85531E-10 4.61422E-12
4.75965E-10 4.60372E-12
5.75917E-10 4.59217E-12
6.85389E-10 4.57957E-12
8.04380E-10 4.56595E-12
9.32891E-10 4.55131E-12
1.07092E-09 4.53568E-12
1.21847E-09 4.51908E-12
1.37554E-09 4.50152E-12
1.54213E-09 4.48302E-12
1.71823E-09 4.46361E-12
1.90386E-09 4.44330E-12
2.09900E-09 4.42213E-12
2.30367E-09 4.40011E-12
2.51785E-09 4.37727E-12
2.74156E-09 4.35340E-12
2.97478E-09 4.32881E-12
3.21752E-09 4.30359E-12
3.46978E-09 4.27776E-12
3.73156E-09 4.25136E-12
4.00286E-09 4.22435E-12
4.28368E-09 4.19614E-12
4.57402E-09 4.16746E-12
4.87388E-09 4.13834E-12
5.18326E-09 4.10882E-12
5.50215E-09 4.07894E-12
5.83057E-09 4.04839E-12
6.16850E-09 4.01690E-12
6.51596E-09 3.98513E-12
6.87293E-09 3.95313E-12
7.23942E-09 3.92093E-12
7.61544E-09 3.88855E-12
1.18991E-08 3.54631E-12
1.71347E-08 3.19493E-12
2.33223E-08 2.85318E-12
3.04617E-08 2.53231E-12
3.85531E-08 2.23962E-12
4.75965E-08 1.97840E-12
5.75917E-08 1.74823E-12
6.85389E-08 1.54625E-12
8.04380E-08 1.37050E-12
9.32891E-08 1.21793E-12
1.07092E-07 1.08538E-12
1.21847E-07 9.69747E-13
1.37554E-07 8.69031E-13
1.54213E-07 7.81048E-13
1.71823E-07 7.03824E-13
1.90386E-07 6.35806E-13
2.09900E-07 5.75841E-13
2.30367E-07 5.22802E-13
2.51785E-07 4.75634E-13
2.74156E-07 4.30769E-13
2.97478E-07 3.91816E-13
3.21752E-07 3.58216E-13
3.46978E-07 3.29082E-13
3.73156E-07 3.03693E-13
4.00286E-07 2.81012E-13
4.28368E-07 2.57765E-13
4.57402E-07 2.37377E-13
4.87388E-07 2.19422E-13
5.18325E-07 2.03546E-13
5.50215E-07 1.89455E-13
5.83057E-07 1.76307E-13
6.16850E-07 1.63473E-13
6.51596E-07 1.52020E-13
6.87293E-07 1.41767E-13
7.23942E-07 1.32560E-13
7.61543E-07 1.24268E-13
1.18991E-06 6.70821E-14
1.71347E-06 3.94563E-14
2.33223E-06 2.46060E-14
3.04617E-06 1.59924E-14
3.85531E-06 1.07725E-14
4.75964E-06 7.49891E-15
5.75916E-06 5.37739E-15
6.85388E-06 3.95874E-15
8.04378E-06 2.98250E-15
9.32888E-06 2.29579E-15
1.07092E-05 1.79934E-15
1.21846E-05 1.43107E-15
1.37553E-05 1.15290E-15
1.54212E-05 9.39506E-16
1.71822E-05 7.73503E-16
1.90385E-05 6.42328E-16
2.09899E-05 5.38488E-16
2.30365E-05 4.54679E-16
2.51783E-05 3.86357E-16
2.74153E-05 3.30022E-16
2.97475E-05 2.83874E-16
3.21749E-05 2.45429E-16
3.46974E-05 2.13280E-16
3.73152E-05 1.86335E-16
4.00281E-05 1.63415E-16
4.28362E-05 1.44041E-16
4.57395E-05 1.27342E-16
4.87380E-05 1.13056E-16
5.18317E-05 1.00681E-16
5.50205E-05 8.99540E-17
5.83045E-05 8.06281E-17
6.16838E-05 7.24602E-17
6.51582E-05 6.53310E-17
6.87277E-05 5.90292E-17
7.23925E-05 5.34910E-17
7.61524E-05 4.85762E-17
9.21439E-05 3.37762E-17
1.09658E-04 2.42059E-17
1.28695E-04 1.78043E-17
1.49255E-04 1.33888E-17
1.71338E-04 1.02636E-17
1.94942E-04 7.99968E-18
2.20070E-04 6.32773E-18
2.46720E-04 5.07101E-18
2.74892E-04 4.11132E-18
3.04586E-04 3.36821E-18
3.35803E-04 2.78568E-18
3.68542E-04 2.32381E-18
4.02802E-04 1.95375E-18
4.38585E-04 1.65450E-18
4.75889E-04 1.41043E-18
5.14715E-04 1.20977E-18
5.55063E-04 1.04355E-18
5.96931E-04 9.04956E-19
6.40321E-04 7.88649E-19
6.85233E-04 6.90463E-19
7.31665E-04 6.07111E-19
7.79618E-04 5.35988E-19
8.29092E-04 4.75004E-19
8.80086E-04 4.22468E-19
9.32601E-04 3.77015E-19
9.86636E-04 3.37531E-19
1.04219E-03 3.03096E-19
1.09927E-03 2.72956E-19
1.15786E-03 2.46481E-19
1.21797E-03 2.23150E-19
1.27961E-03 2.02525E-19
1.34276E-03 1.84236E-19
1.40743E-03 1.67974E-19
1.47362E-03 1.53474E-19
1.54133E-03 1.40511E-19
1.61056E-03 1.28893E-19
1.68131E-03 1.18457E-19
1.75357E-03 1.09060E-19
1.82735E-03 1.00581E-19
1.90265E-03 9.29135E-20
1.97947E-03 8.59662E-20
2.05780E-03 7.96594E-20
2.13765E-03 7.39232E-20
2.21902E-03 6.86965E-20
2.30190E-03 6.39261E-20
2.38630E-03 5.95648E-20
2.47222E-03 5.55709E-20
2.55965E-03 5.19079E-20
2.64859E-03 4.85437E-20
2.73905E-03 4.54490E-20
2.83103E-03 4.25985E-20
2.92452E-03 3.99695E-20
3.01952E-03 3.75411E-20
3.11604E-03 3.52956E-20
3.21407E-03 3.32167E-20
3.31362E-03 3.12894E-20
3.41468E-03 2.95008E-20
3.51725E-03 2.78391E-20
3.62133E-03 2.62936E-20
3.72692E-03 2.48545E-20
3.83403E-03 2.35133E-20
3.94265E-03 2.22620E-20
4.05278E-03 2.10934E-20
4.16442E-03 2.00011E-20
4.27757E-03 1.89792E-20
4.39223E-03 1.80222E-20
4.50840E-03 1.71252E-20
4.62608E-03 1.62839E-20
4.74527E-03 1.54940E-20
4.86597E-03 1.47518E-20
4.98817E-03 1.40539E-20
5.11188E-03 1.33972E-20
5.23711E-03 1.27787E-20
5.36383E-03 1.21959E-20
5.49207E-03 1.16462E-20
5.62181E-03 1.11274E-20
5.75306E-03 1.06375E-20
5.88581E-03 1.01745E-20
6.02007E-03 9.73671E-21
6.15583E-03 9.32243E-21
6.29310E-03 8.93020E-21
6.43187E-03 8.55859E-21
6.57214E-03 8.20632E-21
6.71392E-03 7.87220E-21
6.85720E-03 7.55511E-21
7.00198E-03 7.25399E-21
7.14827E-03 6.96791E-21
7.29605E-03 6.69597E-21
7.44534E-03 6.43731E-21
7.59612E-03 6.19118E-21
7.97965E-03 5.62601E-21
8.37255E-03 5.12464E-21
8.77480E-03 4.67859E-21
9.18641E-03 4.28066E-21
9.60736E-03 3.92471E-21
1.00376E-02 3.60552E-21
1.04773E-02 3.31859E-21
1.09262E-02 3.06007E-21
1.13844E-02 2.82663E-21
1.18520E-02 2.61538E-21
1.23288E-02 2.42382E-21
1.28150E-02 2.24979E-21
1.33104E-02 2.09137E-21
1.38150E-02 1.94690E-21
1.43290E-02 1.81492E-21
1.48521E-02 1.69415E-21
1.53845E-02 1.58346E-21
1.59262E-02 1.48184E-21
1.64770E-02 1.38841E-21
1.70371E-02 1.30238E-21
1.76063E-02 1.22306E-21
1.81848E-02 1.14982E-21
1.87724E-02 1.08211E-21
1.93692E-02 1.01942E-21
1.99751E-02 9.61309E-22
2.05901E-02 9.07382E-22
2.12143E-02 8.57277E-22
2.18476E-02 8.10670E-22
2.24900E-02 7.67268E-22
2.31415E-02 7.26808E-22
2.38021E-02 6.89050E-22
2.44717E-02 6.53778E-22
2.51504E-02 6.20797E-22
2.58382E-02 5.89926E-22
2.65349E-02 5.61006E-22
2.72407E-02 5.33887E-22
2.79555E-02 5.08435E-22
2.86793E-02 4.84526E-22
2.94120E-02 4.62049E-22
3.01537E-02 4.40900E-22
3.09043E-02 4.20984E-22
3.16639E-02 4.02216E-22
3.24324E-02 3.84515E-22
3.32098E-02 3.67808E-22
3.39961E-02 3.52029E-22
3.47912E-02 3.37114E-22
3.55952E-02 3.23007E-22
3.64081E-02 3.09656E-22
3.72297E-02 2.97010E-22
3.80602E-02 2.85026E-22
3.88995E-02 2.73661E-22
3.97476E-02 2.62876E-22
4.06044E-02 2.52637E-22
4.14700E-02 2.42909E-22
4.23443E-02 2.33662E-22
4.32273E-02 2.24866E-22
4.41190E-02 2.16496E-22
4.50194E-02 2.08526E-22
4.59284E-02 2.00933E-22
4.68461E-02 1.93695E-22
4.87074E-02 1.80207E-22
5.06030E-02 1.67915E-22
5.25328E-02 1.56692E-22
5.44967E-02 1.46426E-22
5.64946E-02 1.37019E-22
5.85262E-02 1.28384E-22
6.05914E-02 1.20445E-22
6.26901E-02 1.13134E-22
6.48222E-02 1.06390E-22
6.69873E-02 1.00162E-22
6.91854E-02 9.44006E-23
7.14163E-02 8.90641E-23
7.36799E-02 8.41144E-23
7.59760E-02 7.95176E-23
7.83043E-02 7.52431E-23
8.06647E-02 7.12636E-23
8.30571E-02 6.75541E-23
8.54812E-02 6.40927E-23
8.79369E-02 6.08590E-23
9.04240E-02 5.78349E-23
9.29422E-02 5.50037E-23
9.54915E-02 5.23506E-23
9.80716E-02 4.98618E-23
1.00682E-01 4.75250E-23
1.03323E-01 4.53288E-23
1.05995E-01 4.32631E-23
1.08696E-01 4.13181E-23
1.11427E-01 3.94853E-23
1.14188E-01 3.77570E-23
1.16978E-01 3.61257E-23
1.19797E-01 3.45847E-23
1.22645E-01 3.31282E-23
1.25522E-01 3.17502E-23
1.28428E-01 3.04456E-23
1.31361E-01 2.92097E-23
1.34323E-01 2.80381E-23
1.37313E-01 2.69266E-23
1.40330E-01 2.58714E-23
1.43375E-01 2.48691E-23
1.46447E-01 2.39164E-23
1.49545E-01 2.30102E-23
1.52671E-01 2.21479E-23
1.55823E-01 2.13268E-23
1.59001E-01 2.05445E-23
1.62205E-01 1.97987E-23
1.65435E-01 1.90874E-23
1.68690E-01 1.84085E-23
1.71970E-01 1.77604E-23
1.75276E-01 1.71412E-23
1.78606E-01 1.65493E-23
1.81961E-01 1.59834E-23
1.85340E-01 1.54419E-23
1.88743E-01 1.49237E-23
1.92169E-01 1.44274E-23
1.95619E-01 1.39520E-23
1.99092E-01 1.34963E-23
2.02589E-01 1.30593E-23
2.06107E-01 1.26402E-23
2.09649E-01 1.22380E-23
2.13212E-01 1.18518E-23
2.16797E-01 1.14809E-23
2.20404E-01 1.11246E-23
2.24032E-01 1.07821E-23
2.27680E-01 1.04528E-23
2.31350E-01 1.01360E-23
2.35040E-01 9.83119E-24
2.38751E-01 9.53781E-24
2.42481E-01 9.25530E-24
2.46231E-01 8.98319E-24
2.50000E-01 8.72099E-24
2.53788E-01 8.46828E-24
2.57595E-01 8.22463E-24
2.61421E-01 7.98963E-24
2.65264E-01 7.76292E-24
2.69126E-01 7.54413E-24
2.73005E-01 7.33293E-24
2.76901E-01 7.12899E-24
2.80814E-01 6.93202E-24
2.84744E-01 6.74170E-24
2.88691E-01 6.55779E-24
2.92653E-01 6.38000E-24
2.96632E-01 6.20799E-24
3.00625E-01 6.04161E-24
3.04634E-01 5.88064E-24
3.08658E-01 5.72487E-24
3.12697E-01 5.57409E-24
3.16749E-01 5.42811E-24
3.20816E-01 5.28673E-24
3.24896E-01 5.14978E-24
3.28990E-01 5.01709E-24
3.33097E-01 4.88850E-24
3.37216E-01 4.76386E-24
3.41348E-01 4.64301E-24
3.45492E-01 4.52581E-24
3.49647E-01 4.41213E-24
3.53814E-01 4.30185E-24
3.57992E-01 4.19482E-24
3.62181E-01 4.09095E-24
3.66381E-01 3.99012E-24
3.70590E-01 3.89221E-24
3.74810E-01 3.79712E-24
3.79039E-01 3.70476E-24
3.83277E-01 3.61503E-24
3.87524E-01 3.52784E-24
3.91780E-01 3.44309E-24
3.96044E-01 3.36072E-24
4.00316E-01 3.28063E-24
4.04596E-01 3.20275E-24
4.08882E-01 3.12701E-24
4.13176E-01 3.05333E-24
4.17476E-01 2.98165E-24
4.21783E-01 2.91189E-24
4.26095E-01 2.84401E-24
4.30413E-01 2.77793E-24
4.34737E-01 2.71360E-24
4.39065E-01 2.65096E-24
4.43398E-01 2.58996E-24
4.47736E-01 2.53055E-24
4.52077E-01 2.47268E-24
4.56422E-01 2.41629E-24
4.60770E-01 2.36135E-24
4.65122E-01 2.30780E-24
4.69476E-01 2.25561E-24
4.73832E-01 2.20473E-24
4.78190E-01 2.15513E-24
4.82550E-01 2.10676E-24
4.86912E-01 2.05959E-24
4.91274E-01 2.01359E-24
4.95637E-01 1.96871E-24
5.00000E-01 1.92493E-24
5.04363E-01 1.88221E-24
5.08726E-01 1.84052E-24
5.13088E-01 1.79983E-24
5.17450E-01 1.76012E-24
5.21810E-01 1.72135E-24
5.26168E-01 1.68350E-24
5.30524E-01 1.64655E-24
5.34878E-01 1.61046E-24
5.39230E-01 1.57521E-24
5.43578E-01 1.54079E-24
5.47923E-01 1.50716E-24
5.52264E-01 1.47431E-24
5.56602E-01 1.44221E-24
5.60935E-01 1.41084E-24
5.65263E-01 1.38019E-24
5.69587E-01 1.35023E-24
5.73905E-01 1.32095E-24
5.78217E-01 1.29232E-24
5.82524E-01 1.26434E-24
5.86824E-01 1.23697E-24
5.91118E-01 1.21022E-24
5.95404E-01 1.18405E-24
5.99684E-01 1.15847E-24
6.03956E-01 1.13344E-24
6.08220E-01 1.10896E-24
6.12476E-01 1.08501E-24
6.16723E-01 1.06158E-24
6.20961E-01 1.03865E-24
6.25190E-01 1.01622E-24
6.29410E-01 9.94268E-25
6.33619E-01 9.72785E-25
6.37819E-01 9.51759E-25
6.42008E-01 9.31179E-25
6.46186E-01 9.11034E-25
6.50353E-01 8.91312E-25
6.54508E-01 8.72005E-25
6.58652E-01 8.53101E-25
6.62784E-01 8.34591E-25
6.66903E-01 8.16465E-25
6.71010E-01 7.98716E-25
6.75104E-01 7.81332E-25
6.79184E-01 7.64306E-25
6.83251E-01 7.47630E-25
6.87303E-01 7.31295E-25
6.91342E-01 7.15294E-25
6.95366E-01 6.99617E-25
6.99375E-01 6.84259E-25
7.03368E-01 6.69212E-25
7.07347E-01 6.54469E-25
7.11309E-01 6.40022E-25
7.15256E-01 6.25865E-25
7.19186E-01 6.11992E-25
7.23099E-01 5.98396E-25
7.26995E-01 5.85072E-25
7.30874E-01 5.72012E-25
7.34736E-01 5.59211E-25
7.38579E-01 5.46664E-25
7.42405E-01 5.34365E-25
7.46212E-01 5.22309E-25
7.50000E-01 5.10490E-25
7.53769E-01 4.98903E-25
7.57519E-01 4.87544E-25
7.61249E-01 4.76407E-25
7.64960E-01 4.65487E-25
7.68650E-01 4.54781E-25
7.72320E-01 4.44284E-25
7.75968E-01 4.33991E-25
7.79596E-01 4.23898E-25
7.83203E-01 4.14001E-25
7.86788E-01 4.04296E-25
7.90351E-01 3.94779E-25
7.93893E-01 3.85446E-25
7.97411E-01 3.76294E-25
8.00908E-01 3.67318E-25
8.04381E-01 3.58516E-25
8.07831E-01 3.49884E-25
8.11257E-01 3.41418E-25
8.14660E-01 3.33116E-25
8.18039E-01 3.24974E-25
8.21394E-01 3.16988E-25
8.24724E-01 3.09157E-25
8.28030E-01 3.01476E-25
8.31310E-01 2.93944E-25
8.34565E-01 2.86557E-25
8.37795E-01 2.79312E-25
8.40999E-01 2.72208E-25
8.44177E-01 2.65240E-25
8.47329E-01 2.58408E-25
8.50455E-01 2.51707E-25
8.53553E-01 2.45137E-25
8.56625E-01 2.38694E-25
8.59670E-01 2.32376E-25
8.62687E-01 2.26180E-25
8.65677E-01 2.20106E-25
8.68639E-01 2.14150E-25
8.71572E-01 2.08311E-25
8.74478E-01 2.02587E-25
8.77355E-01 1.96974E-25
8.80203E-01 1.91473E-25
8.83022E-01 1.86080E-25
8.85812E-01 1.80794E-25
8.88573E-01 1.75613E-25
8.91304E-01 1.70535E-25
8.94005E-01 1.65559E-25
8.96677E-01 1.60682E-25
8.99318E-01 1.55904E-25
9.01928E-01 1.51223E-25
9.04508E-01 1.46637E-25
9.07058E-01 1.42145E-25
9.09576E-01 1.37744E-25
9.12063E-01 1.33435E-25
9.14519E-01 1.29215E-25
9.16943E-01 1.25083E-25
9.19335E-01 1.21037E-25
9.21696E-01 1.17077E-25
9.24024E-01 1.13201E-25
9.26320E-01 1.09408E-25
9.28584E-01 1.05697E-25
9.30815E-01 1.02066E-25
9.33013E-01 9.85139E-26
9.35178E-01 9.50405E-26
9.37310E-01 9.16443E-26
9.39409E-01 8.83242E-26
9.41474E-01 8.50791E-26
9.43505E-01 8.19081E-26
9.45503E-01 7.88102E-26
9.47467E-01 7.57844E-26
9.49397E-01 7.28298E-26
9.51293E-01 6.99456E-26
9.53154E-01 6.71308E-26
9.54981E-01 6.43845E-26
9.56773E-01 6.17061E-26
9.58530E-01 5.90945E-26
9.60252E-01 5.65492E-26
9.61940E-01 5.40693E-26
9.63592E-01 5.16540E-26
9.65209E-01 4.93027E-26
9.66790E-01 4.70146E-26
9.68336E-01 4.47891E-26
9.69846E-01 4.26255E-26
9.71321E-01 4.05232E-26
9.72759E-01 3.84815E-26
9.74162E-01 3.64999E-26
9.75528E-01 3.45778E-26
9.76858E-01 3.27147E-26
9.78152E-01 3.09099E-26
9.79410E-01 2.91629E-26
9.80631E-01 2.74734E-26
9.81815E-01 2.58407E-26
9.82963E-01 2.42643E-26
9.84074E-01 2.27440E-26
9.85148E-01 2.12791E-26
9.86185E-01 1.98693E-26
9.87185E-01 1.85142E-26
9.88148E-01 1.72134E-26
9.89074E-01 1.59665E-26
9.89962E-01 1.47731E-26
9.90814E-01 1.36330E-26
9.91627E-01 1.25458E-26
9.92404E-01 1.15112E-26
9.93143E-01 1.05289E-26
9.93844E-01 9.59862E-27
9.94508E-01 8.72009E-27
9.95134E-01 7.89308E-27
9.95722E-01 7.11735E-27
9.96273E-01 6.39267E-27
9.96786E-01 5.71886E-27
9.97261E-01 5.09571E-27
9.97698E-01 4.52306E-27
9.98097E-01 4.00073E-27
9.98459E-01 3.52859E-27
9.98782E-01 3.10651E-27
9.99067E-01 2.73436E-27
9.99315E-01 2.41204E-27
9.99524E-01 2.13946E-27
9.99695E-01 1.91654E-27
9.99829E-01 1.74323E-27
9.99924E-01 1.61946E-27
9.99981E-01 1.54522E-27
1.00000E+00 1.52048E-27
