 #
 # Subroutine ELSEPA. Elastic scattering of electrons and positrons
 #                    by neutral atoms and positive ions
 #
 # Projectile: electron
 # Kinetic energy = 1.00000E+09 eV = 3.67493E+07 a.u.
 #
 # WARNING: High-energy factorization with free-atom DF screening.
 #          Absorption, polarization and exchange corrections are
 #          switched off.
 #          Phase shifts are calculated for the bare nucleus.
 #          Scattering amplitudes are not evaluated.
 #
 # Element: Os,  Z =  76,  atomic weight = 1.90230E+02 g/mol
 #
 # Nuclear model: Fermi distribution
 #                Average radius = 6.15380E-13 cm
 #                Skin thickness = 5.46000E-14 cm
 #
 # Number of electrons = 76
 #
 # Total elastic cross section = 7.63757E-18 cm**2 = 2.72743E-01 a0**2
 # 1st transport cross section = 1.08735E-26 cm**2 = 3.88301E-10 a0**2
 # 2nd transport cross section = 3.26175E-26 cm**2 = 1.16479E-09 a0**2
 #
 #
 # Differential cross section:                       MU=(1-COS(THETA))/2
 #
 #  THETA        MU          DCS          DCS        Sherman      error
 #  (deg)                 (cm**2/sr)   (a0**2/sr)    function
 #----------------------------------------------------------------------
0.00000E+00 5.15617E-08
7.61557E-13 4.22350E-08
1.18994E-12 3.82059E-08
1.71346E-12 3.41250E-08
2.33225E-12 3.02043E-08
3.04617E-12 2.65896E-08
3.85530E-12 2.33450E-08
4.75964E-12 2.04846E-08
5.75917E-12 1.79918E-08
6.85391E-12 1.58300E-08
8.04379E-12 1.39639E-08
9.32893E-12 1.23552E-08
1.07092E-11 1.09671E-08
1.21847E-11 9.76632E-09
1.37554E-11 8.72453E-09
1.54213E-11 7.81567E-09
1.71823E-11 7.02207E-09
1.90386E-11 6.32661E-09
2.09900E-11 5.71507E-09
2.30367E-11 5.17273E-09
2.51785E-11 4.65993E-09
2.74156E-11 4.22301E-09
2.97478E-11 3.84851E-09
3.21752E-11 3.52568E-09
3.46979E-11 3.24587E-09
3.73157E-11 2.97589E-09
4.00286E-11 2.72309E-09
4.28368E-11 2.50239E-09
4.57402E-11 2.30885E-09
4.87388E-11 2.13839E-09
5.18325E-11 1.98568E-09
5.50215E-11 1.83244E-09
5.83057E-11 1.69662E-09
6.16850E-11 1.57579E-09
6.51595E-11 1.46795E-09
6.87293E-11 1.37138E-09
7.23943E-11 1.27866E-09
7.61544E-11 1.19174E-09
1.18991E-10 6.40197E-10
1.71347E-10 3.73289E-10
2.33223E-10 2.30259E-10
3.04617E-10 1.48560E-10
3.85531E-10 9.95797E-11
4.75965E-10 6.90835E-11
5.75917E-10 4.94690E-11
6.85389E-10 3.63528E-11
8.04380E-10 2.73901E-11
9.32891E-10 2.10783E-11
1.07092E-09 1.65050E-11
1.21847E-09 1.31137E-11
1.37554E-09 1.05537E-11
1.54213E-09 8.59098E-12
1.71823E-09 7.06589E-12
1.90386E-09 5.86466E-12
2.09900E-09 4.90736E-12
2.30367E-09 4.13670E-12
2.51785E-09 3.50862E-12
2.74156E-09 2.99987E-12
2.97478E-09 2.57689E-12
3.21752E-09 2.22765E-12
3.46978E-09 1.93464E-12
3.73156E-09 1.68856E-12
4.00286E-09 1.48040E-12
4.28368E-09 1.30314E-12
4.57402E-09 1.15196E-12
4.87388E-09 1.02164E-12
5.18326E-09 9.09667E-13
5.50215E-09 8.12173E-13
5.83057E-09 7.27754E-13
6.16850E-09 6.53730E-13
6.51596E-09 5.89066E-13
6.87293E-09 5.32097E-13
7.23942E-09 4.81902E-13
7.61544E-09 4.37480E-13
1.18991E-08 1.85775E-13
1.71347E-08 9.18545E-14
2.33223E-08 5.04847E-14
3.04617E-08 2.99852E-14
3.85531E-08 1.89043E-14
4.75965E-08 1.24960E-14
5.75917E-08 8.58547E-15
6.85389E-08 6.09110E-15
8.04380E-08 4.44014E-15
9.32891E-08 3.31253E-15
1.07092E-07 2.52127E-15
1.21847E-07 1.95284E-15
1.37554E-07 1.53598E-15
1.54213E-07 1.22469E-15
1.71823E-07 9.88425E-16
1.90386E-07 8.06498E-16
2.09900E-07 6.64573E-16
2.30367E-07 5.52540E-16
2.51785E-07 4.63154E-16
2.74156E-07 3.91132E-16
2.97478E-07 3.32580E-16
3.21752E-07 2.84585E-16
3.46978E-07 2.44942E-16
3.73156E-07 2.11967E-16
4.00286E-07 1.84358E-16
4.28368E-07 1.61100E-16
4.57402E-07 1.41395E-16
4.87388E-07 1.24613E-16
5.18325E-07 1.10247E-16
5.50215E-07 9.78926E-17
5.83057E-07 8.72208E-17
6.16850E-07 7.79638E-17
6.51596E-07 6.99026E-17
6.87293E-07 6.28566E-17
7.23942E-07 5.66761E-17
7.61543E-07 5.12367E-17
1.18991E-06 2.10443E-17
1.71347E-06 1.01654E-17
2.33223E-06 5.49301E-18
3.04617E-06 3.22240E-18
3.85531E-06 2.01292E-18
4.75964E-06 1.32130E-18
5.75916E-06 9.02821E-19
6.85388E-06 6.37671E-19
8.04378E-06 4.63107E-19
9.32888E-06 3.44401E-19
1.07092E-05 2.61411E-19
1.21846E-05 2.01984E-19
1.37553E-05 1.58527E-19
1.54212E-05 1.26156E-19
1.71822E-05 1.01644E-19
1.90385E-05 8.27607E-20
2.09899E-05 6.81482E-20
2.30365E-05 5.66148E-20
2.51783E-05 4.74091E-20
2.74153E-05 3.99904E-20
2.97475E-05 3.39614E-20
3.21749E-05 2.90269E-20
3.46974E-05 2.49597E-20
3.73152E-05 2.15839E-20
4.00281E-05 1.87626E-20
4.28362E-05 1.63888E-20
4.57395E-05 1.43788E-20
4.87380E-05 1.26672E-20
5.18317E-05 1.12022E-20
5.50205E-05 9.94245E-21
5.83045E-05 8.85477E-21
6.16838E-05 7.91199E-21
6.51582E-05 7.09172E-21
6.87277E-05 6.37537E-21
7.23925E-05 5.74745E-21
7.61524E-05 5.28456E-21
9.21439E-05 3.59795E-21
1.09658E-04 2.52766E-21
1.28695E-04 1.82279E-21
1.49255E-04 1.34347E-21
1.71338E-04 1.00883E-21
1.94942E-04 7.69717E-22
2.20070E-04 5.95434E-22
2.46720E-04 4.66181E-22
2.74892E-04 3.68841E-22
3.04586E-04 2.94542E-22
3.35803E-04 2.37142E-22
3.68542E-04 1.92321E-22
4.02802E-04 1.56984E-22
4.38585E-04 1.28883E-22
4.75889E-04 1.06360E-22
5.14715E-04 8.81807E-23
5.55063E-04 7.34134E-23
5.96931E-04 6.13482E-23
6.40321E-04 5.14383E-23
6.85233E-04 4.32595E-23
7.31665E-04 3.64801E-23
7.79618E-04 3.08380E-23
8.29092E-04 2.61255E-23
8.80086E-04 2.21763E-23
9.32601E-04 1.88569E-23
9.86636E-04 1.60592E-23
1.04219E-03 1.36952E-23
1.09927E-03 1.16934E-23
1.15786E-03 9.99463E-24
1.21797E-03 8.55049E-24
1.27961E-03 7.32076E-24
1.34276E-03 6.27206E-24
1.40743E-03 5.37660E-24
1.47362E-03 4.61107E-24
1.54133E-03 3.95599E-24
1.61056E-03 3.39492E-24
1.68131E-03 2.91403E-24
1.75357E-03 2.50160E-24
1.82735E-03 2.14770E-24
1.90265E-03 1.84393E-24
1.97947E-03 1.58310E-24
2.05780E-03 1.35911E-24
2.13765E-03 1.16673E-24
2.21902E-03 1.00151E-24
2.30190E-03 8.59623E-25
2.38630E-03 7.37793E-25
2.47222E-03 6.33212E-25
2.55965E-03 5.43464E-25
2.64859E-03 4.66474E-25
2.73905E-03 4.00455E-25
2.83103E-03 3.43869E-25
2.92452E-03 2.95393E-25
3.01952E-03 2.53886E-25
3.11604E-03 2.18364E-25
3.21407E-03 1.87981E-25
3.31362E-03 1.62005E-25
3.41468E-03 1.39809E-25
3.51725E-03 1.20850E-25
3.62133E-03 1.04661E-25
3.72692E-03 9.08409E-26
3.83403E-03 7.90438E-26
3.94265E-03 6.89728E-26
4.05278E-03 6.03725E-26
4.16442E-03 5.30243E-26
4.27757E-03 4.67404E-26
4.39223E-03 4.13603E-26
4.50840E-03 3.67466E-26
4.62608E-03 3.27821E-26
4.74527E-03 2.93671E-26
4.86597E-03 2.64163E-26
4.98817E-03 2.38579E-26
5.11188E-03 2.16305E-26
5.23711E-03 1.96825E-26
5.36383E-03 1.79702E-26
5.49207E-03 1.64571E-26
5.62181E-03 1.51121E-26
5.75306E-03 1.39097E-26
5.88581E-03 1.28281E-26
6.02007E-03 1.18496E-26
6.15583E-03 1.09591E-26
6.29310E-03 1.01445E-26
6.43187E-03 9.39550E-27
6.57214E-03 8.70374E-27
6.71392E-03 8.06235E-27
6.85720E-03 7.46568E-27
7.00198E-03 6.90908E-27
7.14827E-03 6.38876E-27
7.29605E-03 5.90158E-27
7.44534E-03 5.44497E-27
7.59612E-03 5.01676E-27
7.97965E-03 4.05936E-27
8.37255E-03 3.24698E-27
8.77480E-03 2.56334E-27
9.18641E-03 1.99481E-27
9.60736E-03 1.52882E-27
1.00376E-02 1.15322E-27
1.04773E-02 8.56034E-28
1.09262E-02 6.25666E-28
1.13844E-02 4.51055E-28
1.18520E-02 3.21942E-28
1.23288E-02 2.29053E-28
1.28150E-02 1.64242E-28
1.33104E-02 1.20545E-28
1.38150E-02 9.21778E-29
1.43290E-02 7.44830E-29
1.48521E-02 6.38293E-29
1.53845E-02 5.74905E-29
1.59262E-02 5.35090E-29
1.64770E-02 5.05582E-29
1.70371E-02 4.78089E-29
1.76063E-02 4.48083E-29
1.81848E-02 4.13740E-29
1.87724E-02 3.75049E-29
1.93692E-02 3.33091E-29
1.99751E-02 2.89492E-29
2.05901E-02 2.46020E-29
2.12143E-02 2.04312E-29
2.18476E-02 1.65715E-29
2.24900E-02 1.31200E-29
2.31415E-02 1.01350E-29
2.38021E-02 7.63868E-30
2.44717E-02 5.62228E-30
2.51504E-02 4.05326E-30
2.58382E-02 2.88234E-30
2.65349E-02 2.05040E-30
2.72407E-02 1.49445E-30
2.79555E-02 1.15254E-30
2.86793E-02 9.67376E-31
2.94120E-02 8.88752E-31
3.01537E-02 8.74954E-31
3.09043E-02 8.93180E-31
3.16639E-02 9.19276E-31
3.24324E-02 9.36943E-31
3.32098E-02 9.36614E-31
3.39961E-02 9.14160E-31
3.47912E-02 8.69557E-31
3.55952E-02 8.05631E-31
3.64081E-02 7.26933E-31
3.72297E-02 6.38804E-31
3.80602E-02 5.46636E-31
3.88995E-02 4.55346E-31
3.97476E-02 3.69027E-31
4.06044E-02 2.90767E-31
4.14700E-02 2.22606E-31
4.23443E-02 1.65584E-31
4.32273E-02 1.19870E-31
4.41190E-02 8.49257E-32
4.50194E-02 5.96927E-32
4.59284E-02 4.27740E-32
4.68461E-02 3.26022E-32
4.87074E-02 2.62068E-32
5.06030E-02 2.92351E-32
5.25328E-02 3.36854E-32
5.44967E-02 3.53012E-32
5.64946E-02 3.29348E-32
5.85262E-02 2.74148E-32
6.05914E-02 2.04044E-32
6.26901E-02 1.35412E-32
6.48222E-02 7.95644E-33
6.69873E-02 4.13720E-33
6.91854E-02 2.02320E-33
7.14163E-02 1.21501E-33
7.36799E-02 1.19315E-33
7.59760E-02 1.48566E-33
7.83043E-02 1.76063E-33
8.06647E-02 1.84880E-33
8.30571E-02 1.71747E-33
8.54812E-02 1.42108E-33
8.79369E-02 1.04968E-33
9.04240E-02 6.89130E-34
9.29422E-02 3.98336E-34
9.54915E-02 2.02555E-34
9.80716E-02 9.82498E-35
1.00682E-01 6.37231E-35
1.03323E-01 7.05866E-35
1.05995E-01 9.28025E-35
1.08696E-01 1.11895E-34
1.11427E-01 1.18426E-34
1.14188E-01 1.10740E-34
1.16978E-01 9.22858E-35
1.19797E-01 6.87010E-35
1.22645E-01 4.54564E-35
1.25522E-01 2.64339E-35
1.28428E-01 1.34394E-35
1.31361E-01 6.42586E-36
1.34323E-01 4.10915E-36
1.37313E-01 4.67936E-36
1.40330E-01 6.39659E-36
1.43375E-01 7.96454E-36
1.46447E-01 8.66847E-36
1.49545E-01 8.32707E-36
1.52671E-01 7.13539E-36
1.55823E-01 5.47462E-36
1.59001E-01 3.74610E-36
1.62205E-01 2.26031E-36
1.65435E-01 1.18777E-36
1.68690E-01 5.61639E-37
1.71970E-01 3.13066E-37
1.75276E-01 3.19349E-37
1.78606E-01 4.48958E-37
1.81961E-01 5.93717E-37
1.85340E-01 6.84875E-37
1.88743E-01 6.94699E-37
1.92169E-01 6.28162E-37
1.95619E-01 5.09940E-37
1.99092E-01 3.71436E-37
2.02589E-01 2.40705E-37
2.06107E-01 1.00000E-45
2.09649E-01 1.00000E-45
2.13212E-01 1.00000E-45
2.16797E-01 1.00000E-45
2.20404E-01 1.00000E-45
2.24032E-01 1.00000E-45
2.27680E-01 1.00000E-45
2.31350E-01 1.00000E-45
2.35040E-01 1.00000E-45
2.38751E-01 1.00000E-45
2.42481E-01 1.00000E-45
2.46231E-01 1.00000E-45
2.50000E-01 1.00000E-45
2.53788E-01 1.00000E-45
2.57595E-01 1.00000E-45
2.61421E-01 1.00000E-45
2.65264E-01 1.00000E-45
2.69126E-01 1.00000E-45
2.73005E-01 1.00000E-45
2.76901E-01 1.00000E-45
2.80814E-01 1.00000E-45
2.84744E-01 1.00000E-45
2.88691E-01 1.00000E-45
2.92653E-01 1.00000E-45
2.96632E-01 1.00000E-45
3.00625E-01 1.00000E-45
3.04634E-01 1.00000E-45
3.08658E-01 1.00000E-45
3.12697E-01 1.00000E-45
3.16749E-01 1.00000E-45
3.20816E-01 1.00000E-45
3.24896E-01 1.00000E-45
3.28990E-01 1.00000E-45
3.33097E-01 1.00000E-45
3.37216E-01 1.00000E-45
3.41348E-01 1.00000E-45
3.45492E-01 1.00000E-45
3.49647E-01 1.00000E-45
3.53814E-01 1.00000E-45
3.57992E-01 1.00000E-45
3.62181E-01 1.00000E-45
3.66381E-01 1.00000E-45
3.70590E-01 1.00000E-45
3.74810E-01 1.00000E-45
3.79039E-01 1.00000E-45
3.83277E-01 1.00000E-45
3.87524E-01 1.00000E-45
3.91780E-01 1.00000E-45
3.96044E-01 1.00000E-45
4.00316E-01 1.00000E-45
4.04596E-01 1.00000E-45
4.08882E-01 1.00000E-45
4.13176E-01 1.00000E-45
4.17476E-01 1.00000E-45
4.21783E-01 1.00000E-45
4.26095E-01 1.00000E-45
4.30413E-01 1.00000E-45
4.34737E-01 1.00000E-45
4.39065E-01 1.00000E-45
4.43398E-01 1.00000E-45
4.47736E-01 1.00000E-45
4.52077E-01 1.00000E-45
4.56422E-01 1.00000E-45
4.60770E-01 1.00000E-45
4.65122E-01 1.00000E-45
4.69476E-01 1.00000E-45
4.73832E-01 1.00000E-45
4.78190E-01 1.00000E-45
4.82550E-01 1.00000E-45
4.86912E-01 1.00000E-45
4.91274E-01 1.00000E-45
4.95637E-01 1.00000E-45
5.00000E-01 1.00000E-45
5.04363E-01 1.00000E-45
5.08726E-01 1.00000E-45
5.13088E-01 1.00000E-45
5.17450E-01 1.00000E-45
5.21810E-01 1.00000E-45
5.26168E-01 1.00000E-45
5.30524E-01 1.00000E-45
5.34878E-01 1.00000E-45
5.39230E-01 1.00000E-45
5.43578E-01 1.00000E-45
5.47923E-01 1.00000E-45
5.52264E-01 1.00000E-45
5.56602E-01 1.00000E-45
5.60935E-01 1.00000E-45
5.65263E-01 1.00000E-45
5.69587E-01 1.00000E-45
5.73905E-01 1.00000E-45
5.78217E-01 1.00000E-45
5.82524E-01 1.00000E-45
5.86824E-01 1.00000E-45
5.91118E-01 1.00000E-45
5.95404E-01 1.00000E-45
5.99684E-01 1.00000E-45
6.03956E-01 1.00000E-45
6.08220E-01 1.00000E-45
6.12476E-01 1.00000E-45
6.16723E-01 1.00000E-45
6.20961E-01 1.00000E-45
6.25190E-01 1.00000E-45
6.29410E-01 1.00000E-45
6.33619E-01 1.00000E-45
6.37819E-01 1.00000E-45
6.42008E-01 1.00000E-45
6.46186E-01 1.00000E-45
6.50353E-01 1.00000E-45
6.54508E-01 1.00000E-45
6.58652E-01 1.00000E-45
6.62784E-01 1.00000E-45
6.66903E-01 1.00000E-45
6.71010E-01 1.00000E-45
6.75104E-01 1.00000E-45
6.79184E-01 1.00000E-45
6.83251E-01 1.00000E-45
6.87303E-01 1.00000E-45
6.91342E-01 1.00000E-45
6.95366E-01 1.00000E-45
6.99375E-01 1.00000E-45
7.03368E-01 1.00000E-45
7.07347E-01 1.00000E-45
7.11309E-01 1.00000E-45
7.15256E-01 1.00000E-45
7.19186E-01 1.00000E-45
7.23099E-01 1.00000E-45
7.26995E-01 1.00000E-45
7.30874E-01 1.00000E-45
7.34736E-01 1.00000E-45
7.38579E-01 1.00000E-45
7.42405E-01 1.00000E-45
7.46212E-01 1.00000E-45
7.50000E-01 1.00000E-45
7.53769E-01 1.00000E-45
7.57519E-01 1.00000E-45
7.61249E-01 1.00000E-45
7.64960E-01 1.00000E-45
7.68650E-01 1.00000E-45
7.72320E-01 1.00000E-45
7.75968E-01 1.00000E-45
7.79596E-01 1.00000E-45
7.83203E-01 1.00000E-45
7.86788E-01 1.00000E-45
7.90351E-01 1.00000E-45
7.93893E-01 1.00000E-45
7.97411E-01 1.00000E-45
8.00908E-01 1.00000E-45
8.04381E-01 1.00000E-45
8.07831E-01 1.00000E-45
8.11257E-01 1.00000E-45
8.14660E-01 1.00000E-45
8.18039E-01 1.00000E-45
8.21394E-01 1.00000E-45
8.24724E-01 1.00000E-45
8.28030E-01 1.00000E-45
8.31310E-01 1.00000E-45
8.34565E-01 1.00000E-45
8.37795E-01 1.00000E-45
8.40999E-01 1.00000E-45
8.44177E-01 1.00000E-45
8.47329E-01 1.00000E-45
8.50455E-01 1.00000E-45
8.53553E-01 1.00000E-45
8.56625E-01 1.00000E-45
8.59670E-01 1.00000E-45
8.62687E-01 1.00000E-45
8.65677E-01 1.00000E-45
8.68639E-01 1.00000E-45
8.71572E-01 1.00000E-45
8.74478E-01 1.00000E-45
8.77355E-01 1.00000E-45
8.80203E-01 1.00000E-45
8.83022E-01 1.00000E-45
8.85812E-01 1.00000E-45
8.88573E-01 1.00000E-45
8.91304E-01 1.00000E-45
8.94005E-01 1.00000E-45
8.96677E-01 1.00000E-45
8.99318E-01 1.00000E-45
9.01928E-01 1.00000E-45
9.04508E-01 1.00000E-45
9.07058E-01 1.00000E-45
9.09576E-01 1.00000E-45
9.12063E-01 1.00000E-45
9.14519E-01 1.00000E-45
9.16943E-01 1.00000E-45
9.19335E-01 1.00000E-45
9.21696E-01 1.00000E-45
9.24024E-01 1.00000E-45
9.26320E-01 1.00000E-45
9.28584E-01 1.00000E-45
9.30815E-01 1.00000E-45
9.33013E-01 1.00000E-45
9.35178E-01 1.00000E-45
9.37310E-01 1.00000E-45
9.39409E-01 1.00000E-45
9.41474E-01 1.00000E-45
9.43505E-01 1.00000E-45
9.45503E-01 1.00000E-45
9.47467E-01 1.00000E-45
9.49397E-01 1.00000E-45
9.51293E-01 1.00000E-45
9.53154E-01 1.00000E-45
9.54981E-01 1.00000E-45
9.56773E-01 1.00000E-45
9.58530E-01 1.00000E-45
9.60252E-01 1.00000E-45
9.61940E-01 1.00000E-45
9.63592E-01 1.00000E-45
9.65209E-01 1.00000E-45
9.66790E-01 1.00000E-45
9.68336E-01 1.00000E-45
9.69846E-01 1.00000E-45
9.71321E-01 1.00000E-45
9.72759E-01 1.00000E-45
9.74162E-01 1.00000E-45
9.75528E-01 1.00000E-45
9.76858E-01 1.00000E-45
9.78152E-01 1.00000E-45
9.79410E-01 1.00000E-45
9.80631E-01 1.00000E-45
9.81815E-01 1.00000E-45
9.82963E-01 1.00000E-45
9.84074E-01 1.00000E-45
9.85148E-01 1.00000E-45
9.86185E-01 1.00000E-45
9.87185E-01 1.00000E-45
9.88148E-01 1.00000E-45
9.89074E-01 1.00000E-45
9.89962E-01 1.00000E-45
9.90814E-01 1.00000E-45
9.91627E-01 1.00000E-45
9.92404E-01 1.00000E-45
9.93143E-01 1.00000E-45
9.93844E-01 1.00000E-45
9.94508E-01 1.00000E-45
9.95134E-01 1.00000E-45
9.95722E-01 1.00000E-45
9.96273E-01 1.00000E-45
9.96786E-01 1.00000E-45
9.97261E-01 1.00000E-45
9.97698E-01 1.00000E-45
9.98097E-01 1.00000E-45
9.98459E-01 1.00000E-45
9.98782E-01 1.00000E-45
9.99067E-01 1.00000E-45
9.99315E-01 1.00000E-45
9.99524E-01 1.00000E-45
9.99695E-01 1.00000E-45
9.99829E-01 1.00000E-45
9.99924E-01 1.00000E-45
9.99981E-01 1.00000E-45
1.00000E+00 1.00000E-45
