 #
 # Subroutine ELSEPA. Elastic scattering of electrons and positrons
 #                    by neutral atoms and positive ions
 #
 # Projectile: electron
 # Kinetic energy = 6.00000E+06 eV = 2.20496E+05 a.u.
 #
 # WARNING: High-energy factorization with free-atom DF screening.
 #          Absorption, polarization and exchange corrections are
 #          switched off.
 #          Phase shifts are calculated for the bare nucleus.
 #          Scattering amplitudes are not evaluated.
 #
 # Element: Os,  Z =  76,  atomic weight = 1.90230E+02 g/mol
 #
 # Nuclear model: Fermi distribution
 #                Average radius = 6.15380E-13 cm
 #                Skin thickness = 5.46000E-14 cm
 #
 # Number of electrons = 76
 #
 # Total elastic cross section = 7.73439E-18 cm**2 = 2.76200E-01 a0**2
 # 1st transport cross section = 2.33098E-22 cm**2 = 8.32408E-06 a0**2
 # 2nd transport cross section = 6.32332E-22 cm**2 = 2.25810E-05 a0**2
 #
 #
 # Differential cross section:                       MU=(1-COS(THETA))/2
 #
 #  THETA        MU          DCS          DCS        Sherman      error
 #  (deg)                 (cm**2/sr)   (a0**2/sr)    function
 #----------------------------------------------------------------------
0.00000E+00 2.18363E-12
7.61557E-13 2.18361E-12
1.18994E-12 2.18360E-12
1.71346E-12 2.18358E-12
2.33225E-12 2.18357E-12
3.04617E-12 2.18355E-12
3.85530E-12 2.18353E-12
4.75964E-12 2.18350E-12
5.75917E-12 2.18348E-12
6.85391E-12 2.18345E-12
8.04379E-12 2.18342E-12
9.32893E-12 2.18339E-12
1.07092E-11 2.18335E-12
1.21847E-11 2.18331E-12
1.37554E-11 2.18327E-12
1.54213E-11 2.18323E-12
1.71823E-11 2.18318E-12
1.90386E-11 2.18313E-12
2.09900E-11 2.18308E-12
2.30367E-11 2.18303E-12
2.51785E-11 2.18298E-12
2.74156E-11 2.18292E-12
2.97478E-11 2.18286E-12
3.21752E-11 2.18279E-12
3.46979E-11 2.18273E-12
3.73157E-11 2.18266E-12
4.00286E-11 2.18259E-12
4.28368E-11 2.18252E-12
4.57402E-11 2.18244E-12
4.87388E-11 2.18237E-12
5.18325E-11 2.18229E-12
5.50215E-11 2.18220E-12
5.83057E-11 2.18212E-12
6.16850E-11 2.18203E-12
6.51595E-11 2.18194E-12
6.87293E-11 2.18185E-12
7.23943E-11 2.18175E-12
7.61544E-11 2.18166E-12
1.18991E-10 2.18055E-12
1.71347E-10 2.17920E-12
2.33223E-10 2.17760E-12
3.04617E-10 2.17577E-12
3.85531E-10 2.17369E-12
4.75965E-10 2.17137E-12
5.75917E-10 2.16881E-12
6.85389E-10 2.16601E-12
8.04380E-10 2.16297E-12
9.32891E-10 2.15971E-12
1.07092E-09 2.15621E-12
1.21847E-09 2.15248E-12
1.37554E-09 2.14852E-12
1.54213E-09 2.14433E-12
1.71823E-09 2.13992E-12
1.90386E-09 2.13529E-12
2.09900E-09 2.13044E-12
2.30367E-09 2.12538E-12
2.51785E-09 2.12010E-12
2.74156E-09 2.11460E-12
2.97478E-09 2.10891E-12
3.21752E-09 2.10301E-12
3.46978E-09 2.09690E-12
3.73156E-09 2.09060E-12
4.00286E-09 2.08410E-12
4.28368E-09 2.07742E-12
4.57402E-09 2.07054E-12
4.87388E-09 2.06348E-12
5.18326E-09 2.05624E-12
5.50215E-09 2.04881E-12
5.83057E-09 2.04113E-12
6.16850E-09 2.03331E-12
6.51596E-09 2.02534E-12
6.87293E-09 2.01724E-12
7.23942E-09 2.00900E-12
7.61544E-09 2.00064E-12
1.18991E-08 1.90919E-12
1.71347E-08 1.80676E-12
2.33223E-08 1.69736E-12
3.04617E-08 1.58495E-12
3.85531E-08 1.47270E-12
4.75965E-08 1.36311E-12
5.75917E-08 1.25797E-12
6.85389E-08 1.15806E-12
8.04380E-08 1.06472E-12
9.32891E-08 9.78268E-13
1.07092E-07 8.98733E-13
1.21847E-07 8.25920E-13
1.37554E-07 7.59310E-13
1.54213E-07 6.98599E-13
1.71823E-07 6.43453E-13
1.90386E-07 5.93391E-13
2.09900E-07 5.47946E-13
2.30367E-07 5.06650E-13
2.51785E-07 4.68987E-13
2.74156E-07 4.34734E-13
2.97478E-07 4.03543E-13
3.21752E-07 3.75098E-13
3.46978E-07 3.49120E-13
3.73156E-07 3.25301E-13
4.00286E-07 3.03460E-13
4.28368E-07 2.83428E-13
4.57402E-07 2.65029E-13
4.87388E-07 2.48103E-13
5.18325E-07 2.32499E-13
5.50215E-07 2.17843E-13
5.83057E-07 2.03486E-13
6.16850E-07 1.90560E-13
6.51596E-07 1.78893E-13
6.87293E-07 1.68336E-13
7.23942E-07 1.58759E-13
7.61543E-07 1.50053E-13
1.18991E-06 8.77483E-14
1.71347E-06 5.45000E-14
2.33223E-06 3.56324E-14
3.04617E-06 2.43277E-14
3.85531E-06 1.71691E-14
4.75964E-06 1.24334E-14
5.75916E-06 9.19257E-15
6.85388E-06 6.90737E-15
8.04378E-06 5.27841E-15
9.32888E-06 4.09672E-15
1.07092E-05 3.22601E-15
1.21846E-05 2.57501E-15
1.37553E-05 2.08194E-15
1.54212E-05 1.70073E-15
1.71822E-05 1.40476E-15
1.90385E-05 1.17137E-15
2.09899E-05 9.86798E-16
2.30365E-05 8.37664E-16
2.51783E-05 7.15616E-16
2.74153E-05 6.14992E-16
2.97475E-05 5.31463E-16
3.21749E-05 4.61725E-16
3.46974E-05 4.03180E-16
3.73152E-05 3.53704E-16
4.00281E-05 3.11650E-16
4.28362E-05 2.75694E-16
4.57395E-05 2.44769E-16
4.87380E-05 2.18037E-16
5.18317E-05 1.94827E-16
5.50205E-05 1.74569E-16
5.83045E-05 1.56796E-16
6.16838E-05 1.41322E-16
6.51582E-05 1.27798E-16
6.87277E-05 1.15744E-16
7.23925E-05 1.05096E-16
7.61524E-05 9.56918E-17
9.21439E-05 6.70705E-17
1.09658E-04 4.83670E-17
1.28695E-04 3.57587E-17
1.49255E-04 2.70054E-17
1.71338E-04 2.07769E-17
1.94942E-04 1.62466E-17
2.20070E-04 1.28867E-17
2.46720E-04 1.03532E-17
2.74892E-04 8.41426E-18
3.04586E-04 6.90982E-18
3.35803E-04 5.72790E-18
3.68542E-04 4.78871E-18
4.02802E-04 4.03446E-18
4.38585E-04 3.42331E-18
4.75889E-04 2.92381E-18
5.14715E-04 2.51231E-18
5.55063E-04 2.17080E-18
5.96931E-04 1.88538E-18
6.40321E-04 1.64537E-18
6.85233E-04 1.44240E-18
7.31665E-04 1.26980E-18
7.79618E-04 1.12228E-18
8.29092E-04 9.95589E-19
8.80086E-04 8.86269E-19
9.32601E-04 7.91567E-19
9.86636E-04 7.09198E-19
1.04219E-03 6.37282E-19
1.09927E-03 5.74270E-19
1.15786E-03 5.18862E-19
1.21797E-03 4.69990E-19
1.27961E-03 4.26750E-19
1.34276E-03 3.88383E-19
1.40743E-03 3.54244E-19
1.47362E-03 3.23783E-19
1.54133E-03 2.96535E-19
1.61056E-03 2.72103E-19
1.68131E-03 2.50145E-19
1.75357E-03 2.30367E-19
1.82735E-03 2.12512E-19
1.90265E-03 1.96360E-19
1.97947E-03 1.81720E-19
2.05780E-03 1.68426E-19
2.13765E-03 1.56331E-19
2.21902E-03 1.45307E-19
2.30190E-03 1.35243E-19
2.38630E-03 1.26039E-19
2.47222E-03 1.17610E-19
2.55965E-03 1.09877E-19
2.64859E-03 1.02773E-19
2.73905E-03 9.62376E-20
2.83103E-03 9.02159E-20
2.92452E-03 8.46610E-20
3.01952E-03 7.95297E-20
3.11604E-03 7.47839E-20
3.21407E-03 7.03892E-20
3.31362E-03 6.63146E-20
3.41468E-03 6.25326E-20
3.51725E-03 5.90183E-20
3.62133E-03 5.57492E-20
3.72692E-03 5.27050E-20
3.83403E-03 4.98674E-20
3.94265E-03 4.72195E-20
4.05278E-03 4.47464E-20
4.16442E-03 4.24344E-20
4.27757E-03 4.02710E-20
4.39223E-03 3.82449E-20
4.50840E-03 3.63456E-20
4.62608E-03 3.45638E-20
4.74527E-03 3.28908E-20
4.86597E-03 3.13186E-20
4.98817E-03 2.98402E-20
5.11188E-03 2.84488E-20
5.23711E-03 2.71382E-20
5.36383E-03 2.59030E-20
5.49207E-03 2.47378E-20
5.62181E-03 2.36381E-20
5.75306E-03 2.25996E-20
5.88581E-03 2.16179E-20
6.02007E-03 2.06896E-20
6.15583E-03 1.98110E-20
6.29310E-03 1.89792E-20
6.43187E-03 1.81909E-20
6.57214E-03 1.74437E-20
6.71392E-03 1.67348E-20
6.85720E-03 1.60620E-20
7.00198E-03 1.54230E-20
7.14827E-03 1.48159E-20
7.29605E-03 1.42387E-20
7.44534E-03 1.36897E-20
7.59612E-03 1.31672E-20
7.97965E-03 1.19673E-20
8.37255E-03 1.09026E-20
8.77480E-03 9.95525E-21
9.18641E-03 9.10988E-21
9.60736E-03 8.35354E-21
1.00376E-02 7.67518E-21
1.04773E-02 7.06530E-21
1.09262E-02 6.51571E-21
1.13844E-02 6.01936E-21
1.18520E-02 5.57011E-21
1.23288E-02 5.16270E-21
1.28150E-02 4.79250E-21
1.33104E-02 4.45547E-21
1.38150E-02 4.14810E-21
1.43290E-02 3.86726E-21
1.48521E-02 3.61025E-21
1.53845E-02 3.37466E-21
1.59262E-02 3.15836E-21
1.64770E-02 2.95948E-21
1.70371E-02 2.77635E-21
1.76063E-02 2.60746E-21
1.81848E-02 2.45152E-21
1.87724E-02 2.30733E-21
1.93692E-02 2.17383E-21
1.99751E-02 2.05008E-21
2.05901E-02 1.93523E-21
2.12143E-02 1.82852E-21
2.18476E-02 1.72925E-21
2.24900E-02 1.63680E-21
2.31415E-02 1.55061E-21
2.38021E-02 1.47018E-21
2.44717E-02 1.39504E-21
2.51504E-02 1.32477E-21
2.58382E-02 1.25900E-21
2.65349E-02 1.19739E-21
2.72407E-02 1.13961E-21
2.79555E-02 1.08538E-21
2.86793E-02 1.03443E-21
2.94120E-02 9.86539E-22
3.01537E-02 9.41474E-22
3.09043E-02 8.99036E-22
3.16639E-02 8.59041E-22
3.24324E-02 8.21321E-22
3.32098E-02 7.85718E-22
3.39961E-02 7.52090E-22
3.47912E-02 7.20306E-22
3.55952E-02 6.90241E-22
3.64081E-02 6.61786E-22
3.72297E-02 6.34834E-22
3.80602E-02 6.09292E-22
3.88995E-02 5.85070E-22
3.97476E-02 5.62084E-22
4.06044E-02 5.40259E-22
4.14700E-02 5.19525E-22
4.23443E-02 4.99814E-22
4.32273E-02 4.81066E-22
4.41190E-02 4.63223E-22
4.50194E-02 4.46234E-22
4.59284E-02 4.30047E-22
4.68461E-02 4.14618E-22
4.87074E-02 3.85863E-22
5.06030E-02 3.59657E-22
5.25328E-02 3.35729E-22
5.44967E-02 3.13840E-22
5.64946E-02 2.93780E-22
5.85262E-02 2.75365E-22
6.05914E-02 2.58433E-22
6.26901E-02 2.42839E-22
6.48222E-02 2.28456E-22
6.69873E-02 2.15169E-22
6.91854E-02 2.02877E-22
7.14163E-02 1.91491E-22
7.36799E-02 1.80928E-22
7.59760E-02 1.71118E-22
7.83043E-02 1.61994E-22
8.06647E-02 1.53498E-22
8.30571E-02 1.45579E-22
8.54812E-02 1.38187E-22
8.79369E-02 1.31281E-22
9.04240E-02 1.24821E-22
9.29422E-02 1.18772E-22
9.54915E-02 1.13103E-22
9.80716E-02 1.07783E-22
1.00682E-01 1.02788E-22
1.03323E-01 9.80925E-23
1.05995E-01 9.36745E-23
1.08696E-01 8.95142E-23
1.11427E-01 8.55930E-23
1.14188E-01 8.18942E-23
1.16978E-01 7.84023E-23
1.19797E-01 7.51031E-23
1.22645E-01 7.19835E-23
1.25522E-01 6.90315E-23
1.28428E-01 6.62361E-23
1.31361E-01 6.35871E-23
1.34323E-01 6.10750E-23
1.37313E-01 5.86911E-23
1.40330E-01 5.64273E-23
1.43375E-01 5.42763E-23
1.46447E-01 5.22311E-23
1.49545E-01 5.02853E-23
1.52671E-01 4.84330E-23
1.55823E-01 4.66685E-23
1.59001E-01 4.49868E-23
1.62205E-01 4.33830E-23
1.65435E-01 4.18528E-23
1.68690E-01 4.03920E-23
1.71970E-01 3.89965E-23
1.75276E-01 3.76630E-23
1.78606E-01 3.63878E-23
1.81961E-01 3.51680E-23
1.85340E-01 3.40006E-23
1.88743E-01 3.28826E-23
1.92169E-01 3.18116E-23
1.95619E-01 3.07852E-23
1.99092E-01 2.98009E-23
2.02589E-01 2.88567E-23
2.06107E-01 2.79506E-23
2.09649E-01 2.70807E-23
2.13212E-01 2.62451E-23
2.16797E-01 2.54422E-23
2.20404E-01 2.46704E-23
2.24032E-01 2.39282E-23
2.27680E-01 2.32143E-23
2.31350E-01 2.25272E-23
2.35040E-01 2.18657E-23
2.38751E-01 2.12287E-23
2.42481E-01 2.06150E-23
2.46231E-01 2.00237E-23
2.50000E-01 1.94535E-23
2.53788E-01 1.89036E-23
2.57595E-01 1.83732E-23
2.61421E-01 1.78614E-23
2.65264E-01 1.73673E-23
2.69126E-01 1.68902E-23
2.73005E-01 1.64294E-23
2.76901E-01 1.59842E-23
2.80814E-01 1.55539E-23
2.84744E-01 1.51380E-23
2.88691E-01 1.47357E-23
2.92653E-01 1.43467E-23
2.96632E-01 1.39702E-23
3.00625E-01 1.36059E-23
3.04634E-01 1.32533E-23
3.08658E-01 1.29118E-23
3.12697E-01 1.25811E-23
3.16749E-01 1.22606E-23
3.20816E-01 1.19501E-23
3.24896E-01 1.16492E-23
3.28990E-01 1.13574E-23
3.33097E-01 1.10745E-23
3.37216E-01 1.08001E-23
3.41348E-01 1.05339E-23
3.45492E-01 1.02755E-23
3.49647E-01 1.00248E-23
3.53814E-01 9.78137E-24
3.57992E-01 9.54501E-24
3.62181E-01 9.31546E-24
3.66381E-01 9.09247E-24
3.70590E-01 8.87581E-24
3.74810E-01 8.66527E-24
3.79039E-01 8.46063E-24
3.83277E-01 8.26168E-24
3.87524E-01 8.06823E-24
3.91780E-01 7.88009E-24
3.96044E-01 7.69710E-24
4.00316E-01 7.51906E-24
4.04596E-01 7.34581E-24
4.08882E-01 7.17720E-24
4.13176E-01 7.01308E-24
4.17476E-01 6.85330E-24
4.21783E-01 6.69771E-24
4.26095E-01 6.54618E-24
4.30413E-01 6.39859E-24
4.34737E-01 6.25480E-24
4.39065E-01 6.11470E-24
4.43398E-01 5.97817E-24
4.47736E-01 5.84510E-24
4.52077E-01 5.71538E-24
4.56422E-01 5.58892E-24
4.60770E-01 5.46560E-24
4.65122E-01 5.34533E-24
4.69476E-01 5.22803E-24
4.73832E-01 5.11360E-24
4.78190E-01 5.00195E-24
4.82550E-01 4.89301E-24
4.86912E-01 4.78669E-24
4.91274E-01 4.68293E-24
4.95637E-01 4.58163E-24
5.00000E-01 4.48273E-24
5.04363E-01 4.38617E-24
5.08726E-01 4.29188E-24
5.13088E-01 4.19978E-24
5.17450E-01 4.10983E-24
5.21810E-01 4.02195E-24
5.26168E-01 3.93610E-24
5.30524E-01 3.85220E-24
5.34878E-01 3.77022E-24
5.39230E-01 3.69010E-24
5.43578E-01 3.61179E-24
5.47923E-01 3.53523E-24
5.52264E-01 3.46038E-24
5.56602E-01 3.38720E-24
5.60935E-01 3.31564E-24
5.65263E-01 3.24566E-24
5.69587E-01 3.17721E-24
5.73905E-01 3.11026E-24
5.78217E-01 3.04477E-24
5.82524E-01 2.98069E-24
5.86824E-01 2.91800E-24
5.91118E-01 2.85665E-24
5.95404E-01 2.79661E-24
5.99684E-01 2.73786E-24
6.03956E-01 2.68035E-24
6.08220E-01 2.62406E-24
6.12476E-01 2.56895E-24
6.16723E-01 2.51500E-24
6.20961E-01 2.46217E-24
6.25190E-01 2.41044E-24
6.29410E-01 2.35978E-24
6.33619E-01 2.31015E-24
6.37819E-01 2.26154E-24
6.42008E-01 2.21393E-24
6.46186E-01 2.16729E-24
6.50353E-01 2.12160E-24
6.54508E-01 2.07684E-24
6.58652E-01 2.03299E-24
6.62784E-01 1.99001E-24
6.66903E-01 1.94790E-24
6.71010E-01 1.90663E-24
6.75104E-01 1.86619E-24
6.79184E-01 1.82655E-24
6.83251E-01 1.78770E-24
6.87303E-01 1.74962E-24
6.91342E-01 1.71228E-24
6.95366E-01 1.67568E-24
6.99375E-01 1.63980E-24
7.03368E-01 1.60462E-24
7.07347E-01 1.57013E-24
7.11309E-01 1.53631E-24
7.15256E-01 1.50314E-24
7.19186E-01 1.47062E-24
7.23099E-01 1.43872E-24
7.26995E-01 1.40744E-24
7.30874E-01 1.37676E-24
7.34736E-01 1.34667E-24
7.38579E-01 1.31716E-24
7.42405E-01 1.28821E-24
7.46212E-01 1.25981E-24
7.50000E-01 1.23195E-24
7.53769E-01 1.20462E-24
7.57519E-01 1.17781E-24
7.61249E-01 1.15151E-24
7.64960E-01 1.12570E-24
7.68650E-01 1.10038E-24
7.72320E-01 1.07554E-24
7.75968E-01 1.05117E-24
7.79596E-01 1.02725E-24
7.83203E-01 1.00379E-24
7.86788E-01 9.80764E-25
7.90351E-01 9.58171E-25
7.93893E-01 9.36001E-25
7.97411E-01 9.14246E-25
8.00908E-01 8.92899E-25
8.04381E-01 8.71950E-25
8.07831E-01 8.51393E-25
8.11257E-01 8.31221E-25
8.14660E-01 8.11425E-25
8.18039E-01 7.91999E-25
8.21394E-01 7.72936E-25
8.24724E-01 7.54230E-25
8.28030E-01 7.35873E-25
8.31310E-01 7.17859E-25
8.34565E-01 7.00183E-25
8.37795E-01 6.82837E-25
8.40999E-01 6.65817E-25
8.44177E-01 6.49115E-25
8.47329E-01 6.32727E-25
8.50455E-01 6.16648E-25
8.53553E-01 6.00871E-25
8.56625E-01 5.85391E-25
8.59670E-01 5.70203E-25
8.62687E-01 5.55303E-25
8.65677E-01 5.40685E-25
8.68639E-01 5.26345E-25
8.71572E-01 5.12278E-25
8.74478E-01 4.98480E-25
8.77355E-01 4.84945E-25
8.80203E-01 4.71670E-25
8.83022E-01 4.58651E-25
8.85812E-01 4.45883E-25
8.88573E-01 4.33362E-25
8.91304E-01 4.21085E-25
8.94005E-01 4.09047E-25
8.96677E-01 3.97245E-25
8.99318E-01 3.85676E-25
9.01928E-01 3.74335E-25
9.04508E-01 3.63220E-25
9.07058E-01 3.52326E-25
9.09576E-01 3.41651E-25
9.12063E-01 3.31191E-25
9.14519E-01 3.20944E-25
9.16943E-01 3.10905E-25
9.19335E-01 3.01073E-25
9.21696E-01 2.91444E-25
9.24024E-01 2.82015E-25
9.26320E-01 2.72784E-25
9.28584E-01 2.63748E-25
9.30815E-01 2.54904E-25
9.33013E-01 2.46250E-25
9.35178E-01 2.37783E-25
9.37310E-01 2.29501E-25
9.39409E-01 2.21401E-25
9.41474E-01 2.13482E-25
9.43505E-01 2.05740E-25
9.45503E-01 1.98173E-25
9.47467E-01 1.90780E-25
9.49397E-01 1.83559E-25
9.51293E-01 1.76507E-25
9.53154E-01 1.69622E-25
9.54981E-01 1.62903E-25
9.56773E-01 1.56347E-25
9.58530E-01 1.49953E-25
9.60252E-01 1.43719E-25
9.61940E-01 1.37643E-25
9.63592E-01 1.31723E-25
9.65209E-01 1.25959E-25
9.66790E-01 1.20348E-25
9.68336E-01 1.14889E-25
9.69846E-01 1.09580E-25
9.71321E-01 1.04420E-25
9.72759E-01 9.94080E-26
9.74162E-01 9.45418E-26
9.75528E-01 8.98205E-26
9.76858E-01 8.52427E-26
9.78152E-01 8.08073E-26
9.79410E-01 7.65130E-26
9.80631E-01 7.23587E-26
9.81815E-01 6.83434E-26
9.82963E-01 6.44658E-26
9.84074E-01 6.07251E-26
9.85148E-01 5.71202E-26
9.86185E-01 5.36502E-26
9.87185E-01 5.03141E-26
9.88148E-01 4.71110E-26
9.89074E-01 4.40402E-26
9.89962E-01 4.11008E-26
9.90814E-01 3.82921E-26
9.91627E-01 3.56132E-26
9.92404E-01 3.30636E-26
9.93143E-01 3.06425E-26
9.93844E-01 2.83493E-26
9.94508E-01 2.61834E-26
9.95134E-01 2.41443E-26
9.95722E-01 2.22313E-26
9.96273E-01 2.04441E-26
9.96786E-01 1.87822E-26
9.97261E-01 1.72451E-26
9.97698E-01 1.58324E-26
9.98097E-01 1.45438E-26
9.98459E-01 1.33789E-26
9.98782E-01 1.23374E-26
9.99067E-01 1.14191E-26
9.99315E-01 1.06237E-26
9.99524E-01 9.95099E-27
9.99695E-01 9.40085E-27
9.99829E-01 8.97311E-27
9.99924E-01 8.66766E-27
9.99981E-01 8.48442E-27
1.00000E+00 8.42335E-27
