 #
 # Subroutine ELSEPA. Elastic scattering of electrons and positrons
 #                    by neutral atoms and positive ions
 #
 # Projectile: electron
 # Kinetic energy = 5.00000E+08 eV = 1.83747E+07 a.u.
 #
 # WARNING: High-energy factorization with free-atom DF screening.
 #          Absorption, polarization and exchange corrections are
 #          switched off.
 #          Phase shifts are calculated for the bare nucleus.
 #          Scattering amplitudes are not evaluated.
 #
 # Element: Os,  Z =  76,  atomic weight = 1.90230E+02 g/mol
 #
 # Nuclear model: Fermi distribution
 #                Average radius = 6.15380E-13 cm
 #                Skin thickness = 5.46000E-14 cm
 #
 # Number of electrons = 76
 #
 # Total elastic cross section = 7.67116E-18 cm**2 = 2.73942E-01 a0**2
 # 1st transport cross section = 4.36053E-26 cm**2 = 1.55717E-09 a0**2
 # 2nd transport cross section = 1.30766E-25 cm**2 = 4.66974E-09 a0**2
 #
 #
 # Differential cross section:                       MU=(1-COS(THETA))/2
 #
 #  THETA        MU          DCS          DCS        Sherman      error
 #  (deg)                 (cm**2/sr)   (a0**2/sr)    function
 #----------------------------------------------------------------------
0.00000E+00 1.29036E-08
7.61557E-13 1.22411E-08
1.18994E-12 1.18926E-08
1.71346E-12 1.14905E-08
2.33225E-12 1.10451E-08
3.04617E-12 1.05676E-08
3.85530E-12 1.00688E-08
4.75964E-12 9.55864E-09
5.75917E-12 9.04591E-09
6.85391E-12 8.53691E-09
8.04379E-12 8.03826E-09
9.32893E-12 7.55547E-09
1.07092E-11 7.09215E-09
1.21847E-11 6.65071E-09
1.37554E-11 6.23265E-09
1.54213E-11 5.83869E-09
1.71823E-11 5.46892E-09
1.90386E-11 5.12294E-09
2.09900E-11 4.80005E-09
2.30367E-11 4.49926E-09
2.51785E-11 4.21927E-09
2.74156E-11 3.95853E-09
2.97478E-11 3.71643E-09
3.21752E-11 3.49168E-09
3.46979E-11 3.28304E-09
3.73157E-11 3.08931E-09
4.00286E-11 2.90935E-09
4.28368E-11 2.74209E-09
4.57402E-11 2.58655E-09
4.87388E-11 2.44178E-09
5.18325E-11 2.30694E-09
5.50215E-11 2.18124E-09
5.83057E-11 2.06374E-09
6.16850E-11 1.95399E-09
6.51595E-11 1.85144E-09
6.87293E-11 1.75552E-09
7.23943E-11 1.66574E-09
7.61544E-11 1.58161E-09
1.18991E-10 9.62007E-10
1.71347E-10 6.25450E-10
2.33223E-10 4.24019E-10
3.04617E-10 2.97821E-10
3.85531E-10 2.15557E-10
4.75965E-10 1.59972E-10
5.75917E-10 1.21189E-10
6.85389E-10 9.32780E-11
8.04380E-10 7.27982E-11
9.32891E-10 5.75314E-11
1.07092E-09 4.59748E-11
1.21847E-09 3.71153E-11
1.37554E-09 3.02494E-11
1.54213E-09 2.48769E-11
1.71823E-09 2.06353E-11
1.90386E-09 1.72579E-11
2.09900E-09 1.45474E-11
2.30367E-09 1.23577E-11
2.51785E-09 1.05589E-11
2.74156E-09 9.08132E-12
2.97478E-09 7.85989E-12
3.21752E-09 6.84235E-12
3.46978E-09 5.98810E-12
3.73156E-09 5.26558E-12
4.00286E-09 4.65029E-12
4.28368E-09 4.12307E-12
4.57402E-09 3.66891E-12
4.87388E-09 3.27586E-12
5.18326E-09 2.93430E-12
5.50215E-09 2.63635E-12
5.83057E-09 2.37536E-12
6.16850E-09 2.14607E-12
6.51596E-09 1.94392E-12
6.87293E-09 1.76508E-12
7.23942E-09 1.60633E-12
7.61544E-09 1.46499E-12
1.18991E-08 6.43685E-13
1.71347E-08 3.25511E-13
2.33223E-08 1.81785E-13
3.04617E-08 1.09276E-13
3.85531E-08 6.95877E-14
4.75965E-08 4.64042E-14
5.75917E-08 3.21273E-14
6.85389E-08 2.29442E-14
8.04380E-08 1.68211E-14
9.32891E-08 1.26106E-14
1.07092E-07 9.63743E-15
1.21847E-07 7.49011E-15
1.37554E-07 5.90822E-15
1.54213E-07 4.72221E-15
1.71823E-07 3.81896E-15
1.90386E-07 3.12150E-15
2.09900E-07 2.57610E-15
2.30367E-07 2.14468E-15
2.51785E-07 1.79985E-15
2.74156E-07 1.52160E-15
2.97478E-07 1.29509E-15
3.21752E-07 1.10920E-15
3.46978E-07 9.55493E-16
3.73156E-07 8.27521E-16
4.00286E-07 7.20277E-16
4.28368E-07 6.29861E-16
4.57402E-07 5.53203E-16
4.87388E-07 4.87864E-16
5.18325E-07 4.31896E-16
5.50215E-07 3.83731E-16
5.83057E-07 3.42100E-16
6.16850E-07 3.05966E-16
6.51596E-07 2.74481E-16
6.87293E-07 2.46945E-16
7.23942E-07 2.22778E-16
7.61543E-07 2.01496E-16
1.18991E-06 8.30994E-17
1.71347E-06 4.02565E-17
2.33223E-06 2.17971E-17
3.04617E-06 1.28056E-17
3.85531E-06 8.00772E-18
4.75964E-06 5.26056E-18
5.75916E-06 3.59666E-18
6.85388E-06 2.54157E-18
8.04378E-06 1.84651E-18
9.32888E-06 1.37362E-18
1.07092E-05 1.04288E-18
1.21846E-05 8.05964E-19
1.37553E-05 6.32667E-19
1.54212E-05 5.03548E-19
1.71822E-05 4.05755E-19
1.90385E-05 3.30406E-19
2.09899E-05 2.72090E-19
2.30365E-05 2.26054E-19
2.51783E-05 1.89302E-19
2.74153E-05 1.59684E-19
2.97475E-05 1.35619E-19
3.21749E-05 1.15920E-19
3.46974E-05 9.96830E-20
3.73152E-05 8.62047E-20
4.00281E-05 7.49394E-20
4.28362E-05 6.54606E-20
4.57395E-05 5.74345E-20
4.87380E-05 5.05992E-20
5.18317E-05 4.47483E-20
5.50205E-05 3.97172E-20
5.83045E-05 3.53730E-20
6.16838E-05 3.16075E-20
6.51582E-05 2.83312E-20
6.87277E-05 2.54699E-20
7.23925E-05 2.29617E-20
7.61524E-05 2.10602E-20
9.21439E-05 1.44230E-20
1.09658E-04 1.02082E-20
1.28695E-04 7.42725E-21
1.49255E-04 5.53159E-21
1.71338E-04 4.20368E-21
1.94942E-04 3.25071E-21
2.20070E-04 2.55245E-21
2.46720E-04 2.03133E-21
2.74892E-04 1.63601E-21
3.04586E-04 1.33175E-21
3.35803E-04 1.09448E-21
3.68542E-04 9.07270E-22
4.02802E-04 7.57976E-22
4.38585E-04 6.37756E-22
4.75889E-04 5.40086E-22
5.14715E-04 4.60092E-22
5.55063E-04 3.94081E-22
5.96931E-04 3.39234E-22
6.40321E-04 2.93371E-22
6.85233E-04 2.54794E-22
7.31665E-04 2.22168E-22
7.79618E-04 1.94431E-22
8.29092E-04 1.70741E-22
8.80086E-04 1.50415E-22
9.32601E-04 1.32904E-22
9.86636E-04 1.17758E-22
1.04219E-03 1.04610E-22
1.09927E-03 9.31573E-23
1.15786E-03 8.31482E-23
1.21797E-03 7.43743E-23
1.27961E-03 6.66609E-23
1.34276E-03 5.98611E-23
1.40743E-03 5.38515E-23
1.47362E-03 4.85270E-23
1.54133E-03 4.37988E-23
1.61056E-03 3.95907E-23
1.68131E-03 3.58379E-23
1.75357E-03 3.24844E-23
1.82735E-03 2.94821E-23
1.90265E-03 2.67894E-23
1.97947E-03 2.43704E-23
2.05780E-03 2.21936E-23
2.13765E-03 2.02319E-23
2.21902E-03 1.84613E-23
2.30190E-03 1.68611E-23
2.38630E-03 1.54129E-23
2.47222E-03 1.41006E-23
2.55965E-03 1.29100E-23
2.64859E-03 1.18287E-23
2.73905E-03 1.08454E-23
2.83103E-03 9.95043E-24
2.92452E-03 9.13498E-24
3.01952E-03 8.39128E-24
3.11604E-03 7.71241E-24
3.21407E-03 7.09219E-24
3.31362E-03 6.52507E-24
3.41468E-03 6.00611E-24
3.51725E-03 5.53086E-24
3.62133E-03 5.09533E-24
3.72692E-03 4.69593E-24
3.83403E-03 4.32942E-24
3.94265E-03 3.99288E-24
4.05278E-03 3.68370E-24
4.16442E-03 3.39948E-24
4.27757E-03 3.13807E-24
4.39223E-03 2.89753E-24
4.50840E-03 2.67607E-24
4.62608E-03 2.47210E-24
4.74527E-03 2.28416E-24
4.86597E-03 2.11091E-24
4.98817E-03 1.95115E-24
5.11188E-03 1.80377E-24
5.23711E-03 1.66777E-24
5.36383E-03 1.54224E-24
5.49207E-03 1.42632E-24
5.62181E-03 1.31926E-24
5.75306E-03 1.22036E-24
5.88581E-03 1.12897E-24
6.02007E-03 1.04449E-24
6.15583E-03 9.66405E-25
6.29310E-03 8.94203E-25
6.43187E-03 8.27433E-25
6.57214E-03 7.65676E-25
6.71392E-03 7.08549E-25
6.85720E-03 6.55698E-25
7.00198E-03 6.06798E-25
7.14827E-03 5.61548E-25
7.29605E-03 5.19675E-25
7.44534E-03 4.80922E-25
7.59612E-03 4.45056E-25
7.97965E-03 3.66640E-25
8.37255E-03 3.02009E-25
8.77480E-03 2.48742E-25
9.18641E-03 2.04853E-25
9.60736E-03 1.68703E-25
1.00376E-02 1.38943E-25
1.04773E-02 1.14460E-25
1.09262E-02 9.43326E-26
1.13844E-02 7.77990E-26
1.18520E-02 6.42290E-26
1.23288E-02 5.31010E-26
1.28150E-02 4.39832E-26
1.33104E-02 3.65179E-26
1.38150E-02 3.04095E-26
1.43290E-02 2.54134E-26
1.48521E-02 2.13277E-26
1.53845E-02 1.79857E-26
1.59262E-02 1.52501E-26
1.64770E-02 1.30081E-26
1.70371E-02 1.11668E-26
1.76063E-02 9.65035E-27
1.81848E-02 8.39674E-27
1.87724E-02 7.35539E-27
1.93692E-02 6.48523E-27
1.99751E-02 5.75301E-27
2.05901E-02 5.13192E-27
2.12143E-02 4.60039E-27
2.18476E-02 4.14120E-27
2.24900E-02 3.74059E-27
2.31415E-02 3.38768E-27
2.38021E-02 3.07387E-27
2.44717E-02 2.79241E-27
2.51504E-02 2.53802E-27
2.58382E-02 2.30658E-27
2.65349E-02 2.09491E-27
2.72407E-02 1.90052E-27
2.79555E-02 1.72148E-27
2.86793E-02 1.55630E-27
2.94120E-02 1.40378E-27
3.01537E-02 1.26297E-27
3.09043E-02 1.13309E-27
3.16639E-02 1.01349E-27
3.24324E-02 9.03588E-28
3.32098E-02 8.02861E-28
3.39961E-02 7.10826E-28
3.47912E-02 6.27019E-28
3.55952E-02 5.50989E-28
3.64081E-02 4.82288E-28
3.72297E-02 4.20475E-28
3.80602E-02 3.65107E-28
3.88995E-02 3.15746E-28
3.97476E-02 2.71958E-28
4.06044E-02 2.33314E-28
4.14700E-02 1.99393E-28
4.23443E-02 1.69787E-28
4.32273E-02 1.44099E-28
4.41190E-02 1.21950E-28
4.50194E-02 1.02976E-28
4.59284E-02 8.68350E-29
4.68461E-02 7.32026E-29
4.87074E-02 5.22805E-29
5.06030E-02 3.80621E-29
5.25328E-02 2.87526E-29
5.44967E-02 2.28962E-29
5.64946E-02 1.93504E-29
5.85262E-02 1.72496E-29
6.05914E-02 1.59658E-29
6.26901E-02 1.50669E-29
6.48222E-02 1.42764E-29
6.69873E-02 1.34370E-29
6.91854E-02 1.24775E-29
7.14163E-02 1.13860E-29
7.36799E-02 1.01873E-29
7.59760E-02 8.92539E-30
7.83043E-02 7.65141E-30
8.06647E-02 6.41437E-30
8.30571E-02 5.25588E-30
8.54812E-02 4.20732E-30
8.79369E-02 3.28887E-30
9.04240E-02 2.51008E-30
9.29422E-02 1.87121E-30
9.54915E-02 1.36510E-30
9.80716E-02 9.79193E-31
1.00682E-01 6.97543E-31
1.03323E-01 5.02555E-31
1.05995E-01 3.76463E-31
1.08696E-01 3.02456E-31
1.11427E-01 2.65470E-31
1.14188E-01 2.52675E-31
1.16978E-01 2.53677E-31
1.19797E-01 2.60526E-31
1.22645E-01 2.67546E-31
1.25522E-01 2.71066E-31
1.28428E-01 2.69087E-31
1.31361E-01 2.60926E-31
1.34323E-01 2.46863E-31
1.37313E-01 2.27824E-31
1.40330E-01 2.05105E-31
1.43375E-01 1.80143E-31
1.46447E-01 1.54348E-31
1.49545E-01 1.28980E-31
1.52671E-01 1.05071E-31
1.55823E-01 8.33946E-32
1.59001E-01 6.44538E-32
1.62205E-01 4.85033E-32
1.65435E-01 3.55804E-32
1.68690E-01 2.55476E-32
1.71970E-01 1.81380E-32
1.75276E-01 1.29995E-32
1.78606E-01 9.73579E-33
1.81961E-01 7.94044E-33
1.85340E-01 7.22446E-33
1.88743E-01 7.23634E-33
1.92169E-01 7.67499E-33
1.95619E-01 8.29645E-33
1.99092E-01 8.91526E-33
2.02589E-01 9.40180E-33
2.06107E-01 9.67653E-33
2.09649E-01 9.70237E-33
2.13212E-01 9.47615E-33
2.16797E-01 9.01990E-33
2.20404E-01 8.37258E-33
2.24032E-01 7.58273E-33
2.27680E-01 6.70226E-33
2.31350E-01 5.78160E-33
2.35040E-01 4.86608E-33
2.38751E-01 3.99365E-33
2.42481E-01 3.19355E-33
2.46231E-01 2.48608E-33
2.50000E-01 1.88290E-33
2.53788E-01 1.38800E-33
2.57595E-01 9.98895E-34
2.61421E-01 7.08083E-34
2.65264E-01 5.04456E-34
2.69126E-01 3.74693E-34
2.73005E-01 3.04489E-34
2.76901E-01 2.79582E-34
2.80814E-01 2.86575E-34
2.84744E-01 3.13515E-34
2.88691E-01 3.50274E-34
2.92653E-01 3.88734E-34
2.96632E-01 4.22805E-34
3.00625E-01 4.48329E-34
3.04634E-01 4.62876E-34
3.08658E-01 4.65496E-34
3.12697E-01 4.56423E-34
3.16749E-01 4.36782E-34
3.20816E-01 4.08307E-34
3.24896E-01 3.73082E-34
3.28990E-01 3.33321E-34
3.33097E-01 2.91192E-34
3.37216E-01 2.48679E-34
3.41348E-01 2.07487E-34
3.45492E-01 1.68992E-34
3.49647E-01 1.34211E-34
3.53814E-01 1.03814E-34
3.57992E-01 7.81419E-35
3.62181E-01 5.72536E-35
3.66381E-01 4.09705E-35
3.70590E-01 2.89313E-35
3.74810E-01 2.06455E-35
3.79039E-01 1.55431E-35
3.83277E-01 1.30198E-35
3.87524E-01 1.24744E-35
3.91780E-01 1.33393E-35
3.96044E-01 1.51028E-35
4.00316E-01 1.73238E-35
4.04596E-01 1.96401E-35
4.08882E-01 2.17706E-35
4.13176E-01 2.35129E-35
4.17476E-01 2.47370E-35
4.21783E-01 2.53770E-35
4.26095E-01 2.54202E-35
4.30413E-01 2.48967E-35
4.34737E-01 2.38684E-35
4.39065E-01 2.24183E-35
4.43398E-01 2.06419E-35
4.47736E-01 1.86384E-35
4.52077E-01 1.65050E-35
4.56422E-01 1.43312E-35
4.60770E-01 1.21956E-35
4.65122E-01 1.01637E-35
4.69476E-01 8.28649E-36
4.73832E-01 6.60061E-36
4.78190E-01 5.12899E-36
4.82550E-01 3.88208E-36
4.86912E-01 2.85951E-36
4.91274E-01 2.05205E-36
4.95637E-01 1.44351E-36
5.00000E-01 1.01274E-36
5.04363E-01 7.35431E-37
5.08726E-01 5.85769E-37
5.13088E-01 5.37799E-37
5.17450E-01 5.66589E-37
5.21810E-01 6.49118E-37
5.26168E-01 7.64883E-37
5.30524E-01 8.96303E-37
5.34878E-01 1.02891E-36
5.39230E-01 1.15135E-36
5.43578E-01 1.25527E-36
5.47923E-01 1.33508E-36
5.52264E-01 1.38764E-36
5.56602E-01 1.41190E-36
5.60935E-01 1.40852E-36
5.65263E-01 1.37950E-36
5.69587E-01 1.32781E-36
5.73905E-01 1.25708E-36
5.78217E-01 1.17126E-36
5.82524E-01 1.07443E-36
5.86824E-01 9.70540E-37
5.91118E-01 8.63287E-37
5.95404E-01 7.55979E-37
5.99684E-01 6.51477E-37
6.03956E-01 5.52129E-37
6.08220E-01 4.59773E-37
6.12476E-01 3.75753E-37
6.16723E-01 3.00931E-37
6.20961E-01 2.35750E-37
6.25190E-01 1.80282E-37
6.29410E-01 1.34278E-37
6.33619E-01 9.72422E-38
6.37819E-01 6.84836E-38
6.42008E-01 1.00000E-45
6.46186E-01 1.00000E-45
6.50353E-01 1.00000E-45
6.54508E-01 1.00000E-45
6.58652E-01 1.00000E-45
6.62784E-01 1.00000E-45
6.66903E-01 1.00000E-45
6.71010E-01 1.00000E-45
6.75104E-01 1.00000E-45
6.79184E-01 1.00000E-45
6.83251E-01 1.00000E-45
6.87303E-01 1.00000E-45
6.91342E-01 1.00000E-45
6.95366E-01 1.00000E-45
6.99375E-01 1.00000E-45
7.03368E-01 1.00000E-45
7.07347E-01 1.00000E-45
7.11309E-01 1.00000E-45
7.15256E-01 1.00000E-45
7.19186E-01 1.00000E-45
7.23099E-01 1.00000E-45
7.26995E-01 1.00000E-45
7.30874E-01 1.00000E-45
7.34736E-01 1.00000E-45
7.38579E-01 1.00000E-45
7.42405E-01 1.00000E-45
7.46212E-01 1.00000E-45
7.50000E-01 1.00000E-45
7.53769E-01 1.00000E-45
7.57519E-01 1.00000E-45
7.61249E-01 1.00000E-45
7.64960E-01 1.00000E-45
7.68650E-01 1.00000E-45
7.72320E-01 1.00000E-45
7.75968E-01 1.00000E-45
7.79596E-01 1.00000E-45
7.83203E-01 1.00000E-45
7.86788E-01 1.00000E-45
7.90351E-01 1.00000E-45
7.93893E-01 1.00000E-45
7.97411E-01 1.00000E-45
8.00908E-01 1.00000E-45
8.04381E-01 1.00000E-45
8.07831E-01 1.00000E-45
8.11257E-01 1.00000E-45
8.14660E-01 1.00000E-45
8.18039E-01 1.00000E-45
8.21394E-01 1.00000E-45
8.24724E-01 1.00000E-45
8.28030E-01 1.00000E-45
8.31310E-01 1.00000E-45
8.34565E-01 1.00000E-45
8.37795E-01 1.00000E-45
8.40999E-01 1.00000E-45
8.44177E-01 1.00000E-45
8.47329E-01 1.00000E-45
8.50455E-01 1.00000E-45
8.53553E-01 1.00000E-45
8.56625E-01 1.00000E-45
8.59670E-01 1.00000E-45
8.62687E-01 1.00000E-45
8.65677E-01 1.00000E-45
8.68639E-01 1.00000E-45
8.71572E-01 1.00000E-45
8.74478E-01 1.00000E-45
8.77355E-01 1.00000E-45
8.80203E-01 1.00000E-45
8.83022E-01 1.00000E-45
8.85812E-01 1.00000E-45
8.88573E-01 1.00000E-45
8.91304E-01 1.00000E-45
8.94005E-01 1.00000E-45
8.96677E-01 1.00000E-45
8.99318E-01 1.00000E-45
9.01928E-01 1.00000E-45
9.04508E-01 1.00000E-45
9.07058E-01 1.00000E-45
9.09576E-01 1.00000E-45
9.12063E-01 1.00000E-45
9.14519E-01 1.00000E-45
9.16943E-01 1.00000E-45
9.19335E-01 1.00000E-45
9.21696E-01 1.00000E-45
9.24024E-01 1.00000E-45
9.26320E-01 1.00000E-45
9.28584E-01 1.00000E-45
9.30815E-01 1.00000E-45
9.33013E-01 1.00000E-45
9.35178E-01 1.00000E-45
9.37310E-01 1.00000E-45
9.39409E-01 1.00000E-45
9.41474E-01 1.00000E-45
9.43505E-01 1.00000E-45
9.45503E-01 1.00000E-45
9.47467E-01 1.00000E-45
9.49397E-01 1.00000E-45
9.51293E-01 1.00000E-45
9.53154E-01 1.00000E-45
9.54981E-01 1.00000E-45
9.56773E-01 1.00000E-45
9.58530E-01 1.00000E-45
9.60252E-01 1.00000E-45
9.61940E-01 1.00000E-45
9.63592E-01 1.00000E-45
9.65209E-01 1.00000E-45
9.66790E-01 1.00000E-45
9.68336E-01 1.00000E-45
9.69846E-01 1.00000E-45
9.71321E-01 1.00000E-45
9.72759E-01 1.00000E-45
9.74162E-01 1.00000E-45
9.75528E-01 1.00000E-45
9.76858E-01 1.00000E-45
9.78152E-01 1.00000E-45
9.79410E-01 1.00000E-45
9.80631E-01 1.00000E-45
9.81815E-01 1.00000E-45
9.82963E-01 1.00000E-45
9.84074E-01 1.00000E-45
9.85148E-01 1.00000E-45
9.86185E-01 1.00000E-45
9.87185E-01 1.00000E-45
9.88148E-01 1.00000E-45
9.89074E-01 1.00000E-45
9.89962E-01 1.00000E-45
9.90814E-01 1.00000E-45
9.91627E-01 1.00000E-45
9.92404E-01 1.00000E-45
9.93143E-01 1.00000E-45
9.93844E-01 1.00000E-45
9.94508E-01 1.00000E-45
9.95134E-01 1.00000E-45
9.95722E-01 1.00000E-45
9.96273E-01 1.00000E-45
9.96786E-01 1.00000E-45
9.97261E-01 1.00000E-45
9.97698E-01 1.00000E-45
9.98097E-01 1.00000E-45
9.98459E-01 1.00000E-45
9.98782E-01 1.00000E-45
9.99067E-01 1.00000E-45
9.99315E-01 1.00000E-45
9.99524E-01 1.00000E-45
9.99695E-01 1.00000E-45
9.99829E-01 1.00000E-45
9.99924E-01 1.00000E-45
9.99981E-01 1.00000E-45
1.00000E+00 1.00000E-45
