 #
 # Subroutine ELSEPA. Elastic scattering of electrons and positrons
 #                    by neutral atoms and positive ions
 #
 # Projectile: electron
 # Kinetic energy = 9.00000E+08 eV = 3.30744E+07 a.u.
 #
 # WARNING: High-energy factorization with free-atom DF screening.
 #          Absorption, polarization and exchange corrections are
 #          switched off.
 #          Phase shifts are calculated for the bare nucleus.
 #          Scattering amplitudes are not evaluated.
 #
 # Element: Os,  Z =  76,  atomic weight = 1.90230E+02 g/mol
 #
 # Nuclear model: Fermi distribution
 #                Average radius = 6.15380E-13 cm
 #                Skin thickness = 5.46000E-14 cm
 #
 # Number of electrons = 76
 #
 # Total elastic cross section = 7.64953E-18 cm**2 = 2.73170E-01 a0**2
 # 1st transport cross section = 1.34289E-26 cm**2 = 4.79555E-10 a0**2
 # 2nd transport cross section = 4.02819E-26 cm**2 = 1.43849E-09 a0**2
 #
 #
 # Differential cross section:                       MU=(1-COS(THETA))/2
 #
 #  THETA        MU          DCS          DCS        Sherman      error
 #  (deg)                 (cm**2/sr)   (a0**2/sr)    function
 #----------------------------------------------------------------------
0.00000E+00 4.17697E-08
7.61557E-13 3.54563E-08
1.18994E-12 3.25998E-08
1.71346E-12 2.96190E-08
2.33225E-12 2.66645E-08
3.04617E-12 2.38619E-08
3.85530E-12 2.12638E-08
4.75964E-12 1.89103E-08
5.75917E-12 1.68138E-08
6.85391E-12 1.49529E-08
8.04379E-12 1.33196E-08
9.32893E-12 1.18906E-08
1.07092E-11 1.06353E-08
1.21847E-11 9.53877E-09
1.37554E-11 8.57767E-09
1.54213E-11 7.73157E-09
1.71823E-11 6.98797E-09
1.90386E-11 6.33072E-09
2.09900E-11 5.74828E-09
2.30367E-11 5.23199E-09
2.51785E-11 4.77137E-09
2.74156E-11 4.36027E-09
2.97478E-11 3.97368E-09
3.21752E-11 3.62621E-09
3.46979E-11 3.32470E-09
3.73157E-11 3.06185E-09
4.00286E-11 2.83164E-09
4.28368E-11 2.62913E-09
4.57402E-11 2.43249E-09
4.87388E-11 2.24437E-09
5.18325E-11 2.07803E-09
5.50215E-11 1.93041E-09
5.83057E-11 1.79893E-09
6.16850E-11 1.68144E-09
6.51595E-11 1.56949E-09
6.87293E-11 1.46116E-09
7.23943E-11 1.36391E-09
7.61544E-11 1.27635E-09
1.18991E-10 6.98676E-10
1.71347E-10 4.14231E-10
2.33223E-10 2.59835E-10
3.04617E-10 1.70387E-10
3.85531E-10 1.15447E-10
4.75965E-10 8.06531E-11
5.75917E-10 5.79663E-11
6.85389E-10 4.27258E-11
8.04380E-10 3.22014E-11
9.32891E-10 2.47775E-11
1.07092E-09 1.94145E-11
1.21847E-09 1.54521E-11
1.37554E-09 1.24596E-11
1.54213E-09 1.01589E-11
1.71823E-09 8.36896E-12
1.90386E-09 6.95809E-12
2.09900E-09 5.83326E-12
2.30367E-09 4.92728E-12
2.51785E-09 4.18953E-12
2.74156E-09 3.58438E-12
2.97478E-09 3.08238E-12
3.21752E-09 2.66665E-12
3.46978E-09 2.32031E-12
3.73156E-09 2.02611E-12
4.00286E-09 1.77878E-12
4.28368E-09 1.56691E-12
4.57402E-09 1.38600E-12
4.87388E-09 1.23071E-12
5.18326E-09 1.09606E-12
5.50215E-09 9.79905E-13
5.83057E-09 8.78175E-13
6.16850E-09 7.89565E-13
6.51596E-09 7.11846E-13
6.87293E-09 6.43335E-13
7.23942E-09 5.83102E-13
7.61544E-09 5.29471E-13
1.18991E-08 2.25636E-13
1.71347E-08 1.11816E-13
2.33223E-08 6.15755E-14
3.04617E-08 3.66397E-14
3.85531E-08 2.31347E-14
4.75965E-08 1.53111E-14
5.75917E-08 1.05291E-14
6.85389E-08 7.47510E-15
8.04380E-08 5.45179E-15
9.32891E-08 4.06883E-15
1.07092E-07 3.09786E-15
1.21847E-07 2.40003E-15
1.37554E-07 1.88813E-15
1.54213E-07 1.50575E-15
1.71823E-07 1.21548E-15
1.90386E-07 9.91922E-16
2.09900E-07 8.17492E-16
2.30367E-07 6.79781E-16
2.51785E-07 5.69890E-16
2.74156E-07 4.81336E-16
2.97478E-07 4.09334E-16
3.21752E-07 3.50306E-16
3.46978E-07 3.01544E-16
3.73156E-07 2.60980E-16
4.00286E-07 2.27010E-16
4.28368E-07 1.98392E-16
4.57402E-07 1.74144E-16
4.87388E-07 1.53489E-16
5.18325E-07 1.35807E-16
5.50215E-07 1.20599E-16
5.83057E-07 1.07460E-16
6.16850E-07 9.60625E-17
6.51596E-07 8.61364E-17
6.87293E-07 7.74593E-17
7.23942E-07 6.98477E-17
7.61543E-07 6.31482E-17
1.18991E-06 2.59494E-17
1.71347E-06 1.25386E-17
2.33223E-06 6.77674E-18
3.04617E-06 3.97602E-18
3.85531E-06 2.48391E-18
4.75964E-06 1.63058E-18
5.75916E-06 1.11420E-18
6.85388E-06 7.87004E-19
8.04378E-06 5.71577E-19
9.32888E-06 4.25077E-19
1.07092E-05 3.22654E-19
1.21846E-05 2.49308E-19
1.37553E-05 1.95672E-19
1.54212E-05 1.55717E-19
1.71822E-05 1.25462E-19
1.90385E-05 1.02154E-19
2.09899E-05 8.41176E-20
2.30365E-05 6.98809E-20
2.51783E-05 5.85167E-20
2.74153E-05 4.93591E-20
2.97475E-05 4.19195E-20
3.21749E-05 3.58312E-20
3.46974E-05 3.08110E-20
3.73152E-05 2.66438E-20
4.00281E-05 2.31611E-20
4.28362E-05 2.02307E-20
4.57395E-05 1.77496E-20
4.87380E-05 1.56368E-20
5.18317E-05 1.38283E-20
5.50205E-05 1.22732E-20
5.83045E-05 1.09306E-20
6.16838E-05 9.76678E-21
6.51582E-05 8.75422E-21
6.87277E-05 7.86993E-21
7.23925E-05 7.09481E-21
7.61524E-05 6.53912E-21
9.21439E-05 4.46108E-21
1.09658E-04 3.14156E-21
1.28695E-04 2.27180E-21
1.49255E-04 1.67970E-21
1.71338E-04 1.26575E-21
1.94942E-04 9.69482E-22
2.20070E-04 7.53133E-22
2.46720E-04 5.92336E-22
2.74892E-04 4.70948E-22
3.04586E-04 3.78044E-22
3.35803E-04 3.06059E-22
3.68542E-04 2.49667E-22
4.02802E-04 2.05052E-22
4.38585E-04 1.69438E-22
4.75889E-04 1.40779E-22
5.14715E-04 1.17546E-22
5.55063E-04 9.85874E-23
5.96931E-04 8.30213E-23
6.40321E-04 7.01697E-23
6.85233E-04 5.95050E-23
7.31665E-04 5.06138E-23
7.79618E-04 4.31693E-23
8.29092E-04 3.69116E-23
8.80086E-04 3.16324E-23
9.32601E-04 2.71639E-23
9.86636E-04 2.33701E-23
1.04219E-03 2.01399E-23
1.09927E-03 1.73827E-23
1.15786E-03 1.50234E-23
1.21797E-03 1.30004E-23
1.27961E-03 1.12622E-23
1.34276E-03 9.76591E-24
1.40743E-03 8.47583E-24
1.47362E-03 7.36179E-24
1.54133E-03 6.39847E-24
1.61056E-03 5.56442E-24
1.68131E-03 4.84150E-24
1.75357E-03 4.21427E-24
1.82735E-03 3.66957E-24
1.90265E-03 3.19618E-24
1.97947E-03 2.78446E-24
2.05780E-03 2.42619E-24
2.13765E-03 2.11426E-24
2.21902E-03 1.84257E-24
2.30190E-03 1.60585E-24
2.38630E-03 1.39954E-24
2.47222E-03 1.21970E-24
2.55965E-03 1.06293E-24
2.64859E-03 9.26256E-25
2.73905E-03 8.07105E-25
2.83103E-03 7.03240E-25
2.92452E-03 6.12713E-25
3.01952E-03 5.33825E-25
3.11604E-03 4.65098E-25
3.21407E-03 4.05239E-25
3.31362E-03 3.53122E-25
3.41468E-03 3.07760E-25
3.51725E-03 2.68294E-25
3.62133E-03 2.33972E-25
3.72692E-03 2.04136E-25
3.83403E-03 1.78210E-25
3.94265E-03 1.55692E-25
4.05278E-03 1.36142E-25
4.16442E-03 1.19175E-25
4.27757E-03 1.04454E-25
4.39223E-03 9.16876E-26
4.50840E-03 8.06172E-26
4.62608E-03 7.10189E-26
4.74527E-03 6.26974E-26
4.86597E-03 5.54817E-26
4.98817E-03 4.92232E-26
5.11188E-03 4.37922E-26
5.23711E-03 3.90761E-26
5.36383E-03 3.49769E-26
5.49207E-03 3.14094E-26
5.62181E-03 2.83000E-26
5.75306E-03 2.55846E-26
5.88581E-03 2.32080E-26
6.02007E-03 2.11225E-26
6.15583E-03 1.92868E-26
6.29310E-03 1.76656E-26
6.43187E-03 1.62283E-26
6.57214E-03 1.49489E-26
6.71392E-03 1.38050E-26
6.85720E-03 1.27775E-26
7.00198E-03 1.18502E-26
7.14827E-03 1.10091E-26
7.29605E-03 1.02426E-26
7.44534E-03 9.54071E-27
7.59612E-03 8.89502E-27
7.97965E-03 7.48306E-27
8.37255E-03 6.29826E-27
8.77480E-03 5.28726E-27
9.18641E-03 4.41586E-27
9.60736E-03 3.66183E-27
1.00376E-02 3.01009E-27
1.04773E-02 2.44963E-27
1.09262E-02 1.97158E-27
1.13844E-02 1.56805E-27
1.18520E-02 1.23159E-27
1.23288E-02 9.54895E-28
1.28150E-02 7.30772E-28
1.33104E-02 5.52210E-28
1.38150E-02 4.12481E-28
1.43290E-02 3.05259E-28
1.48521E-02 2.24727E-28
1.53845E-02 1.65654E-28
1.59262E-02 1.23440E-28
1.64770E-02 9.41325E-29
1.70371E-02 7.44155E-29
1.76063E-02 6.15744E-29
1.81848E-02 5.34477E-29
1.87724E-02 4.83658E-29
1.93692E-02 4.50845E-29
1.99751E-02 4.27172E-29
2.05901E-02 4.06686E-29
2.12143E-02 3.85732E-29
2.18476E-02 3.62397E-29
2.24900E-02 3.36030E-29
2.31415E-02 3.06833E-29
2.38021E-02 2.75534E-29
2.44717E-02 2.43129E-29
2.51504E-02 2.10685E-29
2.58382E-02 1.79215E-29
2.65349E-02 1.49580E-29
2.72407E-02 1.22449E-29
2.79555E-02 9.82796E-30
2.86793E-02 7.73211E-30
2.94120E-02 5.96377E-30
3.01537E-02 4.51368E-30
3.09043E-02 3.36040E-30
3.16639E-02 2.47382E-30
3.24324E-02 1.81850E-30
3.32098E-02 1.35663E-30
3.39961E-02 1.05047E-30
3.47912E-02 8.64289E-31
3.55952E-02 7.65777E-31
3.64081E-02 7.26907E-31
3.72297E-02 7.24400E-31
3.80602E-02 7.39806E-31
3.88995E-02 7.59293E-31
3.97476E-02 7.73237E-31
4.06044E-02 7.75661E-31
4.14700E-02 7.63609E-31
4.23443E-02 7.36496E-31
4.32273E-02 6.95484E-31
4.41190E-02 6.42902E-31
4.50194E-02 5.81756E-31
4.59284E-02 5.15308E-31
4.68461E-02 4.46759E-31
4.87074E-02 3.14498E-31
5.06030E-02 2.02249E-31
5.25328E-02 1.18573E-31
5.44967E-02 6.42756E-32
5.64946E-02 3.48423E-32
5.85262E-02 2.31801E-32
6.05914E-02 2.19218E-32
6.26901E-02 2.49448E-32
6.48222E-02 2.80727E-32
6.69873E-02 2.91167E-32
6.91854E-02 2.74981E-32
7.14163E-02 2.36885E-32
7.36799E-02 1.86536E-32
7.59760E-02 1.34142E-32
7.83043E-02 8.77150E-33
8.06647E-02 5.18983E-33
8.30571E-02 2.80201E-33
8.54812E-02 1.48783E-33
8.79369E-02 9.81167E-34
9.04240E-02 9.71424E-34
9.29422E-02 1.17923E-33
9.54915E-02 1.39947E-33
9.80716E-02 1.51404E-33
1.00682E-01 1.48250E-33
1.03323E-01 1.32033E-33
1.05995E-01 1.07373E-33
1.08696E-01 7.97291E-34
1.11427E-01 5.38247E-34
1.14188E-01 3.28014E-34
1.16978E-01 1.80265E-34
1.19797E-01 9.35508E-35
1.22645E-01 5.62881E-35
1.25522E-01 5.22355E-35
1.28428E-01 6.51270E-35
1.31361E-01 8.17845E-35
1.34323E-01 9.35793E-35
1.37313E-01 9.65011E-35
1.40330E-01 9.02898E-35
1.43375E-01 7.71203E-35
1.46447E-01 6.02563E-35
1.49545E-01 4.29511E-35
1.52671E-01 2.77332E-35
1.55823E-01 1.60863E-35
1.59001E-01 8.45624E-36
1.62205E-01 4.47052E-36
1.65435E-01 3.25588E-36
1.68690E-01 3.75587E-36
1.71970E-01 4.98479E-36
1.75276E-01 6.18745E-36
1.78606E-01 6.90378E-36
1.81961E-01 6.95603E-36
1.85340E-01 6.38610E-36
1.88743E-01 5.37146E-36
1.92169E-01 4.14254E-36
1.95619E-01 2.91736E-36
1.99092E-01 1.85994E-36
2.02589E-01 1.06316E-36
2.06107E-01 5.51015E-37
2.09649E-01 2.93836E-37
2.13212E-01 2.29250E-37
2.16797E-01 2.83047E-37
2.20404E-01 3.85974E-37
2.24032E-01 4.84527E-37
2.27680E-01 5.45513E-37
2.31350E-01 5.55526E-37
2.35040E-01 5.16899E-37
2.38751E-01 4.42111E-37
2.42481E-01 3.48045E-37
2.46231E-01 2.51302E-37
2.50000E-01 1.00000E-45
2.53788E-01 1.00000E-45
2.57595E-01 1.00000E-45
2.61421E-01 1.00000E-45
2.65264E-01 1.00000E-45
2.69126E-01 1.00000E-45
2.73005E-01 1.00000E-45
2.76901E-01 1.00000E-45
2.80814E-01 1.00000E-45
2.84744E-01 1.00000E-45
2.88691E-01 1.00000E-45
2.92653E-01 1.00000E-45
2.96632E-01 1.00000E-45
3.00625E-01 1.00000E-45
3.04634E-01 1.00000E-45
3.08658E-01 1.00000E-45
3.12697E-01 1.00000E-45
3.16749E-01 1.00000E-45
3.20816E-01 1.00000E-45
3.24896E-01 1.00000E-45
3.28990E-01 1.00000E-45
3.33097E-01 1.00000E-45
3.37216E-01 1.00000E-45
3.41348E-01 1.00000E-45
3.45492E-01 1.00000E-45
3.49647E-01 1.00000E-45
3.53814E-01 1.00000E-45
3.57992E-01 1.00000E-45
3.62181E-01 1.00000E-45
3.66381E-01 1.00000E-45
3.70590E-01 1.00000E-45
3.74810E-01 1.00000E-45
3.79039E-01 1.00000E-45
3.83277E-01 1.00000E-45
3.87524E-01 1.00000E-45
3.91780E-01 1.00000E-45
3.96044E-01 1.00000E-45
4.00316E-01 1.00000E-45
4.04596E-01 1.00000E-45
4.08882E-01 1.00000E-45
4.13176E-01 1.00000E-45
4.17476E-01 1.00000E-45
4.21783E-01 1.00000E-45
4.26095E-01 1.00000E-45
4.30413E-01 1.00000E-45
4.34737E-01 1.00000E-45
4.39065E-01 1.00000E-45
4.43398E-01 1.00000E-45
4.47736E-01 1.00000E-45
4.52077E-01 1.00000E-45
4.56422E-01 1.00000E-45
4.60770E-01 1.00000E-45
4.65122E-01 1.00000E-45
4.69476E-01 1.00000E-45
4.73832E-01 1.00000E-45
4.78190E-01 1.00000E-45
4.82550E-01 1.00000E-45
4.86912E-01 1.00000E-45
4.91274E-01 1.00000E-45
4.95637E-01 1.00000E-45
5.00000E-01 1.00000E-45
5.04363E-01 1.00000E-45
5.08726E-01 1.00000E-45
5.13088E-01 1.00000E-45
5.17450E-01 1.00000E-45
5.21810E-01 1.00000E-45
5.26168E-01 1.00000E-45
5.30524E-01 1.00000E-45
5.34878E-01 1.00000E-45
5.39230E-01 1.00000E-45
5.43578E-01 1.00000E-45
5.47923E-01 1.00000E-45
5.52264E-01 1.00000E-45
5.56602E-01 1.00000E-45
5.60935E-01 1.00000E-45
5.65263E-01 1.00000E-45
5.69587E-01 1.00000E-45
5.73905E-01 1.00000E-45
5.78217E-01 1.00000E-45
5.82524E-01 1.00000E-45
5.86824E-01 1.00000E-45
5.91118E-01 1.00000E-45
5.95404E-01 1.00000E-45
5.99684E-01 1.00000E-45
6.03956E-01 1.00000E-45
6.08220E-01 1.00000E-45
6.12476E-01 1.00000E-45
6.16723E-01 1.00000E-45
6.20961E-01 1.00000E-45
6.25190E-01 1.00000E-45
6.29410E-01 1.00000E-45
6.33619E-01 1.00000E-45
6.37819E-01 1.00000E-45
6.42008E-01 1.00000E-45
6.46186E-01 1.00000E-45
6.50353E-01 1.00000E-45
6.54508E-01 1.00000E-45
6.58652E-01 1.00000E-45
6.62784E-01 1.00000E-45
6.66903E-01 1.00000E-45
6.71010E-01 1.00000E-45
6.75104E-01 1.00000E-45
6.79184E-01 1.00000E-45
6.83251E-01 1.00000E-45
6.87303E-01 1.00000E-45
6.91342E-01 1.00000E-45
6.95366E-01 1.00000E-45
6.99375E-01 1.00000E-45
7.03368E-01 1.00000E-45
7.07347E-01 1.00000E-45
7.11309E-01 1.00000E-45
7.15256E-01 1.00000E-45
7.19186E-01 1.00000E-45
7.23099E-01 1.00000E-45
7.26995E-01 1.00000E-45
7.30874E-01 1.00000E-45
7.34736E-01 1.00000E-45
7.38579E-01 1.00000E-45
7.42405E-01 1.00000E-45
7.46212E-01 1.00000E-45
7.50000E-01 1.00000E-45
7.53769E-01 1.00000E-45
7.57519E-01 1.00000E-45
7.61249E-01 1.00000E-45
7.64960E-01 1.00000E-45
7.68650E-01 1.00000E-45
7.72320E-01 1.00000E-45
7.75968E-01 1.00000E-45
7.79596E-01 1.00000E-45
7.83203E-01 1.00000E-45
7.86788E-01 1.00000E-45
7.90351E-01 1.00000E-45
7.93893E-01 1.00000E-45
7.97411E-01 1.00000E-45
8.00908E-01 1.00000E-45
8.04381E-01 1.00000E-45
8.07831E-01 1.00000E-45
8.11257E-01 1.00000E-45
8.14660E-01 1.00000E-45
8.18039E-01 1.00000E-45
8.21394E-01 1.00000E-45
8.24724E-01 1.00000E-45
8.28030E-01 1.00000E-45
8.31310E-01 1.00000E-45
8.34565E-01 1.00000E-45
8.37795E-01 1.00000E-45
8.40999E-01 1.00000E-45
8.44177E-01 1.00000E-45
8.47329E-01 1.00000E-45
8.50455E-01 1.00000E-45
8.53553E-01 1.00000E-45
8.56625E-01 1.00000E-45
8.59670E-01 1.00000E-45
8.62687E-01 1.00000E-45
8.65677E-01 1.00000E-45
8.68639E-01 1.00000E-45
8.71572E-01 1.00000E-45
8.74478E-01 1.00000E-45
8.77355E-01 1.00000E-45
8.80203E-01 1.00000E-45
8.83022E-01 1.00000E-45
8.85812E-01 1.00000E-45
8.88573E-01 1.00000E-45
8.91304E-01 1.00000E-45
8.94005E-01 1.00000E-45
8.96677E-01 1.00000E-45
8.99318E-01 1.00000E-45
9.01928E-01 1.00000E-45
9.04508E-01 1.00000E-45
9.07058E-01 1.00000E-45
9.09576E-01 1.00000E-45
9.12063E-01 1.00000E-45
9.14519E-01 1.00000E-45
9.16943E-01 1.00000E-45
9.19335E-01 1.00000E-45
9.21696E-01 1.00000E-45
9.24024E-01 1.00000E-45
9.26320E-01 1.00000E-45
9.28584E-01 1.00000E-45
9.30815E-01 1.00000E-45
9.33013E-01 1.00000E-45
9.35178E-01 1.00000E-45
9.37310E-01 1.00000E-45
9.39409E-01 1.00000E-45
9.41474E-01 1.00000E-45
9.43505E-01 1.00000E-45
9.45503E-01 1.00000E-45
9.47467E-01 1.00000E-45
9.49397E-01 1.00000E-45
9.51293E-01 1.00000E-45
9.53154E-01 1.00000E-45
9.54981E-01 1.00000E-45
9.56773E-01 1.00000E-45
9.58530E-01 1.00000E-45
9.60252E-01 1.00000E-45
9.61940E-01 1.00000E-45
9.63592E-01 1.00000E-45
9.65209E-01 1.00000E-45
9.66790E-01 1.00000E-45
9.68336E-01 1.00000E-45
9.69846E-01 1.00000E-45
9.71321E-01 1.00000E-45
9.72759E-01 1.00000E-45
9.74162E-01 1.00000E-45
9.75528E-01 1.00000E-45
9.76858E-01 1.00000E-45
9.78152E-01 1.00000E-45
9.79410E-01 1.00000E-45
9.80631E-01 1.00000E-45
9.81815E-01 1.00000E-45
9.82963E-01 1.00000E-45
9.84074E-01 1.00000E-45
9.85148E-01 1.00000E-45
9.86185E-01 1.00000E-45
9.87185E-01 1.00000E-45
9.88148E-01 1.00000E-45
9.89074E-01 1.00000E-45
9.89962E-01 1.00000E-45
9.90814E-01 1.00000E-45
9.91627E-01 1.00000E-45
9.92404E-01 1.00000E-45
9.93143E-01 1.00000E-45
9.93844E-01 1.00000E-45
9.94508E-01 1.00000E-45
9.95134E-01 1.00000E-45
9.95722E-01 1.00000E-45
9.96273E-01 1.00000E-45
9.96786E-01 1.00000E-45
9.97261E-01 1.00000E-45
9.97698E-01 1.00000E-45
9.98097E-01 1.00000E-45
9.98459E-01 1.00000E-45
9.98782E-01 1.00000E-45
9.99067E-01 1.00000E-45
9.99315E-01 1.00000E-45
9.99524E-01 1.00000E-45
9.99695E-01 1.00000E-45
9.99829E-01 1.00000E-45
9.99924E-01 1.00000E-45
9.99981E-01 1.00000E-45
1.00000E+00 1.00000E-45
