 #
 # Subroutine ELSEPA. Elastic scattering of electrons and positrons
 #                    by neutral atoms and positive ions
 #
 # Projectile: electron
 # Kinetic energy = 3.00000E+07 eV = 1.10248E+06 a.u.
 #
 # WARNING: High-energy factorization with free-atom DF screening.
 #          Absorption, polarization and exchange corrections are
 #          switched off.
 #          Phase shifts are calculated for the bare nucleus.
 #          Scattering amplitudes are not evaluated.
 #
 # Element: Os,  Z =  76,  atomic weight = 1.90230E+02 g/mol
 #
 # Nuclear model: Fermi distribution
 #                Average radius = 6.15380E-13 cm
 #                Skin thickness = 5.46000E-14 cm
 #
 # Number of electrons = 76
 #
 # Total elastic cross section = 7.68202E-18 cm**2 = 2.74330E-01 a0**2
 # 1st transport cross section = 1.18617E-23 cm**2 = 4.23589E-07 a0**2
 # 2nd transport cross section = 3.40446E-23 cm**2 = 1.21576E-06 a0**2
 #
 #
 # Differential cross section:                       MU=(1-COS(THETA))/2
 #
 #  THETA        MU          DCS          DCS        Sherman      error
 #  (deg)                 (cm**2/sr)   (a0**2/sr)    function
 #----------------------------------------------------------------------
0.00000E+00 4.79509E-11
7.61557E-13 4.79411E-11
1.18994E-12 4.79357E-11
1.71346E-12 4.79291E-11
2.33225E-12 4.79213E-11
3.04617E-12 4.79123E-11
3.85530E-12 4.79022E-11
4.75964E-12 4.78908E-11
5.75917E-12 4.78782E-11
6.85391E-12 4.78645E-11
8.04379E-12 4.78496E-11
9.32893E-12 4.78335E-11
1.07092E-11 4.78162E-11
1.21847E-11 4.77977E-11
1.37554E-11 4.77781E-11
1.54213E-11 4.77573E-11
1.71823E-11 4.77353E-11
1.90386E-11 4.77121E-11
2.09900E-11 4.76878E-11
2.30367E-11 4.76623E-11
2.51785E-11 4.76357E-11
2.74156E-11 4.76079E-11
2.97478E-11 4.75790E-11
3.21752E-11 4.75489E-11
3.46979E-11 4.75177E-11
3.73157E-11 4.74853E-11
4.00286E-11 4.74518E-11
4.28368E-11 4.74172E-11
4.57402E-11 4.73814E-11
4.87388E-11 4.73445E-11
5.18325E-11 4.73065E-11
5.50215E-11 4.72674E-11
5.83057E-11 4.72272E-11
6.16850E-11 4.71859E-11
6.51595E-11 4.71434E-11
6.87293E-11 4.70999E-11
7.23943E-11 4.70553E-11
7.61544E-11 4.70096E-11
1.18991E-10 4.64945E-11
1.71347E-10 4.58781E-11
2.33223E-10 4.51676E-11
3.04617E-10 4.43664E-11
3.85531E-10 4.34975E-11
4.75965E-10 4.25495E-11
5.75917E-10 4.15526E-11
6.85389E-10 4.04993E-11
8.04380E-10 3.94109E-11
9.32891E-10 3.82910E-11
1.07092E-09 3.71462E-11
1.21847E-09 3.59948E-11
1.37554E-09 3.48256E-11
1.54213E-09 3.36722E-11
1.71823E-09 3.25063E-11
1.90386E-09 3.13671E-11
2.09900E-09 3.02346E-11
2.30367E-09 2.91286E-11
2.51785E-09 2.80453E-11
2.74156E-09 2.69863E-11
2.97478E-09 2.59628E-11
3.21752E-09 2.49604E-11
3.46978E-09 2.40022E-11
3.73156E-09 2.30624E-11
4.00286E-09 2.21667E-11
4.28368E-09 2.12974E-11
4.57402E-09 2.04654E-11
4.87388E-09 1.96655E-11
5.18326E-09 1.88964E-11
5.50215E-09 1.81631E-11
5.83057E-09 1.74547E-11
6.16850E-09 1.67838E-11
6.51596E-09 1.61335E-11
6.87293E-09 1.55176E-11
7.23942E-09 1.49248E-11
7.61544E-09 1.43602E-11
1.18991E-08 9.91106E-12
1.71347E-08 7.04098E-12
2.33223E-08 5.13624E-12
3.04617E-08 3.78465E-12
3.85531E-08 2.91415E-12
4.75965E-08 2.23624E-12
5.75917E-08 1.76781E-12
6.85389E-08 1.40528E-12
8.04380E-08 1.13678E-12
9.32891E-08 9.28602E-13
1.07092E-07 7.66004E-13
1.21847E-07 6.39071E-13
1.37554E-07 5.35589E-13
1.54213E-07 4.54117E-13
1.71823E-07 3.85463E-13
1.90386E-07 3.30337E-13
2.09900E-07 2.83839E-13
2.30367E-07 2.45392E-13
2.51785E-07 2.12971E-13
2.74156E-07 1.85535E-13
2.97478E-07 1.62404E-13
3.21752E-07 1.42478E-13
3.46978E-07 1.25653E-13
3.73156E-07 1.10984E-13
4.00286E-07 9.84909E-14
4.28368E-07 8.76145E-14
4.57402E-07 7.82237E-14
4.87388E-07 7.00435E-14
5.18325E-07 6.29014E-14
5.50215E-07 5.66661E-14
5.83057E-07 5.11838E-14
6.16850E-07 4.63809E-14
6.51596E-07 4.20861E-14
6.87293E-07 3.83001E-14
7.23942E-07 3.49325E-14
7.61543E-07 3.19403E-14
1.18991E-06 1.45011E-14
1.71347E-06 7.54246E-15
2.33223E-06 4.30547E-15
3.04617E-06 2.63024E-15
3.85531E-06 1.69570E-15
4.75964E-06 1.14230E-15
5.75916E-06 7.96896E-16
6.85388E-06 5.72756E-16
8.04378E-06 4.22217E-16
9.32888E-06 3.17979E-16
1.07092E-05 2.44079E-16
1.21846E-05 1.90461E-16
1.37553E-05 1.50807E-16
1.54212E-05 1.20979E-16
1.71822E-05 9.81689E-17
1.90385E-05 8.04541E-17
2.09899E-05 6.66404E-17
2.30365E-05 5.56572E-17
2.51783E-05 4.68343E-17
2.74153E-05 3.96779E-17
2.97475E-05 3.38325E-17
3.21749E-05 2.90235E-17
3.46974E-05 2.50403E-17
3.73152E-05 2.17205E-17
4.00281E-05 1.89343E-17
4.28362E-05 1.65816E-17
4.57395E-05 1.45829E-17
4.87380E-05 1.28753E-17
5.18317E-05 1.14096E-17
5.50205E-05 1.01458E-17
5.83045E-05 9.05195E-18
6.16838E-05 8.10172E-18
6.51582E-05 7.27310E-18
6.87277E-05 6.54809E-18
7.23925E-05 5.91138E-18
7.61524E-05 5.34966E-18
9.21439E-05 3.67364E-18
1.09658E-04 2.60572E-18
1.28695E-04 1.89959E-18
1.49255E-04 1.41738E-18
1.71338E-04 1.07911E-18
1.94942E-04 8.36080E-19
2.20070E-04 6.57848E-19
2.46720E-04 5.24730E-19
2.74892E-04 4.23677E-19
3.04586E-04 3.45850E-19
3.35803E-04 2.85121E-19
3.68542E-04 2.37173E-19
4.02802E-04 1.98905E-19
4.38585E-04 1.68064E-19
4.75889E-04 1.42985E-19
5.14715E-04 1.22421E-19
5.55063E-04 1.05431E-19
5.96931E-04 9.12933E-20
6.40321E-04 7.94526E-20
6.85233E-04 6.94747E-20
7.31665E-04 6.10185E-20
7.79618E-04 5.38133E-20
8.29092E-04 4.76436E-20
8.80086E-04 4.23355E-20
9.32601E-04 3.77484E-20
9.86636E-04 3.37679E-20
1.04219E-03 3.03001E-20
1.09927E-03 2.72676E-20
1.15786E-03 2.46064E-20
1.21797E-03 2.22632E-20
1.27961E-03 2.01934E-20
1.34276E-03 1.83595E-20
1.40743E-03 1.67300E-20
1.47362E-03 1.52781E-20
1.54133E-03 1.39810E-20
1.61056E-03 1.28192E-20
1.68131E-03 1.17762E-20
1.75357E-03 1.08377E-20
1.82735E-03 9.99132E-21
1.90265E-03 9.22638E-21
1.97947E-03 8.53363E-21
2.05780E-03 7.90506E-21
2.13765E-03 7.33363E-21
2.21902E-03 6.81321E-21
2.30190E-03 6.33842E-21
2.38630E-03 5.90453E-21
2.47222E-03 5.50737E-21
2.55965E-03 5.14327E-21
2.64859E-03 4.80896E-21
2.73905E-03 4.50156E-21
2.83103E-03 4.21851E-21
2.92452E-03 3.95752E-21
3.01952E-03 3.71655E-21
3.11604E-03 3.49378E-21
3.21407E-03 3.28758E-21
3.31362E-03 3.09649E-21
3.41468E-03 2.91920E-21
3.51725E-03 2.75451E-21
3.62133E-03 2.60138E-21
3.72692E-03 2.45883E-21
3.83403E-03 2.32599E-21
3.94265E-03 2.20209E-21
4.05278E-03 2.08640E-21
4.16442E-03 1.97828E-21
4.27757E-03 1.87714E-21
4.39223E-03 1.78244E-21
4.50840E-03 1.69369E-21
4.62608E-03 1.61046E-21
4.74527E-03 1.53232E-21
4.86597E-03 1.45892E-21
4.98817E-03 1.38990E-21
5.11188E-03 1.32496E-21
5.23711E-03 1.26380E-21
5.36383E-03 1.20618E-21
5.49207E-03 1.15183E-21
5.62181E-03 1.10055E-21
5.75306E-03 1.05212E-21
5.88581E-03 1.00635E-21
6.02007E-03 9.63079E-22
6.15583E-03 9.22132E-22
6.29310E-03 8.83363E-22
6.43187E-03 8.46635E-22
6.57214E-03 8.11819E-22
6.71392E-03 7.78796E-22
6.85720E-03 7.47455E-22
7.00198E-03 7.17695E-22
7.14827E-03 6.89419E-22
7.29605E-03 6.62540E-22
7.44534E-03 6.36975E-22
7.59612E-03 6.12647E-22
7.97965E-03 5.56781E-22
8.37255E-03 5.07218E-22
8.77480E-03 4.63117E-22
9.18641E-03 4.23768E-22
9.60736E-03 3.88565E-22
1.00376E-02 3.56990E-22
1.04773E-02 3.28602E-22
1.09262E-02 3.03018E-22
1.13844E-02 2.79912E-22
1.18520E-02 2.58997E-22
1.23288E-02 2.40027E-22
1.28150E-02 2.22788E-22
1.33104E-02 2.07091E-22
1.38150E-02 1.92773E-22
1.43290E-02 1.79690E-22
1.48521E-02 1.67714E-22
1.53845E-02 1.56735E-22
1.59262E-02 1.46652E-22
1.64770E-02 1.37380E-22
1.70371E-02 1.28841E-22
1.76063E-02 1.20964E-22
1.81848E-02 1.13690E-22
1.87724E-02 1.06962E-22
1.93692E-02 1.00733E-22
1.99751E-02 9.49570E-23
2.05901E-02 8.95955E-23
2.12143E-02 8.46128E-23
2.18476E-02 7.99769E-23
2.24900E-02 7.56589E-23
2.31415E-02 7.16328E-23
2.38021E-02 6.78748E-23
2.44717E-02 6.43637E-23
2.51504E-02 6.10800E-23
2.58382E-02 5.80061E-23
2.65349E-02 5.51260E-23
2.72407E-02 5.24251E-23
2.79555E-02 4.98901E-23
2.86793E-02 4.75081E-23
2.94120E-02 4.52677E-23
3.01537E-02 4.31594E-23
3.09043E-02 4.11740E-23
3.16639E-02 3.93029E-23
3.24324E-02 3.75380E-23
3.32098E-02 3.58723E-23
3.39961E-02 3.42990E-23
3.47912E-02 3.28120E-23
3.55952E-02 3.14055E-23
3.64081E-02 3.00743E-23
3.72297E-02 2.88136E-23
3.80602E-02 2.76189E-23
3.88995E-02 2.64861E-23
3.97476E-02 2.54112E-23
4.06044E-02 2.43908E-23
4.14700E-02 2.34214E-23
4.23443E-02 2.25001E-23
4.32273E-02 2.16240E-23
4.41190E-02 2.07904E-23
4.50194E-02 1.99968E-23
4.59284E-02 1.92409E-23
4.68461E-02 1.85206E-23
4.87074E-02 1.71787E-23
5.06030E-02 1.59565E-23
5.25328E-02 1.48414E-23
5.44967E-02 1.38222E-23
5.64946E-02 1.28890E-23
5.85262E-02 1.20331E-23
6.05914E-02 1.12470E-23
6.26901E-02 1.05239E-23
6.48222E-02 9.85769E-24
6.69873E-02 9.24309E-24
6.91854E-02 8.67534E-24
7.14163E-02 8.15017E-24
7.36799E-02 7.66378E-24
7.59760E-02 7.21276E-24
7.83043E-02 6.79405E-24
8.06647E-02 6.40488E-24
8.30571E-02 6.04279E-24
8.54812E-02 5.70552E-24
8.79369E-02 5.39106E-24
9.04240E-02 5.09757E-24
9.29422E-02 4.82339E-24
9.54915E-02 4.56700E-24
9.80716E-02 4.32704E-24
1.00682E-01 4.10226E-24
1.03323E-01 3.89152E-24
1.05995E-01 3.69378E-24
1.08696E-01 3.50808E-24
1.11427E-01 3.33357E-24
1.14188E-01 3.16943E-24
1.16978E-01 3.01495E-24
1.19797E-01 2.86944E-24
1.22645E-01 2.73230E-24
1.25522E-01 2.60296E-24
1.28428E-01 2.48088E-24
1.31361E-01 2.36560E-24
1.34323E-01 2.25666E-24
1.37313E-01 2.15366E-24
1.40330E-01 2.05620E-24
1.43375E-01 1.96395E-24
1.46447E-01 1.87658E-24
1.49545E-01 1.79378E-24
1.52671E-01 1.71526E-24
1.55823E-01 1.64078E-24
1.59001E-01 1.57009E-24
1.62205E-01 1.50296E-24
1.65435E-01 1.43918E-24
1.68690E-01 1.37856E-24
1.71970E-01 1.32092E-24
1.75276E-01 1.26607E-24
1.78606E-01 1.21388E-24
1.81961E-01 1.16418E-24
1.85340E-01 1.11684E-24
1.88743E-01 1.07172E-24
1.92169E-01 1.02871E-24
1.95619E-01 9.87695E-25
1.99092E-01 9.48562E-25
2.02589E-01 9.11215E-25
2.06107E-01 8.75557E-25
2.09649E-01 8.41501E-25
2.13212E-01 8.08964E-25
2.16797E-01 7.77868E-25
2.20404E-01 7.48138E-25
2.24032E-01 7.19707E-25
2.27680E-01 6.92507E-25
2.31350E-01 6.66479E-25
2.35040E-01 6.41564E-25
2.38751E-01 6.17708E-25
2.42481E-01 5.94858E-25
2.46231E-01 5.72967E-25
2.50000E-01 5.51988E-25
2.53788E-01 5.31878E-25
2.57595E-01 5.12596E-25
2.61421E-01 4.94102E-25
2.65264E-01 4.76361E-25
2.69126E-01 4.59336E-25
2.73005E-01 4.42996E-25
2.76901E-01 4.27309E-25
2.80814E-01 4.12245E-25
2.84744E-01 3.97777E-25
2.88691E-01 3.83877E-25
2.92653E-01 3.70520E-25
2.96632E-01 3.57682E-25
3.00625E-01 3.45341E-25
3.04634E-01 3.33474E-25
3.08658E-01 3.22062E-25
3.12697E-01 3.11084E-25
3.16749E-01 3.00522E-25
3.20816E-01 2.90358E-25
3.24896E-01 2.80576E-25
3.28990E-01 2.71158E-25
3.33097E-01 2.62091E-25
3.37216E-01 2.53359E-25
3.41348E-01 2.44948E-25
3.45492E-01 2.36845E-25
3.49647E-01 2.29038E-25
3.53814E-01 2.21515E-25
3.57992E-01 2.14263E-25
3.62181E-01 2.07273E-25
3.66381E-01 2.00533E-25
3.70590E-01 1.94034E-25
3.74810E-01 1.87765E-25
3.79039E-01 1.81719E-25
3.83277E-01 1.75886E-25
3.87524E-01 1.70257E-25
3.91780E-01 1.64825E-25
3.96044E-01 1.59583E-25
4.00316E-01 1.54522E-25
4.04596E-01 1.49637E-25
4.08882E-01 1.44919E-25
4.13176E-01 1.40364E-25
4.17476E-01 1.35964E-25
4.21783E-01 1.31713E-25
4.26095E-01 1.27607E-25
4.30413E-01 1.23640E-25
4.34737E-01 1.19807E-25
4.39065E-01 1.16102E-25
4.43398E-01 1.12521E-25
4.47736E-01 1.09059E-25
4.52077E-01 1.05713E-25
4.56422E-01 1.02477E-25
4.60770E-01 9.93480E-26
4.65122E-01 9.63219E-26
4.69476E-01 9.33950E-26
4.73832E-01 9.05637E-26
4.78190E-01 8.78247E-26
4.82550E-01 8.51746E-26
4.86912E-01 8.26102E-26
4.91274E-01 8.01286E-26
4.95637E-01 7.77268E-26
5.00000E-01 7.54021E-26
5.04363E-01 7.31516E-26
5.08726E-01 7.09729E-26
5.13088E-01 6.88635E-26
5.17450E-01 6.68208E-26
5.21810E-01 6.48427E-26
5.26168E-01 6.29269E-26
5.30524E-01 6.10713E-26
5.34878E-01 5.92738E-26
5.39230E-01 5.75325E-26
5.43578E-01 5.58454E-26
5.47923E-01 5.42107E-26
5.52264E-01 5.26266E-26
5.56602E-01 5.10914E-26
5.60935E-01 4.96035E-26
5.65263E-01 4.81613E-26
5.69587E-01 4.67634E-26
5.73905E-01 4.54081E-26
5.78217E-01 4.40941E-26
5.82524E-01 4.28200E-26
5.86824E-01 4.15846E-26
5.91118E-01 4.03865E-26
5.95404E-01 3.92246E-26
5.99684E-01 3.80976E-26
6.03956E-01 3.70044E-26
6.08220E-01 3.59439E-26
6.12476E-01 3.49151E-26
6.16723E-01 3.39169E-26
6.20961E-01 3.29483E-26
6.25190E-01 3.20084E-26
6.29410E-01 3.10963E-26
6.33619E-01 3.02111E-26
6.37819E-01 2.93520E-26
6.42008E-01 2.85180E-26
6.46186E-01 2.77084E-26
6.50353E-01 2.69224E-26
6.54508E-01 2.61594E-26
6.58652E-01 2.54185E-26
6.62784E-01 2.46990E-26
6.66903E-01 2.40004E-26
6.71010E-01 2.33219E-26
6.75104E-01 2.26630E-26
6.79184E-01 2.20229E-26
6.83251E-01 2.14012E-26
6.87303E-01 2.07972E-26
6.91342E-01 2.02105E-26
6.95366E-01 1.96404E-26
6.99375E-01 1.90865E-26
7.03368E-01 1.85483E-26
7.07347E-01 1.80253E-26
7.11309E-01 1.75170E-26
7.15256E-01 1.70231E-26
7.19186E-01 1.65429E-26
7.23099E-01 1.60762E-26
7.26995E-01 1.56226E-26
7.30874E-01 1.51816E-26
7.34736E-01 1.47528E-26
7.38579E-01 1.43359E-26
7.42405E-01 1.39306E-26
7.46212E-01 1.35365E-26
7.50000E-01 1.31532E-26
7.53769E-01 1.27805E-26
7.57519E-01 1.24180E-26
7.61249E-01 1.20654E-26
7.64960E-01 1.17225E-26
7.68650E-01 1.13889E-26
7.72320E-01 1.10644E-26
7.75968E-01 1.07487E-26
7.79596E-01 1.04415E-26
7.83203E-01 1.01427E-26
7.86788E-01 9.85191E-27
7.90351E-01 9.56898E-27
7.93893E-01 9.29365E-27
7.97411E-01 9.02572E-27
8.00908E-01 8.76496E-27
8.04381E-01 8.51118E-27
8.07831E-01 8.26417E-27
8.11257E-01 8.02374E-27
8.14660E-01 7.78971E-27
8.18039E-01 7.56189E-27
8.21394E-01 7.34011E-27
8.24724E-01 7.12421E-27
8.28030E-01 6.91401E-27
8.31310E-01 6.70935E-27
8.34565E-01 6.51009E-27
8.37795E-01 6.31607E-27
8.40999E-01 6.12715E-27
8.44177E-01 5.94319E-27
8.47329E-01 5.76404E-27
8.50455E-01 5.58959E-27
8.53553E-01 5.41970E-27
8.56625E-01 5.25425E-27
8.59670E-01 5.09311E-27
8.62687E-01 4.93618E-27
8.65677E-01 4.78333E-27
8.68639E-01 4.63447E-27
8.71572E-01 4.48947E-27
8.74478E-01 4.34825E-27
8.77355E-01 4.21070E-27
8.80203E-01 4.07672E-27
8.83022E-01 3.94622E-27
8.85812E-01 3.81912E-27
8.88573E-01 3.69531E-27
8.91304E-01 3.57472E-27
8.94005E-01 3.45727E-27
8.96677E-01 3.34287E-27
8.99318E-01 3.23144E-27
9.01928E-01 3.12292E-27
9.04508E-01 3.01722E-27
9.07058E-01 2.91428E-27
9.09576E-01 2.81403E-27
9.12063E-01 2.71640E-27
9.14519E-01 2.62133E-27
9.16943E-01 2.52875E-27
9.19335E-01 2.43861E-27
9.21696E-01 2.35084E-27
9.24024E-01 2.26539E-27
9.26320E-01 2.18221E-27
9.28584E-01 2.10124E-27
9.30815E-01 2.02242E-27
9.33013E-01 1.94572E-27
9.35178E-01 1.87107E-27
9.37310E-01 1.79844E-27
9.39409E-01 1.72777E-27
9.41474E-01 1.65903E-27
9.43505E-01 1.59217E-27
9.45503E-01 1.52714E-27
9.47467E-01 1.46392E-27
9.49397E-01 1.40245E-27
9.51293E-01 1.34271E-27
9.53154E-01 1.28466E-27
9.54981E-01 1.22825E-27
9.56773E-01 1.17347E-27
9.58530E-01 1.12026E-27
9.60252E-01 1.06861E-27
9.61940E-01 1.01848E-27
9.63592E-01 9.69842E-28
9.65209E-01 9.22666E-28
9.66790E-01 8.76926E-28
9.68336E-01 8.32593E-28
9.69846E-01 7.89643E-28
9.71321E-01 7.48051E-28
9.72759E-01 7.07791E-28
9.74162E-01 6.68841E-28
9.75528E-01 6.31179E-28
9.76858E-01 5.94783E-28
9.78152E-01 5.59631E-28
9.79410E-01 5.25705E-28
9.80631E-01 4.92984E-28
9.81815E-01 4.61450E-28
9.82963E-01 4.31085E-28
9.84074E-01 4.01873E-28
9.85148E-01 3.73796E-28
9.86185E-01 3.46840E-28
9.87185E-01 3.20989E-28
9.88148E-01 2.96228E-28
9.89074E-01 2.72544E-28
9.89962E-01 2.49924E-28
9.90814E-01 2.28355E-28
9.91627E-01 2.07825E-28
9.92404E-01 1.88324E-28
9.93143E-01 1.69840E-28
9.93844E-01 1.52364E-28
9.94508E-01 1.35885E-28
9.95134E-01 1.20395E-28
9.95722E-01 1.05885E-28
9.96273E-01 9.23475E-29
9.96786E-01 7.97752E-29
9.97261E-01 6.81613E-29
9.97698E-01 5.74993E-29
9.98097E-01 4.77836E-29
9.98459E-01 3.90089E-29
9.98782E-01 3.11704E-29
9.99067E-01 2.42641E-29
9.99315E-01 1.82860E-29
9.99524E-01 1.32331E-29
9.99695E-01 9.10255E-30
9.99829E-01 5.89222E-30
9.99924E-01 3.60036E-30
9.99981E-01 2.22573E-30
1.00000E+00 1.76760E-30
