 #
 # Subroutine ELSEPA. Elastic scattering of electrons and positrons
 #                    by neutral atoms and positive ions
 #
 # Projectile: electron
 # Kinetic energy = 9.00000E+07 eV = 3.30744E+06 a.u.
 #
 # WARNING: High-energy factorization with free-atom DF screening.
 #          Absorption, polarization and exchange corrections are
 #          switched off.
 #          Phase shifts are calculated for the bare nucleus.
 #          Scattering amplitudes are not evaluated.
 #
 # Element: Os,  Z =  76,  atomic weight = 1.90230E+02 g/mol
 #
 # Nuclear model: Fermi distribution
 #                Average radius = 6.15380E-13 cm
 #                Skin thickness = 5.46000E-14 cm
 #
 # Number of electrons = 76
 #
 # Total elastic cross section = 7.67803E-18 cm**2 = 2.74187E-01 a0**2
 # 1st transport cross section = 1.34932E-24 cm**2 = 4.81851E-08 a0**2
 # 2nd transport cross section = 4.00977E-24 cm**2 = 1.43191E-07 a0**2
 #
 #
 # Differential cross section:                       MU=(1-COS(THETA))/2
 #
 #  THETA        MU          DCS          DCS        Sherman      error
 #  (deg)                 (cm**2/sr)   (a0**2/sr)    function
 #----------------------------------------------------------------------
0.00000E+00 4.21974E-10
7.61557E-13 4.21230E-10
1.18994E-12 4.20814E-10
1.71346E-12 4.20307E-10
2.33225E-12 4.19709E-10
3.04617E-12 4.19021E-10
3.85530E-12 4.18244E-10
4.75964E-12 4.17379E-10
5.75917E-12 4.16426E-10
6.85391E-12 4.15386E-10
8.04379E-12 4.14262E-10
9.32893E-12 4.13053E-10
1.07092E-11 4.11762E-10
1.21847E-11 4.10389E-10
1.37554E-11 4.08937E-10
1.54213E-11 4.07406E-10
1.71823E-11 4.05799E-10
1.90386E-11 4.04117E-10
2.09900E-11 4.02361E-10
2.30367E-11 4.00534E-10
2.51785E-11 3.98637E-10
2.74156E-11 3.96672E-10
2.97478E-11 3.94624E-10
3.21752E-11 3.92513E-10
3.46979E-11 3.90349E-10
3.73157E-11 3.88134E-10
4.00286E-11 3.85872E-10
4.28368E-11 3.83564E-10
4.57402E-11 3.81169E-10
4.87388E-11 3.78712E-10
5.18325E-11 3.76218E-10
5.50215E-11 3.73689E-10
5.83057E-11 3.71129E-10
6.16850E-11 3.68539E-10
6.51595E-11 3.65871E-10
6.87293E-11 3.63146E-10
7.23943E-11 3.60400E-10
7.61544E-11 3.57635E-10
1.18991E-10 3.28574E-10
1.71347E-10 2.98316E-10
2.33223E-10 2.68340E-10
3.04617E-10 2.39938E-10
3.85531E-10 2.13687E-10
4.75965E-10 1.89899E-10
5.75917E-10 1.68734E-10
6.85389E-10 1.50000E-10
8.04380E-10 1.33542E-10
9.32891E-10 1.19160E-10
1.07092E-09 1.06550E-10
1.21847E-09 9.55230E-11
1.37554E-09 8.58782E-11
1.54213E-09 7.73829E-11
1.71823E-09 6.99147E-11
1.90386E-09 6.33323E-11
2.09900E-09 5.74861E-11
2.30367E-09 5.23058E-11
2.51785E-09 4.76974E-11
2.74156E-09 4.35745E-11
2.97478E-09 3.96698E-11
3.21752E-09 3.62069E-11
3.46978E-09 3.32023E-11
3.73156E-09 3.05830E-11
4.00286E-09 2.82891E-11
4.28368E-09 2.62713E-11
4.57402E-09 2.42592E-11
4.87388E-09 2.23868E-11
5.18326E-09 2.07312E-11
5.50215E-09 1.92619E-11
5.83057E-09 1.79533E-11
6.16850E-09 1.67838E-11
6.51596E-09 1.56411E-11
6.87293E-09 1.45638E-11
7.23942E-09 1.35966E-11
7.61544E-09 1.27258E-11
1.18991E-08 6.95689E-12
1.71347E-08 4.12470E-12
2.33223E-08 2.58429E-12
3.04617E-08 1.69297E-12
3.85531E-08 1.14695E-12
4.75965E-08 8.00773E-13
5.75917E-08 5.75330E-13
6.85389E-08 4.24121E-13
8.04380E-08 3.19577E-13
9.32891E-08 2.45906E-13
1.07092E-07 1.92698E-13
1.21847E-07 1.53355E-13
1.37554E-07 1.23655E-13
1.54213E-07 1.00813E-13
1.71823E-07 8.30406E-14
1.90386E-07 6.90446E-14
2.09900E-07 5.78764E-14
2.30367E-07 4.88813E-14
2.51785E-07 4.15630E-14
2.74156E-07 3.55554E-14
2.97478E-07 3.05719E-14
3.21752E-07 2.64519E-14
3.46978E-07 2.30104E-14
3.73156E-07 2.00950E-14
4.00286E-07 1.76439E-14
4.28368E-07 1.55388E-14
4.57402E-07 1.37460E-14
4.87388E-07 1.22038E-14
5.18325E-07 1.08694E-14
5.50215E-07 9.71770E-15
5.83057E-07 8.70801E-15
6.16850E-07 7.82994E-15
6.51596E-07 7.05826E-15
6.87293E-07 6.37938E-15
7.23942E-07 5.78143E-15
7.61543E-07 5.25001E-15
1.18991E-06 2.23730E-15
1.71347E-06 1.10879E-15
2.33223E-06 6.10639E-16
3.04617E-06 3.63383E-16
3.85531E-06 2.29459E-16
4.75964E-06 1.51876E-16
5.75916E-06 1.04454E-16
6.85388E-06 7.41668E-17
8.04378E-06 5.40993E-17
9.32888E-06 4.03818E-17
1.07092E-05 3.07498E-17
1.21846E-05 2.38267E-17
1.37553E-05 1.87476E-17
1.54212E-05 1.49532E-17
1.71822E-05 1.20725E-17
1.90385E-05 9.84798E-18
2.09899E-05 8.12295E-18
2.30365E-05 6.75864E-18
2.51783E-05 5.66759E-18
2.74153E-05 4.78687E-18
2.97475E-05 4.07018E-18
3.21749E-05 3.48276E-18
3.46974E-05 2.99789E-18
3.73152E-05 2.59494E-18
4.00281E-05 2.25778E-18
4.28362E-05 1.97376E-18
4.57395E-05 1.73304E-18
4.87380E-05 1.52784E-18
5.18317E-05 1.35204E-18
5.50205E-05 1.20074E-18
5.83045E-05 1.07001E-18
6.16838E-05 9.56598E-19
6.51582E-05 8.57858E-19
6.87277E-05 7.71569E-19
7.23925E-05 6.95885E-19
7.61524E-05 6.29405E-19
9.21439E-05 4.30893E-19
1.09658E-04 3.04845E-19
1.28695E-04 2.21743E-19
1.49255E-04 1.65135E-19
1.71338E-04 1.25512E-19
1.94942E-04 9.71031E-20
2.20070E-04 7.63058E-20
2.46720E-04 6.07979E-20
2.74892E-04 4.90430E-20
3.04586E-04 4.00015E-20
3.35803E-04 3.29549E-20
3.68542E-04 2.73971E-20
4.02802E-04 2.29658E-20
4.38585E-04 1.93974E-20
4.75889E-04 1.64978E-20
5.14715E-04 1.41219E-20
5.55063E-04 1.21599E-20
5.96931E-04 1.05283E-20
6.40321E-04 9.16225E-21
6.85233E-04 8.01154E-21
7.31665E-04 7.03662E-21
7.79618E-04 6.20615E-21
8.29092E-04 5.49516E-21
8.80086E-04 4.88355E-21
9.32601E-04 4.35508E-21
9.86636E-04 3.89652E-21
1.04219E-03 3.49703E-21
1.09927E-03 3.14770E-21
1.15786E-03 2.84112E-21
1.21797E-03 2.57116E-21
1.27961E-03 2.33269E-21
1.34276E-03 2.12136E-21
1.40743E-03 1.93357E-21
1.47362E-03 1.76621E-21
1.54133E-03 1.61667E-21
1.61056E-03 1.48272E-21
1.68131E-03 1.36243E-21
1.75357E-03 1.25417E-21
1.82735E-03 1.15651E-21
1.90265E-03 1.06823E-21
1.97947E-03 9.88256E-22
2.05780E-03 9.15675E-22
2.13765E-03 8.49674E-22
2.21902E-03 7.89548E-22
2.30190E-03 7.34680E-22
2.38630E-03 6.84522E-22
2.47222E-03 6.38597E-22
2.55965E-03 5.96482E-22
2.64859E-03 5.57802E-22
2.73905E-03 5.22226E-22
2.83103E-03 4.89457E-22
2.92452E-03 4.59233E-22
3.01952E-03 4.31321E-22
3.11604E-03 4.05510E-22
3.21407E-03 3.81615E-22
3.31362E-03 3.59452E-22
3.41468E-03 3.38882E-22
3.51725E-03 3.19769E-22
3.62133E-03 3.01991E-22
3.72692E-03 2.85437E-22
3.83403E-03 2.70006E-22
3.94265E-03 2.55608E-22
4.05278E-03 2.42161E-22
4.16442E-03 2.29591E-22
4.27757E-03 2.17828E-22
4.39223E-03 2.06811E-22
4.50840E-03 1.96484E-22
4.62608E-03 1.86796E-22
4.74527E-03 1.77699E-22
4.86597E-03 1.69150E-22
4.98817E-03 1.61110E-22
5.11188E-03 1.53543E-22
5.23711E-03 1.46416E-22
5.36383E-03 1.39699E-22
5.49207E-03 1.33362E-22
5.62181E-03 1.27381E-22
5.75306E-03 1.21732E-22
5.88581E-03 1.16392E-22
6.02007E-03 1.11342E-22
6.15583E-03 1.06562E-22
6.29310E-03 1.02036E-22
6.43187E-03 9.77480E-23
6.57214E-03 9.36821E-23
6.71392E-03 8.98249E-23
6.85720E-03 8.61638E-23
7.00198E-03 8.26868E-23
7.14827E-03 7.93829E-23
7.29605E-03 7.62417E-23
7.44534E-03 7.32538E-23
7.59612E-03 7.04102E-23
7.97965E-03 6.38793E-23
8.37255E-03 5.80842E-23
8.77480E-03 5.29275E-23
9.18641E-03 4.83262E-23
9.60736E-03 4.42100E-23
1.00376E-02 4.05185E-23
1.04773E-02 3.72002E-23
1.09262E-02 3.42107E-23
1.13844E-02 3.15114E-23
1.18520E-02 2.90693E-23
1.23288E-02 2.68555E-23
1.28150E-02 2.48448E-23
1.33104E-02 2.30153E-23
1.38150E-02 2.13477E-23
1.43290E-02 1.98252E-23
1.48521E-02 1.84330E-23
1.53845E-02 1.71578E-23
1.59262E-02 1.59881E-23
1.64770E-02 1.49138E-23
1.70371E-02 1.39255E-23
1.76063E-02 1.30153E-23
1.81848E-02 1.21758E-23
1.87724E-02 1.14007E-23
1.93692E-02 1.06841E-23
1.99751E-02 1.00208E-23
2.05901E-02 9.40627E-24
2.12143E-02 8.83622E-24
2.18476E-02 8.30690E-24
2.24900E-02 7.81491E-24
2.31415E-02 7.35717E-24
2.38021E-02 6.93089E-24
2.44717E-02 6.53354E-24
2.51504E-02 6.16284E-24
2.58382E-02 5.81670E-24
2.65349E-02 5.49323E-24
2.72407E-02 5.19069E-24
2.79555E-02 4.90751E-24
2.86793E-02 4.64225E-24
2.94120E-02 4.39359E-24
3.01537E-02 4.16033E-24
3.09043E-02 3.94137E-24
3.16639E-02 3.73568E-24
3.24324E-02 3.54233E-24
3.32098E-02 3.36048E-24
3.39961E-02 3.18932E-24
3.47912E-02 3.02814E-24
3.55952E-02 2.87627E-24
3.64081E-02 2.73307E-24
3.72297E-02 2.59800E-24
3.80602E-02 2.47050E-24
3.88995E-02 2.35011E-24
3.97476E-02 2.23636E-24
4.06044E-02 2.12883E-24
4.14700E-02 2.02714E-24
4.23443E-02 1.93092E-24
4.32273E-02 1.83983E-24
4.41190E-02 1.75357E-24
4.50194E-02 1.67184E-24
4.59284E-02 1.59438E-24
4.68461E-02 1.52092E-24
4.87074E-02 1.38510E-24
5.06030E-02 1.26270E-24
5.25328E-02 1.15221E-24
5.44967E-02 1.05235E-24
5.64946E-02 9.61969E-25
5.85262E-02 8.80063E-25
6.05914E-02 8.05750E-25
6.26901E-02 7.38247E-25
6.48222E-02 6.76865E-25
6.69873E-02 6.20990E-25
6.91854E-02 5.70077E-25
7.14163E-02 5.23644E-25
7.36799E-02 4.81256E-25
7.59760E-02 4.42530E-25
7.83043E-02 4.07120E-25
8.06647E-02 3.74717E-25
8.30571E-02 3.45043E-25
8.54812E-02 3.17851E-25
8.79369E-02 2.92916E-25
9.04240E-02 2.70036E-25
9.29422E-02 2.49029E-25
9.54915E-02 2.29731E-25
9.80716E-02 2.11993E-25
1.00682E-01 1.95680E-25
1.03323E-01 1.80672E-25
1.05995E-01 1.66857E-25
1.08696E-01 1.54134E-25
1.11427E-01 1.42413E-25
1.14188E-01 1.31611E-25
1.16978E-01 1.21651E-25
1.19797E-01 1.12465E-25
1.22645E-01 1.03990E-25
1.25522E-01 9.61688E-26
1.28428E-01 8.89485E-26
1.31361E-01 8.22812E-26
1.34323E-01 7.61231E-26
1.37313E-01 7.04338E-26
1.40330E-01 6.51766E-26
1.43375E-01 6.03177E-26
1.46447E-01 5.58260E-26
1.49545E-01 5.16731E-26
1.52671E-01 4.78328E-26
1.55823E-01 4.42810E-26
1.59001E-01 4.09957E-26
1.62205E-01 3.79565E-26
1.65435E-01 3.51446E-26
1.68690E-01 3.25428E-26
1.71970E-01 3.01352E-26
1.75276E-01 2.79072E-26
1.78606E-01 2.58452E-26
1.81961E-01 2.39367E-26
1.85340E-01 2.21703E-26
1.88743E-01 2.05353E-26
1.92169E-01 1.90219E-26
1.95619E-01 1.76210E-26
1.99092E-01 1.63243E-26
2.02589E-01 1.51241E-26
2.06107E-01 1.40130E-26
2.09649E-01 1.29846E-26
2.13212E-01 1.20327E-26
2.16797E-01 1.11516E-26
2.20404E-01 1.03362E-26
2.24032E-01 9.58140E-27
2.27680E-01 8.88288E-27
2.31350E-01 8.23643E-27
2.35040E-01 7.63819E-27
2.38751E-01 7.08460E-27
2.42481E-01 6.57235E-27
2.46231E-01 6.09838E-27
2.50000E-01 5.65984E-27
2.53788E-01 5.25411E-27
2.57595E-01 4.87875E-27
2.61421E-01 4.53150E-27
2.65264E-01 4.21028E-27
2.69126E-01 3.91313E-27
2.73005E-01 3.63827E-27
2.76901E-01 3.38404E-27
2.80814E-01 3.14888E-27
2.84744E-01 2.93137E-27
2.88691E-01 2.73019E-27
2.92653E-01 2.54411E-27
2.96632E-01 2.37198E-27
3.00625E-01 2.21277E-27
3.04634E-01 2.06549E-27
3.08658E-01 1.92923E-27
3.12697E-01 1.80317E-27
3.16749E-01 1.68653E-27
3.20816E-01 1.57859E-27
3.24896E-01 1.47869E-27
3.28990E-01 1.38620E-27
3.33097E-01 1.30057E-27
3.37216E-01 1.22127E-27
3.41348E-01 1.14781E-27
3.45492E-01 1.07974E-27
3.49647E-01 1.01664E-27
3.53814E-01 9.58129E-28
3.57992E-01 9.03852E-28
3.62181E-01 8.53478E-28
3.66381E-01 8.06706E-28
3.70590E-01 7.63253E-28
3.74810E-01 7.22861E-28
3.79039E-01 6.85291E-28
3.83277E-01 6.50322E-28
3.87524E-01 6.17751E-28
3.91780E-01 5.87389E-28
3.96044E-01 5.59065E-28
4.00316E-01 5.32617E-28
4.04596E-01 5.07900E-28
4.08882E-01 4.84778E-28
4.13176E-01 4.63126E-28
4.17476E-01 4.42830E-28
4.21783E-01 4.23783E-28
4.26095E-01 4.05890E-28
4.30413E-01 3.89059E-28
4.34737E-01 3.73210E-28
4.39065E-01 3.58267E-28
4.43398E-01 3.44161E-28
4.47736E-01 3.30827E-28
4.52077E-01 3.18208E-28
4.56422E-01 3.06251E-28
4.60770E-01 2.94905E-28
4.65122E-01 2.84126E-28
4.69476E-01 2.73872E-28
4.73832E-01 2.64106E-28
4.78190E-01 2.54793E-28
4.82550E-01 2.45901E-28
4.86912E-01 2.37401E-28
4.91274E-01 2.29266E-28
4.95637E-01 2.21473E-28
5.00000E-01 2.13998E-28
5.04363E-01 2.06821E-28
5.08726E-01 1.99924E-28
5.13088E-01 1.93290E-28
5.17450E-01 1.86902E-28
5.21810E-01 1.80746E-28
5.26168E-01 1.74810E-28
5.30524E-01 1.69081E-28
5.34878E-01 1.63549E-28
5.39230E-01 1.58202E-28
5.43578E-01 1.53032E-28
5.47923E-01 1.48031E-28
5.52264E-01 1.43190E-28
5.56602E-01 1.38502E-28
5.60935E-01 1.33961E-28
5.65263E-01 1.29561E-28
5.69587E-01 1.25295E-28
5.73905E-01 1.21160E-28
5.78217E-01 1.17149E-28
5.82524E-01 1.13258E-28
5.86824E-01 1.09483E-28
5.91118E-01 1.05821E-28
5.95404E-01 1.02267E-28
5.99684E-01 9.88183E-29
6.03956E-01 9.54715E-29
6.08220E-01 9.22236E-29
6.12476E-01 8.90718E-29
6.16723E-01 8.60132E-29
6.20961E-01 8.30454E-29
6.25190E-01 8.01658E-29
6.29410E-01 7.73722E-29
6.33619E-01 7.46622E-29
6.37819E-01 7.20337E-29
6.42008E-01 6.94847E-29
6.46186E-01 6.70130E-29
6.50353E-01 6.46169E-29
6.54508E-01 6.22943E-29
6.58652E-01 6.00435E-29
6.62784E-01 5.78627E-29
6.66903E-01 5.57501E-29
6.71010E-01 5.37041E-29
6.75104E-01 5.17229E-29
6.79184E-01 4.98051E-29
6.83251E-01 4.79489E-29
6.87303E-01 4.61528E-29
6.91342E-01 4.44154E-29
6.95366E-01 4.27350E-29
6.99375E-01 4.11103E-29
7.03368E-01 3.95398E-29
7.07347E-01 3.80220E-29
7.11309E-01 3.65556E-29
7.15256E-01 3.51391E-29
7.19186E-01 3.37713E-29
7.23099E-01 3.24508E-29
7.26995E-01 3.11763E-29
7.30874E-01 2.99465E-29
7.34736E-01 2.87602E-29
7.38579E-01 2.76161E-29
7.42405E-01 2.65129E-29
7.46212E-01 2.54495E-29
7.50000E-01 2.44248E-29
7.53769E-01 2.34375E-29
7.57519E-01 2.24866E-29
7.61249E-01 2.15708E-29
7.64960E-01 2.06892E-29
7.68650E-01 1.98407E-29
7.72320E-01 1.90242E-29
7.75968E-01 1.82386E-29
7.79596E-01 1.74831E-29
7.83203E-01 1.67566E-29
7.86788E-01 1.60582E-29
7.90351E-01 1.53869E-29
7.93893E-01 1.47418E-29
7.97411E-01 1.41221E-29
8.00908E-01 1.35268E-29
8.04381E-01 1.29551E-29
8.07831E-01 1.24062E-29
8.11257E-01 1.18793E-29
8.14660E-01 1.13736E-29
8.18039E-01 1.08884E-29
8.21394E-01 1.04228E-29
8.24724E-01 9.97627E-30
8.28030E-01 9.54798E-30
8.31310E-01 9.13730E-30
8.34565E-01 8.74356E-30
8.37795E-01 8.36612E-30
8.40999E-01 8.00436E-30
8.44177E-01 7.65767E-30
8.47329E-01 7.32548E-30
8.50455E-01 7.00722E-30
8.53553E-01 6.70234E-30
8.56625E-01 6.41032E-30
8.59670E-01 6.13063E-30
8.62687E-01 5.86279E-30
8.65677E-01 5.60631E-30
8.68639E-01 5.36074E-30
8.71572E-01 5.12562E-30
8.74478E-01 4.90054E-30
8.77355E-01 4.68506E-30
8.80203E-01 4.47880E-30
8.83022E-01 4.28137E-30
8.85812E-01 4.09238E-30
8.88573E-01 3.91150E-30
8.91304E-01 3.73837E-30
8.94005E-01 3.57265E-30
8.96677E-01 3.41404E-30
8.99318E-01 3.26222E-30
9.01928E-01 3.11691E-30
9.04508E-01 2.97781E-30
9.07058E-01 2.84466E-30
9.09576E-01 2.71719E-30
9.12063E-01 2.59516E-30
9.14519E-01 2.47833E-30
9.16943E-01 2.36646E-30
9.19335E-01 2.25934E-30
9.21696E-01 2.15676E-30
9.24024E-01 2.05851E-30
9.26320E-01 1.96440E-30
9.28584E-01 1.87425E-30
9.30815E-01 1.78789E-30
9.33013E-01 1.70513E-30
9.35178E-01 1.62583E-30
9.37310E-01 1.54983E-30
9.39409E-01 1.47698E-30
9.41474E-01 1.40715E-30
9.43505E-01 1.34019E-30
9.45503E-01 1.27599E-30
9.47467E-01 1.21442E-30
9.49397E-01 1.15536E-30
9.51293E-01 1.09871E-30
9.53154E-01 1.04437E-30
9.54981E-01 9.92231E-31
9.56773E-01 9.42203E-31
9.58530E-01 8.94195E-31
9.60252E-01 8.48124E-31
9.61940E-01 8.03909E-31
9.63592E-01 7.61474E-31
9.65209E-01 7.20746E-31
9.66790E-01 6.81657E-31
9.68336E-01 6.44142E-31
9.69846E-01 6.08140E-31
9.71321E-01 5.73592E-31
9.72759E-01 5.40445E-31
9.74162E-01 5.08645E-31
9.75528E-01 4.78145E-31
9.76858E-01 4.48898E-31
9.78152E-01 4.20860E-31
9.79410E-01 3.93990E-31
9.80631E-01 3.68251E-31
9.81815E-01 3.43604E-31
9.82963E-01 3.20017E-31
9.84074E-01 2.97457E-31
9.85148E-01 2.75894E-31
9.86185E-01 2.55300E-31
9.87185E-01 2.35647E-31
9.88148E-01 2.16912E-31
9.89074E-01 1.99070E-31
9.89962E-01 1.82101E-31
9.90814E-01 1.65983E-31
9.91627E-01 1.50699E-31
9.92404E-01 1.36229E-31
9.93143E-01 1.22558E-31
9.93844E-01 1.09671E-31
9.94508E-01 9.75531E-32
9.95134E-01 8.61916E-32
9.95722E-01 7.55745E-32
9.96273E-01 6.56906E-32
9.96786E-01 5.65297E-32
9.97261E-01 4.80827E-32
9.97698E-01 4.03411E-32
9.98097E-01 3.32971E-32
9.98459E-01 2.69440E-32
9.98782E-01 2.12756E-32
9.99067E-01 1.62864E-32
9.99315E-01 1.19719E-32
9.99524E-01 8.32789E-33
9.99695E-01 5.35100E-33
9.99829E-01 3.03848E-33
9.99924E-01 1.38819E-33
9.99981E-01 3.98629E-34
1.00000E+00 6.88721E-35
