 #
 # Subroutine ELSEPA. Elastic scattering of electrons and positrons
 #                    by neutral atoms and positive ions
 #
 # Projectile: electron
 # Kinetic energy = 1.50000E+08 eV = 5.51240E+06 a.u.
 #
 # WARNING: High-energy factorization with free-atom DF screening.
 #          Absorption, polarization and exchange corrections are
 #          switched off.
 #          Phase shifts are calculated for the bare nucleus.
 #          Scattering amplitudes are not evaluated.
 #
 # Element: Na,  Z =  11,  atomic weight = 2.29898E+01 g/mol
 #
 # Nuclear model: Fermi distribution
 #                Average radius = 3.04249E-13 cm
 #                Skin thickness = 5.46000E-14 cm
 #
 # Number of electrons = 11
 #
 # Total elastic cross section = 4.67116E-19 cm**2 = 1.66810E-02 a0**2
 # 1st transport cross section = 1.16477E-26 cm**2 = 4.15947E-10 a0**2
 # 2nd transport cross section = 3.47130E-26 cm**2 = 1.23962E-09 a0**2
 #
 #
 # Differential cross section:                       MU=(1-COS(THETA))/2
 #
 #  THETA        MU          DCS          DCS        Sherman      error
 #  (deg)                 (cm**2/sr)   (a0**2/sr)    function
 #----------------------------------------------------------------------
0.00000E+00 1.97840E-10
7.61557E-13 1.95119E-10
1.18994E-12 1.93613E-10
1.71346E-12 1.91796E-10
2.33225E-12 1.89681E-10
3.04617E-12 1.87283E-10
3.85530E-12 1.84618E-10
4.75964E-12 1.81706E-10
5.75917E-12 1.78565E-10
6.85391E-12 1.75216E-10
8.04379E-12 1.71680E-10
9.32893E-12 1.67978E-10
1.07092E-11 1.64133E-10
1.21847E-11 1.60166E-10
1.37554E-11 1.56099E-10
1.54213E-11 1.51953E-10
1.71823E-11 1.47748E-10
1.90386E-11 1.43503E-10
2.09900E-11 1.39237E-10
2.30367E-11 1.34967E-10
2.51785E-11 1.30709E-10
2.74156E-11 1.26478E-10
2.97478E-11 1.22288E-10
3.21752E-11 1.18151E-10
3.46979E-11 1.14078E-10
3.73157E-11 1.10079E-10
4.00286E-11 1.06163E-10
4.28368E-11 1.02336E-10
4.57402E-11 9.86055E-11
4.87388E-11 9.49759E-11
5.18325E-11 9.14514E-11
5.50215E-11 8.80350E-11
5.83057E-11 8.47307E-11
6.16850E-11 8.15383E-11
6.51595E-11 7.84582E-11
6.87293E-11 7.55222E-11
7.23943E-11 7.28059E-11
7.61544E-11 7.01584E-11
1.18991E-10 4.82057E-11
1.71347E-10 3.42667E-11
2.33223E-10 2.54596E-11
3.04617E-10 1.97295E-11
3.85531E-10 1.58267E-11
4.75965E-10 1.30317E-11
5.75917E-10 1.09346E-11
6.85389E-10 9.29809E-12
8.04380E-10 7.98091E-12
9.32891E-10 6.89598E-12
1.07092E-09 5.98724E-12
1.21847E-09 5.21697E-12
1.37554E-09 4.55855E-12
1.54213E-09 3.99081E-12
1.71823E-09 3.50083E-12
1.90386E-09 3.07673E-12
2.09900E-09 2.70887E-12
2.30367E-09 2.38920E-12
2.51785E-09 2.11092E-12
2.74156E-09 1.86832E-12
2.97478E-09 1.65651E-12
3.21752E-09 1.47133E-12
3.46978E-09 1.30923E-12
3.73156E-09 1.16713E-12
4.00286E-09 1.04239E-12
4.28368E-09 9.32739E-13
4.57402E-09 8.36202E-13
4.87388E-09 7.51079E-13
5.18326E-09 6.75900E-13
5.50215E-09 6.09395E-13
5.83057E-09 5.50435E-13
6.16850E-09 4.98107E-13
6.51596E-09 4.51595E-13
6.87293E-09 4.10085E-13
7.23942E-09 3.72814E-13
7.61544E-09 3.39817E-13
1.18991E-08 1.47649E-13
1.71347E-08 7.37817E-14
2.33223E-08 4.10295E-14
3.04617E-08 2.47266E-14
3.85531E-08 1.58371E-14
4.75965E-08 1.06330E-14
5.75917E-08 7.41192E-15
6.85389E-08 5.32594E-15
8.04380E-08 3.92520E-15
9.32891E-08 2.95574E-15
1.07092E-07 2.26707E-15
1.21847E-07 1.76717E-15
1.37554E-07 1.39727E-15
1.54213E-07 1.11882E-15
1.71823E-07 9.06127E-16
1.90386E-07 7.41440E-16
2.09900E-07 6.12351E-16
2.30367E-07 5.10062E-16
2.51785E-07 4.28181E-16
2.74156E-07 3.62026E-16
2.97478E-07 3.08124E-16
3.21752E-07 2.63856E-16
3.46978E-07 2.27235E-16
3.73156E-07 1.96735E-16
4.00286E-07 1.71170E-16
4.28368E-07 1.49615E-16
4.57402E-07 1.31342E-16
4.87388E-07 1.15768E-16
5.18325E-07 1.02431E-16
5.50215E-07 9.09576E-17
5.83057E-07 8.10433E-17
6.16850E-07 7.24416E-17
6.51596E-07 6.49498E-17
6.87293E-07 5.84003E-17
7.23942E-07 5.26551E-17
7.61543E-07 4.75984E-17
1.18991E-06 1.95327E-17
1.71347E-06 9.42718E-18
2.33223E-06 5.09061E-18
3.04617E-06 2.98473E-18
3.85531E-06 1.86363E-18
4.75964E-06 1.22281E-18
5.75916E-06 8.35251E-19
6.85388E-06 5.89780E-19
8.04378E-06 4.28221E-19
9.32888E-06 3.18387E-19
1.07092E-05 2.41617E-19
1.21846E-05 1.86654E-19
1.37553E-05 1.46470E-19
1.54212E-05 1.16541E-19
1.71822E-05 9.38812E-20
1.90385E-05 7.64704E-20
2.09899E-05 6.29168E-20
2.30365E-05 5.22371E-20
2.51783E-05 4.37301E-20
2.74153E-05 3.68863E-20
2.97475E-05 3.13306E-20
3.21749E-05 2.67828E-20
3.46974E-05 2.30312E-20
3.73152E-05 1.99143E-20
4.00281E-05 1.73074E-20
4.28362E-05 1.51135E-20
4.57395E-05 1.32565E-20
4.87380E-05 1.16761E-20
5.18317E-05 1.03244E-20
5.50205E-05 9.16275E-21
5.83045E-05 8.16001E-21
6.16838E-05 7.29080E-21
6.51582E-05 6.53434E-21
6.87277E-05 5.87352E-21
7.23925E-05 5.29418E-21
7.61524E-05 4.78207E-21
9.21439E-05 3.26652E-21
1.09658E-04 2.30657E-21
1.28695E-04 1.67475E-21
1.49255E-04 1.24519E-21
1.71338E-04 9.44940E-22
1.94942E-04 7.29966E-22
2.20070E-04 5.72791E-22
2.46720E-04 4.55727E-22
2.74892E-04 3.67094E-22
3.04586E-04 2.98995E-22
3.35803E-04 2.45976E-22
3.68542E-04 2.04202E-22
4.02802E-04 1.70928E-22
4.38585E-04 1.44161E-22
4.75889E-04 1.22433E-22
5.14715E-04 1.04646E-22
5.55063E-04 8.99730E-23
5.96931E-04 7.77824E-23
6.40321E-04 6.75869E-23
6.85233E-04 5.90071E-23
7.31665E-04 5.17454E-23
7.79618E-04 4.55661E-23
8.29092E-04 4.02813E-23
8.80086E-04 3.57401E-23
9.32601E-04 3.18204E-23
9.86636E-04 2.84229E-23
1.04219E-03 2.54663E-23
1.09927E-03 2.28838E-23
1.15786E-03 2.06199E-23
1.21797E-03 1.86287E-23
1.27961E-03 1.68717E-23
1.34276E-03 1.53167E-23
1.40743E-03 1.39363E-23
1.47362E-03 1.27076E-23
1.54133E-03 1.16111E-23
1.61056E-03 1.06301E-23
1.68131E-03 9.75020E-24
1.75357E-03 8.95925E-24
1.82735E-03 8.24665E-24
1.90265E-03 7.60330E-24
1.97947E-03 7.02127E-24
2.05780E-03 6.49369E-24
2.13765E-03 6.01456E-24
2.21902E-03 5.57865E-24
2.30190E-03 5.18137E-24
2.38630E-03 4.81869E-24
2.47222E-03 4.48705E-24
2.55965E-03 4.18333E-24
2.64859E-03 3.90476E-24
2.73905E-03 3.64888E-24
2.83103E-03 3.41352E-24
2.92452E-03 3.19672E-24
3.01952E-03 2.99678E-24
3.11604E-03 2.81214E-24
3.21407E-03 2.64141E-24
3.31362E-03 2.48337E-24
3.41468E-03 2.33690E-24
3.51725E-03 2.20100E-24
3.62133E-03 2.07477E-24
3.72692E-03 1.95740E-24
3.83403E-03 1.84815E-24
3.94265E-03 1.74636E-24
4.05278E-03 1.65142E-24
4.16442E-03 1.56281E-24
4.27757E-03 1.48000E-24
4.39223E-03 1.40257E-24
4.50840E-03 1.33008E-24
4.62608E-03 1.26218E-24
4.74527E-03 1.19852E-24
4.86597E-03 1.13878E-24
4.98817E-03 1.08269E-24
5.11188E-03 1.02997E-24
5.23711E-03 9.80382E-25
5.36383E-03 9.33716E-25
5.49207E-03 8.89764E-25
5.62181E-03 8.48339E-25
5.75306E-03 8.09269E-25
5.88581E-03 7.72397E-25
6.02007E-03 7.37576E-25
6.15583E-03 7.04671E-25
6.29310E-03 6.73558E-25
6.43187E-03 6.44121E-25
6.57214E-03 6.16254E-25
6.71392E-03 5.89857E-25
6.85720E-03 5.64839E-25
7.00198E-03 5.41115E-25
7.14827E-03 5.18606E-25
7.29605E-03 4.97237E-25
7.44534E-03 4.76942E-25
7.59612E-03 4.57655E-25
7.97965E-03 4.13475E-25
8.37255E-03 3.74419E-25
8.77480E-03 3.39794E-25
9.18641E-03 3.09014E-25
9.60736E-03 2.81581E-25
1.00376E-02 2.57069E-25
1.04773E-02 2.35116E-25
1.09262E-02 2.15410E-25
1.13844E-02 1.97682E-25
1.18520E-02 1.81701E-25
1.23288E-02 1.67266E-25
1.28150E-02 1.54202E-25
1.33104E-02 1.42357E-25
1.38150E-02 1.31599E-25
1.43290E-02 1.21811E-25
1.48521E-02 1.12890E-25
1.53845E-02 1.04749E-25
1.59262E-02 9.73059E-26
1.64770E-02 9.04922E-26
1.70371E-02 8.42456E-26
1.76063E-02 7.85110E-26
1.81848E-02 7.32396E-26
1.87724E-02 6.83877E-26
1.93692E-02 6.39165E-26
1.99751E-02 5.97911E-26
2.05901E-02 5.59805E-26
2.12143E-02 5.24567E-26
2.18476E-02 4.91946E-26
2.24900E-02 4.61716E-26
2.31415E-02 4.33673E-26
2.38021E-02 4.07633E-26
2.44717E-02 3.83430E-26
2.51504E-02 3.60913E-26
2.58382E-02 3.39947E-26
2.65349E-02 3.20407E-26
2.72407E-02 3.02181E-26
2.79555E-02 2.85167E-26
2.86793E-02 2.69271E-26
2.94120E-02 2.54407E-26
3.01537E-02 2.40500E-26
3.09043E-02 2.27476E-26
3.16639E-02 2.15272E-26
3.24324E-02 2.03828E-26
3.32098E-02 1.93089E-26
3.39961E-02 1.83005E-26
3.47912E-02 1.73530E-26
3.55952E-02 1.64622E-26
3.64081E-02 1.56241E-26
3.72297E-02 1.48352E-26
3.80602E-02 1.40921E-26
3.88995E-02 1.33918E-26
3.97476E-02 1.27314E-26
4.06044E-02 1.21084E-26
4.14700E-02 1.15203E-26
4.23443E-02 1.09648E-26
4.32273E-02 1.04400E-26
4.41190E-02 9.94376E-27
4.50194E-02 9.47443E-27
4.59284E-02 9.03031E-27
4.68461E-02 8.60985E-27
4.87074E-02 7.83424E-27
5.06030E-02 7.13726E-27
5.25328E-02 6.50988E-27
5.44967E-02 5.94427E-27
5.64946E-02 5.43357E-27
5.85262E-02 4.97178E-27
6.05914E-02 4.55363E-27
6.26901E-02 4.17450E-27
6.48222E-02 3.83031E-27
6.69873E-02 3.51746E-27
6.91854E-02 3.23276E-27
7.14163E-02 2.97339E-27
7.36799E-02 2.73684E-27
7.59760E-02 2.52087E-27
7.83043E-02 2.32351E-27
8.06647E-02 2.14297E-27
8.30571E-02 1.97767E-27
8.54812E-02 1.82620E-27
8.79369E-02 1.68728E-27
9.04240E-02 1.55976E-27
9.29422E-02 1.44261E-27
9.54915E-02 1.33493E-27
9.80716E-02 1.23586E-27
1.00682E-01 1.14465E-27
1.03323E-01 1.06063E-27
1.05995E-01 9.83184E-28
1.08696E-01 9.11747E-28
1.11427E-01 8.45817E-28
1.14188E-01 7.84935E-28
1.16978E-01 7.28684E-28
1.19797E-01 6.76683E-28
1.22645E-01 6.28588E-28
1.25522E-01 5.84084E-28
1.28428E-01 5.42884E-28
1.31361E-01 5.04725E-28
1.34323E-01 4.69367E-28
1.37313E-01 4.36592E-28
1.40330E-01 4.06199E-28
1.43375E-01 3.78004E-28
1.46447E-01 3.51838E-28
1.49545E-01 3.27548E-28
1.52671E-01 3.04990E-28
1.55823E-01 2.84036E-28
1.59001E-01 2.64565E-28
1.62205E-01 2.46466E-28
1.65435E-01 2.29638E-28
1.68690E-01 2.13989E-28
1.71970E-01 1.99431E-28
1.75276E-01 1.85885E-28
1.78606E-01 1.73278E-28
1.81961E-01 1.61542E-28
1.85340E-01 1.50614E-28
1.88743E-01 1.40438E-28
1.92169E-01 1.30960E-28
1.95619E-01 1.22129E-28
1.99092E-01 1.13901E-28
2.02589E-01 1.06233E-28
2.06107E-01 9.90854E-29
2.09649E-01 9.24227E-29
2.13212E-01 8.62109E-29
2.16797E-01 8.04186E-29
2.20404E-01 7.50170E-29
2.24032E-01 6.99791E-29
2.27680E-01 6.52800E-29
2.31350E-01 6.08964E-29
2.35040E-01 5.68069E-29
2.38751E-01 5.29914E-29
2.42481E-01 4.94312E-29
2.46231E-01 4.61092E-29
2.50000E-01 4.30091E-29
2.53788E-01 4.01160E-29
2.57595E-01 3.74160E-29
2.61421E-01 3.48960E-29
2.65264E-01 3.25441E-29
2.69126E-01 3.03489E-29
2.73005E-01 2.82999E-29
2.76901E-01 2.63874E-29
2.80814E-01 2.46024E-29
2.84744E-01 2.29362E-29
2.88691E-01 2.13810E-29
2.92653E-01 1.99294E-29
2.96632E-01 1.85746E-29
3.00625E-01 1.73101E-29
3.04634E-01 1.61299E-29
3.08658E-01 1.50284E-29
3.12697E-01 1.40005E-29
3.16749E-01 1.30413E-29
3.20816E-01 1.21462E-29
3.24896E-01 1.13110E-29
3.28990E-01 1.05317E-29
3.33097E-01 9.80459E-30
3.37216E-01 9.12631E-30
3.41348E-01 8.49359E-30
3.45492E-01 7.90342E-30
3.49647E-01 7.35298E-30
3.53814E-01 6.83966E-30
3.57992E-01 6.36099E-30
3.62181E-01 5.91469E-30
3.66381E-01 5.49862E-30
3.70590E-01 5.11077E-30
3.74810E-01 4.74927E-30
3.79039E-01 4.41237E-30
3.83277E-01 4.09846E-30
3.87524E-01 3.80599E-30
3.91780E-01 3.53354E-30
3.96044E-01 3.27979E-30
4.00316E-01 3.04348E-30
4.04596E-01 2.82345E-30
4.08882E-01 2.61863E-30
4.13176E-01 2.42798E-30
4.17476E-01 2.25057E-30
4.21783E-01 2.08550E-30
4.26095E-01 1.93195E-30
4.30413E-01 1.78914E-30
4.34737E-01 1.65636E-30
4.39065E-01 1.53291E-30
4.43398E-01 1.41818E-30
4.47736E-01 1.31157E-30
4.52077E-01 1.21254E-30
4.56422E-01 1.12056E-30
4.60770E-01 1.03515E-30
4.65122E-01 9.55879E-31
4.69476E-01 8.82312E-31
4.73832E-01 8.14062E-31
4.78190E-01 7.50764E-31
4.82550E-01 6.92076E-31
4.86912E-01 6.37680E-31
4.91274E-01 5.87279E-31
4.95637E-01 5.40594E-31
5.00000E-01 4.97368E-31
5.04363E-01 4.57358E-31
5.08726E-01 4.20339E-31
5.13088E-01 3.86100E-31
5.17450E-01 3.54447E-31
5.21810E-01 3.25194E-31
5.26168E-01 2.98173E-31
5.30524E-01 2.73224E-31
5.34878E-01 2.50199E-31
5.39230E-01 2.28959E-31
5.43578E-01 2.09376E-31
5.47923E-01 1.91331E-31
5.52264E-01 1.74710E-31
5.56602E-01 1.59411E-31
5.60935E-01 1.45336E-31
5.65263E-01 1.32396E-31
5.69587E-01 1.20506E-31
5.73905E-01 1.09588E-31
5.78217E-01 9.95700E-32
5.82524E-01 9.03838E-32
5.86824E-01 8.19668E-32
5.91118E-01 7.42607E-32
5.95404E-01 6.72111E-32
5.99684E-01 6.07676E-32
6.03956E-01 5.48834E-32
6.08220E-01 4.95150E-32
6.12476E-01 4.46220E-32
6.16723E-01 4.01671E-32
6.20961E-01 3.61153E-32
6.25190E-01 3.24346E-32
6.29410E-01 2.90950E-32
6.33619E-01 2.60689E-32
6.37819E-01 2.33306E-32
6.42008E-01 2.08564E-32
6.46186E-01 1.86243E-32
6.50353E-01 1.66140E-32
6.54508E-01 1.48066E-32
6.58652E-01 1.31849E-32
6.62784E-01 1.17327E-32
6.66903E-01 1.04353E-32
6.71010E-01 9.27890E-33
6.75104E-01 8.25094E-33
6.79184E-01 7.33978E-33
6.83251E-01 6.53469E-33
6.87303E-01 5.82582E-33
6.91342E-01 5.20407E-33
6.95366E-01 4.66109E-33
6.99375E-01 4.18922E-33
7.03368E-01 3.78140E-33
7.07347E-01 3.43117E-33
7.11309E-01 3.13260E-33
7.15256E-01 2.88028E-33
7.19186E-01 2.66923E-33
7.23099E-01 2.49490E-33
7.26995E-01 2.35318E-33
7.30874E-01 2.24024E-33
7.34736E-01 2.15268E-33
7.38579E-01 2.08734E-33
7.42405E-01 2.04138E-33
7.46212E-01 2.01222E-33
7.50000E-01 1.99751E-33
7.53769E-01 1.99514E-33
7.57519E-01 2.00320E-33
7.61249E-01 2.01996E-33
7.64960E-01 2.04388E-33
7.68650E-01 2.07356E-33
7.72320E-01 2.10776E-33
7.75968E-01 2.14539E-33
7.79596E-01 2.18543E-33
7.83203E-01 2.22705E-33
7.86788E-01 2.26946E-33
7.90351E-01 2.31195E-33
7.93893E-01 2.35398E-33
7.97411E-01 2.39502E-33
8.00908E-01 2.43462E-33
8.04381E-01 2.47240E-33
8.07831E-01 2.50803E-33
8.11257E-01 2.54127E-33
8.14660E-01 2.57187E-33
8.18039E-01 2.59966E-33
8.21394E-01 2.62451E-33
8.24724E-01 2.64630E-33
8.28030E-01 2.66496E-33
8.31310E-01 2.68045E-33
8.34565E-01 2.69274E-33
8.37795E-01 2.70183E-33
8.40999E-01 2.70774E-33
8.44177E-01 2.71050E-33
8.47329E-01 2.71016E-33
8.50455E-01 2.70679E-33
8.53553E-01 2.70044E-33
8.56625E-01 2.69123E-33
8.59670E-01 2.67923E-33
8.62687E-01 2.66452E-33
8.65677E-01 2.64723E-33
8.68639E-01 2.62744E-33
8.71572E-01 2.60529E-33
8.74478E-01 2.58086E-33
8.77355E-01 2.55430E-33
8.80203E-01 2.52569E-33
8.83022E-01 2.49517E-33
8.85812E-01 2.46284E-33
8.88573E-01 2.42881E-33
8.91304E-01 2.39322E-33
8.94005E-01 2.35615E-33
8.96677E-01 2.31774E-33
8.99318E-01 2.27808E-33
9.01928E-01 2.23726E-33
9.04508E-01 2.19542E-33
9.07058E-01 2.15264E-33
9.09576E-01 2.10901E-33
9.12063E-01 2.06464E-33
9.14519E-01 2.01963E-33
9.16943E-01 1.97405E-33
9.19335E-01 1.92799E-33
9.21696E-01 1.88153E-33
9.24024E-01 1.83476E-33
9.26320E-01 1.78774E-33
9.28584E-01 1.74056E-33
9.30815E-01 1.69328E-33
9.33013E-01 1.64597E-33
9.35178E-01 1.59870E-33
9.37310E-01 1.55152E-33
9.39409E-01 1.50449E-33
9.41474E-01 1.45768E-33
9.43505E-01 1.41112E-33
9.45503E-01 1.36487E-33
9.47467E-01 1.31899E-33
9.49397E-01 1.27350E-33
9.51293E-01 1.22846E-33
9.53154E-01 1.18390E-33
9.54981E-01 1.13988E-33
9.56773E-01 1.09640E-33
9.58530E-01 1.05351E-33
9.60252E-01 1.01126E-33
9.61940E-01 9.69644E-34
9.63592E-01 9.28715E-34
9.65209E-01 8.88487E-34
9.66790E-01 8.48991E-34
9.68336E-01 8.10245E-34
9.69846E-01 7.72267E-34
9.71321E-01 7.35079E-34
9.72759E-01 6.98706E-34
9.74162E-01 6.63149E-34
9.75528E-01 6.28436E-34
9.76858E-01 5.94573E-34
9.78152E-01 5.61581E-34
9.79410E-01 5.29469E-34
9.80631E-01 4.98244E-34
9.81815E-01 4.67915E-34
9.82963E-01 4.38500E-34
9.84074E-01 4.09999E-34
9.85148E-01 3.82423E-34
9.86185E-01 3.55775E-34
9.87185E-01 3.30068E-34
9.88148E-01 3.05303E-34
9.89074E-01 2.81480E-34
9.89962E-01 2.58613E-34
9.90814E-01 2.36702E-34
9.91627E-01 2.15749E-34
9.92404E-01 1.95756E-34
9.93143E-01 1.76730E-34
9.93844E-01 1.58671E-34
9.94508E-01 1.41578E-34
9.95134E-01 1.25461E-34
9.95722E-01 1.10312E-34
9.96273E-01 9.61368E-35
9.96786E-01 8.29362E-35
9.97261E-01 7.07120E-35
9.97698E-01 5.94625E-35
9.98097E-01 4.91919E-35
9.98459E-01 3.98948E-35
9.98782E-01 3.15772E-35
9.99067E-01 2.42370E-35
9.99315E-01 1.78751E-35
9.99524E-01 1.24933E-35
9.99695E-01 8.08831E-36
9.99829E-01 4.66308E-36
9.99924E-01 2.21512E-36
9.99981E-01 7.47322E-37
1.00000E+00 2.57082E-37
