 #
 # Subroutine ELSEPA. Elastic scattering of electrons and positrons
 #                    by neutral atoms and positive ions
 #
 # Projectile: electron
 # Kinetic energy = 1.75000E+07 eV = 6.43113E+05 a.u.
 #
 # WARNING: High-energy factorization with free-atom DF screening.
 #          Absorption, polarization and exchange corrections are
 #          switched off.
 #          Phase shifts are calculated for the bare nucleus.
 #          Scattering amplitudes are not evaluated.
 #
 # Element: Na,  Z =  11,  atomic weight = 2.29898E+01 g/mol
 #
 # Nuclear model: Fermi distribution
 #                Average radius = 3.04249E-13 cm
 #                Skin thickness = 5.46000E-14 cm
 #
 # Number of electrons = 11
 #
 # Total elastic cross section = 4.67562E-19 cm**2 = 1.66969E-02 a0**2
 # 1st transport cross section = 6.99641E-25 cm**2 = 2.49846E-08 a0**2
 # 2nd transport cross section = 2.02219E-24 cm**2 = 7.22138E-08 a0**2
 #
 #
 # Differential cross section:                       MU=(1-COS(THETA))/2
 #
 #  THETA        MU          DCS          DCS        Sherman      error
 #  (deg)                 (cm**2/sr)   (a0**2/sr)    function
 #----------------------------------------------------------------------
0.00000E+00 2.83305E-12
7.61557E-13 2.83248E-12
1.18994E-12 2.83216E-12
1.71346E-12 2.83177E-12
2.33225E-12 2.83131E-12
3.04617E-12 2.83078E-12
3.85530E-12 2.83019E-12
4.75964E-12 2.82952E-12
5.75917E-12 2.82878E-12
6.85391E-12 2.82797E-12
8.04379E-12 2.82709E-12
9.32893E-12 2.82615E-12
1.07092E-11 2.82513E-12
1.21847E-11 2.82404E-12
1.37554E-11 2.82289E-12
1.54213E-11 2.82166E-12
1.71823E-11 2.82037E-12
1.90386E-11 2.81900E-12
2.09900E-11 2.81757E-12
2.30367E-11 2.81607E-12
2.51785E-11 2.81450E-12
2.74156E-11 2.81286E-12
2.97478E-11 2.81116E-12
3.21752E-11 2.80938E-12
3.46979E-11 2.80754E-12
3.73157E-11 2.80563E-12
4.00286E-11 2.80366E-12
4.28368E-11 2.80161E-12
4.57402E-11 2.79950E-12
4.87388E-11 2.79733E-12
5.18325E-11 2.79509E-12
5.50215E-11 2.79278E-12
5.83057E-11 2.79040E-12
6.16850E-11 2.78796E-12
6.51595E-11 2.78546E-12
6.87293E-11 2.78288E-12
7.23943E-11 2.78024E-12
7.61544E-11 2.77754E-12
1.18991E-10 2.74704E-12
1.71347E-10 2.71042E-12
2.33223E-10 2.66806E-12
3.04617E-10 2.62038E-12
3.85531E-10 2.56786E-12
4.75965E-10 2.51096E-12
5.75917E-10 2.45021E-12
6.85389E-10 2.38616E-12
8.04380E-10 2.31934E-12
9.32891E-10 2.25024E-12
1.07092E-09 2.17938E-12
1.21847E-09 2.10735E-12
1.37554E-09 2.03454E-12
1.54213E-09 1.96138E-12
1.71823E-09 1.88830E-12
1.90386E-09 1.81577E-12
2.09900E-09 1.74402E-12
2.30367E-09 1.67335E-12
2.51785E-09 1.60409E-12
2.74156E-09 1.53649E-12
2.97478E-09 1.47064E-12
3.21752E-09 1.40671E-12
3.46978E-09 1.34493E-12
3.73156E-09 1.28533E-12
4.00286E-09 1.22793E-12
4.28368E-09 1.17277E-12
4.57402E-09 1.12001E-12
4.87388E-09 1.07058E-12
5.18326E-09 1.02449E-12
5.50215E-09 9.79827E-13
5.83057E-09 9.36606E-13
6.16850E-09 8.94845E-13
6.51596E-09 8.54548E-13
6.87293E-09 8.15714E-13
7.23942E-09 7.78333E-13
7.61544E-09 7.44501E-13
1.18991E-08 4.93656E-13
1.71347E-08 3.47530E-13
2.33223E-08 2.59175E-13
3.04617E-08 2.02332E-13
3.85531E-08 1.62927E-13
4.75965E-08 1.33947E-13
5.75917E-08 1.11692E-13
6.85389E-08 9.38802E-14
8.04380E-08 7.93949E-14
9.32891E-08 6.74866E-14
1.07092E-07 5.75941E-14
1.21847E-07 4.92235E-14
1.37554E-07 4.21997E-14
1.54213E-07 3.62846E-14
1.71823E-07 3.12764E-14
1.90386E-07 2.70069E-14
2.09900E-07 2.33867E-14
2.30367E-07 2.03087E-14
2.51785E-07 1.76781E-14
2.74156E-07 1.54256E-14
2.97478E-07 1.34991E-14
3.21752E-07 1.18468E-14
3.46978E-07 1.04226E-14
3.73156E-07 9.19452E-15
4.00286E-07 8.13393E-15
4.28368E-07 7.21553E-15
4.57402E-07 6.41655E-15
4.87388E-07 5.71827E-15
5.18325E-07 5.10839E-15
5.50215E-07 4.58029E-15
5.83057E-07 4.11821E-15
6.16850E-07 3.70709E-15
6.51596E-07 3.34728E-15
6.87293E-07 3.03078E-15
7.23942E-07 2.74761E-15
7.61543E-07 2.49743E-15
1.18991E-06 1.06969E-15
1.71347E-06 5.34530E-16
2.33223E-06 2.98054E-16
3.04617E-06 1.79905E-16
3.85531E-06 1.15210E-16
4.75964E-06 7.72331E-17
5.75916E-06 5.37015E-17
6.85388E-06 3.84767E-17
8.04378E-06 2.82700E-17
9.32888E-06 2.12230E-17
1.07092E-05 1.62330E-17
1.21846E-05 1.26212E-17
1.37553E-05 9.95627E-18
1.54212E-05 7.95622E-18
1.71822E-05 6.43211E-18
1.90385E-05 5.25474E-18
2.09899E-05 4.33406E-18
2.30365E-05 3.60581E-18
2.51783E-05 3.02383E-18
2.74153E-05 2.55435E-18
2.97475E-05 2.17232E-18
3.21749E-05 1.85896E-18
3.46974E-05 1.60002E-18
3.73152E-05 1.38456E-18
4.00281E-05 1.20412E-18
4.28362E-05 1.05210E-18
4.57395E-05 9.23295E-19
4.87380E-05 8.13581E-19
5.18317E-05 7.19675E-19
5.50205E-05 6.38919E-19
5.83045E-05 5.69168E-19
6.16838E-05 5.08675E-19
6.51582E-05 4.56005E-19
6.87277E-05 4.09975E-19
7.23925E-05 3.69605E-19
7.61524E-05 3.34080E-19
9.21439E-05 2.28345E-19
1.09658E-04 1.61316E-19
1.28695E-04 1.17172E-19
1.49255E-04 8.71461E-20
1.71338E-04 6.61515E-20
1.94942E-04 5.11156E-20
2.20070E-04 4.01196E-20
2.46720E-04 3.19283E-20
2.74892E-04 2.57246E-20
3.04586E-04 2.09573E-20
3.35803E-04 1.72452E-20
3.68542E-04 1.43200E-20
4.02802E-04 1.19898E-20
4.38585E-04 1.01150E-20
4.75889E-04 8.59291E-21
5.14715E-04 7.34673E-21
5.55063E-04 6.31858E-21
5.96931E-04 5.46423E-21
6.40321E-04 4.74958E-21
6.85233E-04 4.14808E-21
7.31665E-04 3.63890E-21
7.79618E-04 3.20554E-21
8.29092E-04 2.83485E-21
8.80086E-04 2.51625E-21
9.32601E-04 2.24120E-21
9.86636E-04 2.00274E-21
1.04219E-03 1.79519E-21
1.09927E-03 1.61385E-21
1.15786E-03 1.45486E-21
1.21797E-03 1.31499E-21
1.27961E-03 1.19153E-21
1.34276E-03 1.08224E-21
1.40743E-03 9.85207E-22
1.47362E-03 8.98814E-22
1.54133E-03 8.21692E-22
1.61056E-03 7.52673E-22
1.68131E-03 6.90755E-22
1.75357E-03 6.35079E-22
1.82735E-03 5.84906E-22
1.90265E-03 5.39594E-22
1.97947E-03 4.98589E-22
2.05780E-03 4.61408E-22
2.13765E-03 4.27633E-22
2.21902E-03 3.96894E-22
2.30190E-03 3.68870E-22
2.38630E-03 3.43278E-22
2.47222E-03 3.19869E-22
2.55965E-03 2.98424E-22
2.64859E-03 2.78747E-22
2.73905E-03 2.60667E-22
2.83103E-03 2.44030E-22
2.92452E-03 2.28701E-22
3.01952E-03 2.14557E-22
3.11604E-03 2.01491E-22
3.21407E-03 1.89406E-22
3.31362E-03 1.78214E-22
3.41468E-03 1.67837E-22
3.51725E-03 1.58205E-22
3.62133E-03 1.49255E-22
3.72692E-03 1.40929E-22
3.83403E-03 1.33176E-22
3.94265E-03 1.25950E-22
4.05278E-03 1.19207E-22
4.16442E-03 1.12911E-22
4.27757E-03 1.07024E-22
4.39223E-03 1.01517E-22
4.50840E-03 9.63598E-23
4.62608E-03 9.15261E-23
4.74527E-03 8.69921E-23
4.86597E-03 8.27355E-23
4.98817E-03 7.87364E-23
5.11188E-03 7.49762E-23
5.23711E-03 7.14380E-23
5.36383E-03 6.81062E-23
5.49207E-03 6.49666E-23
5.62181E-03 6.20060E-23
5.75306E-03 5.92122E-23
5.88581E-03 5.65742E-23
6.02007E-03 5.40816E-23
6.15583E-03 5.17248E-23
6.29310E-03 4.94952E-23
6.43187E-03 4.73845E-23
6.57214E-03 4.53852E-23
6.71392E-03 4.34903E-23
6.85720E-03 4.16934E-23
7.00198E-03 3.99884E-23
7.14827E-03 3.83698E-23
7.29605E-03 3.68322E-23
7.44534E-03 3.53710E-23
7.59612E-03 3.39816E-23
7.97965E-03 3.07954E-23
8.37255E-03 2.79742E-23
8.77480E-03 2.54691E-23
9.18641E-03 2.32383E-23
9.60736E-03 2.12467E-23
1.00376E-02 1.94641E-23
1.04773E-02 1.78647E-23
1.09262E-02 1.64263E-23
1.13844E-02 1.51299E-23
1.18520E-02 1.39590E-23
1.23288E-02 1.28992E-23
1.28150E-02 1.19382E-23
1.33104E-02 1.10650E-23
1.38150E-02 1.02703E-23
1.43290E-02 9.54570E-24
1.48521E-02 8.88389E-24
1.53845E-02 8.27847E-24
1.59262E-02 7.72377E-24
1.64770E-02 7.21476E-24
1.70371E-02 6.74701E-24
1.76063E-02 6.31656E-24
1.81848E-02 5.91989E-24
1.87724E-02 5.55388E-24
1.93692E-02 5.21572E-24
1.99751E-02 4.90291E-24
2.05901E-02 4.61319E-24
2.12143E-02 4.34455E-24
2.18476E-02 4.09519E-24
2.24900E-02 3.86345E-24
2.31415E-02 3.64786E-24
2.38021E-02 3.44710E-24
2.44717E-02 3.25995E-24
2.51504E-02 3.08533E-24
2.58382E-02 2.92223E-24
2.65349E-02 2.76976E-24
2.72407E-02 2.62710E-24
2.79555E-02 2.49350E-24
2.86793E-02 2.36827E-24
2.94120E-02 2.25080E-24
3.01537E-02 2.14051E-24
3.09043E-02 2.03689E-24
3.16639E-02 1.93945E-24
3.24324E-02 1.84777E-24
3.32098E-02 1.76143E-24
3.39961E-02 1.68006E-24
3.47912E-02 1.60333E-24
3.55952E-02 1.53093E-24
3.64081E-02 1.46255E-24
3.72297E-02 1.39795E-24
3.80602E-02 1.33686E-24
3.88995E-02 1.27907E-24
3.97476E-02 1.22436E-24
4.06044E-02 1.17254E-24
4.14700E-02 1.12342E-24
4.23443E-02 1.07684E-24
4.32273E-02 1.03265E-24
4.41190E-02 9.90689E-25
4.50194E-02 9.50833E-25
4.59284E-02 9.12956E-25
4.68461E-02 8.76940E-25
4.87074E-02 8.10064E-25
5.06030E-02 7.49422E-25
5.25328E-02 6.94329E-25
5.44967E-02 6.44188E-25
5.64946E-02 5.98473E-25
5.85262E-02 5.56724E-25
6.05914E-02 5.18536E-25
6.26901E-02 4.83550E-25
6.48222E-02 4.51451E-25
6.69873E-02 4.21956E-25
6.91854E-02 3.94818E-25
7.14163E-02 3.69813E-25
7.36799E-02 3.46743E-25
7.59760E-02 3.25433E-25
7.83043E-02 3.05723E-25
8.06647E-02 2.87472E-25
8.30571E-02 2.70552E-25
8.54812E-02 2.54849E-25
8.79369E-02 2.40258E-25
9.04240E-02 2.26688E-25
9.29422E-02 2.14054E-25
9.54915E-02 2.02279E-25
9.80716E-02 1.91295E-25
1.00682E-01 1.81038E-25
1.03323E-01 1.71453E-25
1.05995E-01 1.62486E-25
1.08696E-01 1.54091E-25
1.11427E-01 1.46225E-25
1.14188E-01 1.38848E-25
1.16978E-01 1.31924E-25
1.19797E-01 1.25421E-25
1.22645E-01 1.19308E-25
1.25522E-01 1.13558E-25
1.28428E-01 1.08145E-25
1.31361E-01 1.03045E-25
1.34323E-01 9.82381E-26
1.37313E-01 9.37036E-26
1.40330E-01 8.94232E-26
1.43375E-01 8.53803E-26
1.46447E-01 8.15592E-26
1.49545E-01 7.79456E-26
1.52671E-01 7.45261E-26
1.55823E-01 7.12885E-26
1.59001E-01 6.82212E-26
1.62205E-01 6.53138E-26
1.65435E-01 6.25563E-26
1.68690E-01 5.99397E-26
1.71970E-01 5.74554E-26
1.75276E-01 5.50956E-26
1.78606E-01 5.28528E-26
1.81961E-01 5.07202E-26
1.85340E-01 4.86915E-26
1.88743E-01 4.67606E-26
1.92169E-01 4.49220E-26
1.95619E-01 4.31704E-26
1.99092E-01 4.15011E-26
2.02589E-01 3.99094E-26
2.06107E-01 3.83911E-26
2.09649E-01 3.69422E-26
2.13212E-01 3.55590E-26
2.16797E-01 3.42379E-26
2.20404E-01 3.29756E-26
2.24032E-01 3.17692E-26
2.27680E-01 3.06155E-26
2.31350E-01 2.95120E-26
2.35040E-01 2.84561E-26
2.38751E-01 2.74453E-26
2.42481E-01 2.64774E-26
2.46231E-01 2.55502E-26
2.50000E-01 2.46617E-26
2.53788E-01 2.38100E-26
2.57595E-01 2.29933E-26
2.61421E-01 2.22099E-26
2.65264E-01 2.14583E-26
2.69126E-01 2.07368E-26
2.73005E-01 2.00441E-26
2.76901E-01 1.93789E-26
2.80814E-01 1.87398E-26
2.84744E-01 1.81256E-26
2.88691E-01 1.75352E-26
2.92653E-01 1.69676E-26
2.96632E-01 1.64216E-26
3.00625E-01 1.58963E-26
3.04634E-01 1.53908E-26
3.08658E-01 1.49043E-26
3.12697E-01 1.44358E-26
3.16749E-01 1.39846E-26
3.20816E-01 1.35499E-26
3.24896E-01 1.31311E-26
3.28990E-01 1.27274E-26
3.33097E-01 1.23382E-26
3.37216E-01 1.19630E-26
3.41348E-01 1.16010E-26
3.45492E-01 1.12518E-26
3.49647E-01 1.09149E-26
3.53814E-01 1.05896E-26
3.57992E-01 1.02757E-26
3.62181E-01 9.97251E-27
3.66381E-01 9.67970E-27
3.70590E-01 9.39685E-27
3.74810E-01 9.12354E-27
3.79039E-01 8.85941E-27
3.83277E-01 8.60410E-27
3.87524E-01 8.35725E-27
3.91780E-01 8.11855E-27
3.96044E-01 7.88768E-27
4.00316E-01 7.66434E-27
4.04596E-01 7.44824E-27
4.08882E-01 7.23911E-27
4.13176E-01 7.03668E-27
4.17476E-01 6.84071E-27
4.21783E-01 6.65095E-27
4.26095E-01 6.46718E-27
4.30413E-01 6.28918E-27
4.34737E-01 6.11672E-27
4.39065E-01 5.94962E-27
4.43398E-01 5.78768E-27
4.47736E-01 5.63072E-27
4.52077E-01 5.47854E-27
4.56422E-01 5.33100E-27
4.60770E-01 5.18791E-27
4.65122E-01 5.04914E-27
4.69476E-01 4.91451E-27
4.73832E-01 4.78390E-27
4.78190E-01 4.65715E-27
4.82550E-01 4.53415E-27
4.86912E-01 4.41476E-27
4.91274E-01 4.29885E-27
4.95637E-01 4.18631E-27
5.00000E-01 4.07703E-27
5.04363E-01 3.97090E-27
5.08726E-01 3.86780E-27
5.13088E-01 3.76765E-27
5.17450E-01 3.67034E-27
5.21810E-01 3.57579E-27
5.26168E-01 3.48389E-27
5.30524E-01 3.39457E-27
5.34878E-01 3.30774E-27
5.39230E-01 3.22332E-27
5.43578E-01 3.14123E-27
5.47923E-01 3.06141E-27
5.52264E-01 2.98377E-27
5.56602E-01 2.90825E-27
5.60935E-01 2.83478E-27
5.65263E-01 2.76330E-27
5.69587E-01 2.69375E-27
5.73905E-01 2.62606E-27
5.78217E-01 2.56018E-27
5.82524E-01 2.49606E-27
5.86824E-01 2.43363E-27
5.91118E-01 2.37285E-27
5.95404E-01 2.31368E-27
5.99684E-01 2.25605E-27
6.03956E-01 2.19992E-27
6.08220E-01 2.14526E-27
6.12476E-01 2.09201E-27
6.16723E-01 2.04013E-27
6.20961E-01 1.98959E-27
6.25190E-01 1.94034E-27
6.29410E-01 1.89235E-27
6.33619E-01 1.84558E-27
6.37819E-01 1.80000E-27
6.42008E-01 1.75556E-27
6.46186E-01 1.71224E-27
6.50353E-01 1.67001E-27
6.54508E-01 1.62884E-27
6.58652E-01 1.58868E-27
6.62784E-01 1.54953E-27
6.66903E-01 1.51134E-27
6.71010E-01 1.47410E-27
6.75104E-01 1.43777E-27
6.79184E-01 1.40232E-27
6.83251E-01 1.36775E-27
6.87303E-01 1.33401E-27
6.91342E-01 1.30110E-27
6.95366E-01 1.26898E-27
6.99375E-01 1.23764E-27
7.03368E-01 1.20704E-27
7.07347E-01 1.17719E-27
7.11309E-01 1.14804E-27
7.15256E-01 1.11959E-27
7.19186E-01 1.09182E-27
7.23099E-01 1.06471E-27
7.26995E-01 1.03823E-27
7.30874E-01 1.01239E-27
7.34736E-01 9.87146E-28
7.38579E-01 9.62498E-28
7.42405E-01 9.38426E-28
7.46212E-01 9.14917E-28
7.50000E-01 8.91955E-28
7.53769E-01 8.69527E-28
7.57519E-01 8.47619E-28
7.61249E-01 8.26218E-28
7.64960E-01 8.05311E-28
7.68650E-01 7.84885E-28
7.72320E-01 7.64929E-28
7.75968E-01 7.45431E-28
7.79596E-01 7.26380E-28
7.83203E-01 7.07763E-28
7.86788E-01 6.89572E-28
7.90351E-01 6.71795E-28
7.93893E-01 6.54422E-28
7.97411E-01 6.37443E-28
8.00908E-01 6.20850E-28
8.04381E-01 6.04632E-28
8.07831E-01 5.88780E-28
8.11257E-01 5.73287E-28
8.14660E-01 5.58143E-28
8.18039E-01 5.43339E-28
8.21394E-01 5.28869E-28
8.24724E-01 5.14724E-28
8.28030E-01 5.00897E-28
8.31310E-01 4.87380E-28
8.34565E-01 4.74166E-28
8.37795E-01 4.61248E-28
8.40999E-01 4.48620E-28
8.44177E-01 4.36274E-28
8.47329E-01 4.24204E-28
8.50455E-01 4.12405E-28
8.53553E-01 4.00869E-28
8.56625E-01 3.89592E-28
8.59670E-01 3.78567E-28
8.62687E-01 3.67789E-28
8.65677E-01 3.57252E-28
8.68639E-01 3.46952E-28
8.71572E-01 3.36882E-28
8.74478E-01 3.27038E-28
8.77355E-01 3.17415E-28
8.80203E-01 3.08009E-28
8.83022E-01 2.98814E-28
8.85812E-01 2.89827E-28
8.88573E-01 2.81043E-28
8.91304E-01 2.72457E-28
8.94005E-01 2.64066E-28
8.96677E-01 2.55865E-28
8.99318E-01 2.47852E-28
9.01928E-01 2.40020E-28
9.04508E-01 2.32368E-28
9.07058E-01 2.24892E-28
9.09576E-01 2.17588E-28
9.12063E-01 2.10452E-28
9.14519E-01 2.03482E-28
9.16943E-01 1.96673E-28
9.19335E-01 1.90024E-28
9.21696E-01 1.83531E-28
9.24024E-01 1.77190E-28
9.26320E-01 1.71000E-28
9.28584E-01 1.64957E-28
9.30815E-01 1.59058E-28
9.33013E-01 1.53302E-28
9.35178E-01 1.47684E-28
9.37310E-01 1.42204E-28
9.39409E-01 1.36858E-28
9.41474E-01 1.31643E-28
9.43505E-01 1.26559E-28
9.45503E-01 1.21602E-28
9.47467E-01 1.16770E-28
9.49397E-01 1.12061E-28
9.51293E-01 1.07473E-28
9.53154E-01 1.03005E-28
9.54981E-01 9.86534E-29
9.56773E-01 9.44173E-29
9.58530E-01 9.02946E-29
9.60252E-01 8.62836E-29
9.61940E-01 8.23825E-29
9.63592E-01 7.85897E-29
9.65209E-01 7.49036E-29
9.66790E-01 7.13225E-29
9.68336E-01 6.78451E-29
9.69846E-01 6.44698E-29
9.71321E-01 6.11951E-29
9.72759E-01 5.80198E-29
9.74162E-01 5.49424E-29
9.75528E-01 5.19617E-29
9.76858E-01 4.90765E-29
9.78152E-01 4.62855E-29
9.79410E-01 4.35875E-29
9.80631E-01 4.09816E-29
9.81815E-01 3.84665E-29
9.82963E-01 3.60412E-29
9.84074E-01 3.37048E-29
9.85148E-01 3.14563E-29
9.86185E-01 2.92947E-29
9.87185E-01 2.72192E-29
9.88148E-01 2.52288E-29
9.89074E-01 2.33229E-29
9.89962E-01 2.15006E-29
9.90814E-01 1.97612E-29
9.91627E-01 1.81039E-29
9.92404E-01 1.65282E-29
9.93143E-01 1.50333E-29
9.93844E-01 1.36186E-29
9.94508E-01 1.22836E-29
9.95134E-01 1.10278E-29
9.95722E-01 9.85055E-30
9.96273E-01 8.75147E-30
9.96786E-01 7.73011E-30
9.97261E-01 6.78603E-30
9.97698E-01 5.91888E-30
9.98097E-01 5.12828E-30
9.98459E-01 4.41395E-30
9.98782E-01 3.77557E-30
9.99067E-01 3.21289E-30
9.99315E-01 2.72569E-30
9.99524E-01 2.31378E-30
9.99695E-01 1.97699E-30
9.99829E-01 1.71518E-30
9.99924E-01 1.52824E-30
9.99981E-01 1.41611E-30
1.00000E+00 1.37875E-30
