 #
 # Subroutine ELSEPA. Elastic scattering of electrons and positrons
 #                    by neutral atoms and positive ions
 #
 # Projectile: electron
 # Kinetic energy = 1.25000E+08 eV = 4.59367E+06 a.u.
 #
 # WARNING: High-energy factorization with free-atom DF screening.
 #          Absorption, polarization and exchange corrections are
 #          switched off.
 #          Phase shifts are calculated for the bare nucleus.
 #          Scattering amplitudes are not evaluated.
 #
 # Element: Na,  Z =  11,  atomic weight = 2.29898E+01 g/mol
 #
 # Nuclear model: Fermi distribution
 #                Average radius = 3.04249E-13 cm
 #                Skin thickness = 5.46000E-14 cm
 #
 # Number of electrons = 11
 #
 # Total elastic cross section = 4.66954E-19 cm**2 = 1.66752E-02 a0**2
 # 1st transport cross section = 1.67065E-26 cm**2 = 5.96600E-10 a0**2
 # 2nd transport cross section = 4.96707E-26 cm**2 = 1.77377E-09 a0**2
 #
 #
 # Differential cross section:                       MU=(1-COS(THETA))/2
 #
 #  THETA        MU          DCS          DCS        Sherman      error
 #  (deg)                 (cm**2/sr)   (a0**2/sr)    function
 #----------------------------------------------------------------------
0.00000E+00 1.37576E-10
7.61557E-13 1.36255E-10
1.18994E-12 1.35521E-10
1.71346E-12 1.34632E-10
2.33225E-12 1.33593E-10
3.04617E-12 1.32407E-10
3.85530E-12 1.31083E-10
4.75964E-12 1.29626E-10
5.75917E-12 1.28043E-10
6.85391E-12 1.26342E-10
8.04379E-12 1.24530E-10
9.32893E-12 1.22616E-10
1.07092E-11 1.20608E-10
1.21847E-11 1.18515E-10
1.37554E-11 1.16345E-10
1.54213E-11 1.14109E-10
1.71823E-11 1.11814E-10
1.90386E-11 1.09469E-10
2.09900E-11 1.07082E-10
2.30367E-11 1.04661E-10
2.51785E-11 1.02215E-10
2.74156E-11 9.97506E-11
2.97478E-11 9.72758E-11
3.21752E-11 9.47987E-11
3.46979E-11 9.23263E-11
3.73157E-11 8.98634E-11
4.00286E-11 8.74157E-11
4.28368E-11 8.49886E-11
4.57402E-11 8.25870E-11
4.87388E-11 8.02154E-11
5.18325E-11 7.78779E-11
5.50215E-11 7.55780E-11
5.83057E-11 7.33219E-11
6.16850E-11 7.11098E-11
6.51595E-11 6.89439E-11
6.87293E-11 6.68262E-11
7.23943E-11 6.47585E-11
7.61544E-11 6.27422E-11
1.18991E-10 4.57784E-11
1.71347E-10 3.34818E-11
2.33223E-10 2.50801E-11
3.04617E-10 1.93801E-11
3.85531E-10 1.54668E-11
4.75965E-10 1.26840E-11
5.75917E-10 1.06248E-11
6.85389E-10 9.05089E-12
8.04380E-10 7.81085E-12
9.32891E-10 6.80736E-12
1.07092E-09 5.97689E-12
1.21847E-09 5.27704E-12
1.37554E-09 4.67883E-12
1.54213E-09 4.15772E-12
1.71823E-09 3.70408E-12
1.90386E-09 3.30703E-12
2.09900E-09 2.95794E-12
2.30367E-09 2.64994E-12
2.51785E-09 2.37743E-12
2.74156E-09 2.13575E-12
2.97478E-09 1.92109E-12
3.21752E-09 1.72963E-12
3.46978E-09 1.55868E-12
3.73156E-09 1.40646E-12
4.00286E-09 1.27074E-12
4.28368E-09 1.14959E-12
4.57402E-09 1.04133E-12
4.87388E-09 9.44473E-13
5.18326E-09 8.57735E-13
5.50215E-09 7.79976E-13
5.83057E-09 7.10004E-13
6.16850E-09 6.47177E-13
6.51596E-09 5.90714E-13
6.87293E-09 5.39909E-13
7.23942E-09 4.94137E-13
7.61544E-09 4.52851E-13
1.18991E-08 2.03044E-13
1.71347E-08 1.02411E-13
2.33223E-08 5.69721E-14
3.04617E-08 3.42592E-14
3.85531E-08 2.19022E-14
4.75965E-08 1.46959E-14
5.75917E-08 1.02486E-14
6.85389E-08 7.37528E-15
8.04380E-08 5.44717E-15
9.32891E-08 4.11194E-15
1.07092E-07 3.16225E-15
1.21847E-07 2.47137E-15
1.37554E-07 1.95898E-15
1.54213E-07 1.57242E-15
1.71823E-07 1.27634E-15
1.90386E-07 1.04648E-15
2.09900E-07 8.65881E-16
2.30367E-07 7.22443E-16
2.51785E-07 6.07381E-16
2.74156E-07 5.14237E-16
2.97478E-07 4.38194E-16
3.21752E-07 3.75642E-16
3.46978E-07 3.23817E-16
3.73156E-07 2.80594E-16
4.00286E-07 2.44320E-16
4.28368E-07 2.13699E-16
4.57402E-07 1.87713E-16
4.87388E-07 1.65546E-16
5.18325E-07 1.46547E-16
5.50215E-07 1.30189E-16
5.83057E-07 1.16045E-16
6.16850E-07 1.03765E-16
6.51596E-07 9.30637E-17
6.87293E-07 8.37039E-17
7.23942E-07 7.54892E-17
7.61543E-07 6.82559E-17
1.18991E-06 2.80509E-17
1.71347E-06 1.35469E-17
2.33223E-06 7.31743E-18
3.04617E-06 4.29105E-18
3.85531E-06 2.67956E-18
4.75964E-06 1.75836E-18
5.75916E-06 1.20111E-18
6.85388E-06 8.48123E-19
8.04378E-06 6.15798E-19
9.32888E-06 4.57853E-19
1.07092E-05 3.47456E-19
1.21846E-05 2.68418E-19
1.37553E-05 2.10630E-19
1.54212E-05 1.67591E-19
1.71822E-05 1.35006E-19
1.90385E-05 1.09968E-19
2.09899E-05 9.04776E-20
2.30365E-05 7.51197E-20
2.51783E-05 6.28861E-20
2.74153E-05 5.30445E-20
2.97475E-05 4.50552E-20
3.21749E-05 3.85151E-20
3.46974E-05 3.31202E-20
3.73152E-05 2.86379E-20
4.00281E-05 2.48890E-20
4.28362E-05 2.17341E-20
4.57395E-05 1.90636E-20
4.87380E-05 1.67909E-20
5.18317E-05 1.48471E-20
5.50205E-05 1.31766E-20
5.83045E-05 1.17346E-20
6.16838E-05 1.04846E-20
6.51582E-05 9.39676E-21
6.87277E-05 8.44646E-21
7.23925E-05 7.61334E-21
7.61524E-05 6.87798E-21
9.21439E-05 4.69835E-21
1.09658E-04 3.31776E-21
1.28695E-04 2.40905E-21
1.49255E-04 1.79123E-21
1.71338E-04 1.35938E-21
1.94942E-04 1.05018E-21
2.20070E-04 8.24102E-22
2.46720E-04 6.55716E-22
2.74892E-04 5.28222E-22
3.04586E-04 4.30261E-22
3.35803E-04 3.53991E-22
3.68542E-04 2.93895E-22
4.02802E-04 2.46025E-22
4.38585E-04 2.07516E-22
4.75889E-04 1.76253E-22
5.14715E-04 1.50661E-22
5.55063E-04 1.29548E-22
5.96931E-04 1.12006E-22
6.40321E-04 9.73347E-23
6.85233E-04 8.49875E-23
7.31665E-04 7.45366E-23
7.79618E-04 6.56431E-23
8.29092E-04 5.80365E-23
8.80086E-04 5.14998E-23
9.32601E-04 4.58573E-23
9.86636E-04 4.09663E-23
1.04219E-03 3.67097E-23
1.09927E-03 3.29914E-23
1.15786E-03 2.97317E-23
1.21797E-03 2.68644E-23
1.27961E-03 2.43342E-23
1.34276E-03 2.20946E-23
1.40743E-03 2.01065E-23
1.47362E-03 1.83368E-23
1.54133E-03 1.67572E-23
1.61056E-03 1.53439E-23
1.68131E-03 1.40762E-23
1.75357E-03 1.29365E-23
1.82735E-03 1.19097E-23
1.90265E-03 1.09825E-23
1.97947E-03 1.01437E-23
2.05780E-03 9.38320E-24
2.13765E-03 8.69253E-24
2.21902E-03 8.06410E-24
2.30190E-03 7.49130E-24
2.38630E-03 6.96833E-24
2.47222E-03 6.49008E-24
2.55965E-03 6.05204E-24
2.64859E-03 5.65023E-24
2.73905E-03 5.28111E-24
2.83103E-03 4.94155E-24
2.92452E-03 4.62875E-24
3.01952E-03 4.34022E-24
3.11604E-03 4.07374E-24
3.21407E-03 3.82732E-24
3.31362E-03 3.59919E-24
3.41468E-03 3.38772E-24
3.51725E-03 3.19150E-24
3.62133E-03 3.00921E-24
3.72692E-03 2.83969E-24
3.83403E-03 2.68189E-24
3.94265E-03 2.53484E-24
4.05278E-03 2.39768E-24
4.16442E-03 2.26962E-24
4.27757E-03 2.14995E-24
4.39223E-03 2.03803E-24
4.50840E-03 1.93324E-24
4.62608E-03 1.83507E-24
4.74527E-03 1.74301E-24
4.86597E-03 1.65661E-24
4.98817E-03 1.57547E-24
5.11188E-03 1.49920E-24
5.23711E-03 1.42746E-24
5.36383E-03 1.35993E-24
5.49207E-03 1.29631E-24
5.62181E-03 1.23634E-24
5.75306E-03 1.17978E-24
5.88581E-03 1.12638E-24
6.02007E-03 1.07595E-24
6.15583E-03 1.02829E-24
6.29310E-03 9.83211E-25
6.43187E-03 9.40556E-25
6.57214E-03 9.00168E-25
6.71392E-03 8.61904E-25
6.85720E-03 8.25633E-25
7.00198E-03 7.91231E-25
7.14827E-03 7.58585E-25
7.29605E-03 7.27588E-25
7.44534E-03 6.98142E-25
7.59612E-03 6.70154E-25
7.97965E-03 6.06021E-25
8.37255E-03 5.49298E-25
8.77480E-03 4.98985E-25
9.18641E-03 4.54236E-25
9.60736E-03 4.14331E-25
1.00376E-02 3.78657E-25
1.04773E-02 3.46689E-25
1.09262E-02 3.17976E-25
1.13844E-02 2.92131E-25
1.18520E-02 2.68818E-25
1.23288E-02 2.47748E-25
1.28150E-02 2.28667E-25
1.33104E-02 2.11356E-25
1.38150E-02 1.95622E-25
1.43290E-02 1.81297E-25
1.48521E-02 1.68234E-25
1.53845E-02 1.56302E-25
1.59262E-02 1.45387E-25
1.64770E-02 1.35387E-25
1.70371E-02 1.26213E-25
1.76063E-02 1.17784E-25
1.81848E-02 1.10030E-25
1.87724E-02 1.02888E-25
1.93692E-02 9.63004E-26
1.99751E-02 9.02176E-26
2.05901E-02 8.45941E-26
2.12143E-02 7.93895E-26
2.18476E-02 7.45672E-26
2.24900E-02 7.00944E-26
2.31415E-02 6.59415E-26
2.38021E-02 6.20817E-26
2.44717E-02 5.84909E-26
2.51504E-02 5.51471E-26
2.58382E-02 5.20306E-26
2.65349E-02 4.91232E-26
2.72407E-02 4.64087E-26
2.79555E-02 4.38720E-26
2.86793E-02 4.14996E-26
2.94120E-02 3.92790E-26
3.01537E-02 3.71990E-26
3.09043E-02 3.52492E-26
3.16639E-02 3.34200E-26
3.24324E-02 3.17028E-26
3.32098E-02 3.00896E-26
3.39961E-02 2.85731E-26
3.47912E-02 2.71465E-26
3.55952E-02 2.58036E-26
3.64081E-02 2.45387E-26
3.72297E-02 2.33465E-26
3.80602E-02 2.22223E-26
3.88995E-02 2.11614E-26
3.97476E-02 2.01598E-26
4.06044E-02 1.92136E-26
4.14700E-02 1.83193E-26
4.23443E-02 1.74735E-26
4.32273E-02 1.66732E-26
4.41190E-02 1.59156E-26
4.50194E-02 1.51980E-26
4.59284E-02 1.45181E-26
4.68461E-02 1.38734E-26
4.87074E-02 1.26817E-26
5.06030E-02 1.16076E-26
5.25328E-02 1.06378E-26
5.44967E-02 9.76084E-27
5.64946E-02 8.96647E-27
5.85262E-02 8.24584E-27
6.05914E-02 7.59115E-27
6.26901E-02 6.99552E-27
6.48222E-02 6.45288E-27
6.69873E-02 5.95789E-27
6.91854E-02 5.50579E-27
7.14163E-02 5.09238E-27
7.36799E-02 4.71389E-27
7.59760E-02 4.36699E-27
7.83043E-02 4.04870E-27
8.06647E-02 3.75637E-27
8.30571E-02 3.48760E-27
8.54812E-02 3.24026E-27
8.79369E-02 3.01243E-27
9.04240E-02 2.80237E-27
9.29422E-02 2.60855E-27
9.54915E-02 2.42954E-27
9.80716E-02 2.26409E-27
1.00682E-01 2.11105E-27
1.03323E-01 1.96938E-27
1.05995E-01 1.83814E-27
1.08696E-01 1.71648E-27
1.11427E-01 1.60362E-27
1.14188E-01 1.49886E-27
1.16978E-01 1.40155E-27
1.19797E-01 1.31111E-27
1.22645E-01 1.22700E-27
1.25522E-01 1.14874E-27
1.28428E-01 1.07587E-27
1.31361E-01 1.00799E-27
1.34323E-01 9.44727E-28
1.37313E-01 8.85734E-28
1.40330E-01 8.30695E-28
1.43375E-01 7.79323E-28
1.46447E-01 7.31350E-28
1.49545E-01 6.86532E-28
1.52671E-01 6.44644E-28
1.55823E-01 6.05476E-28
1.59001E-01 5.68839E-28
1.62205E-01 5.34555E-28
1.65435E-01 5.02461E-28
1.68690E-01 4.72406E-28
1.71970E-01 4.44251E-28
1.75276E-01 4.17865E-28
1.78606E-01 3.93131E-28
1.81961E-01 3.69937E-28
1.85340E-01 3.48180E-28
1.88743E-01 3.27765E-28
1.92169E-01 3.08604E-28
1.95619E-01 2.90614E-28
1.99092E-01 2.73720E-28
2.02589E-01 2.57851E-28
2.06107E-01 2.42940E-28
2.09649E-01 2.28926E-28
2.13212E-01 2.15752E-28
2.16797E-01 2.03365E-28
2.20404E-01 1.91715E-28
2.24032E-01 1.80756E-28
2.27680E-01 1.70445E-28
2.31350E-01 1.60741E-28
2.35040E-01 1.51607E-28
2.38751E-01 1.43008E-28
2.42481E-01 1.34911E-28
2.46231E-01 1.27285E-28
2.50000E-01 1.20102E-28
2.53788E-01 1.13335E-28
2.57595E-01 1.06959E-28
2.61421E-01 1.00950E-28
2.65264E-01 9.52858E-29
2.69126E-01 8.99466E-29
2.73005E-01 8.49128E-29
2.76901E-01 8.01662E-29
2.80814E-01 7.56899E-29
2.84744E-01 7.14680E-29
2.88691E-01 6.74856E-29
2.92653E-01 6.37286E-29
2.96632E-01 6.01839E-29
3.00625E-01 5.68391E-29
3.04634E-01 5.36827E-29
3.08658E-01 5.07037E-29
3.12697E-01 4.78920E-29
3.16749E-01 4.52378E-29
3.20816E-01 4.27322E-29
3.24896E-01 4.03667E-29
3.28990E-01 3.81331E-29
3.33097E-01 3.60241E-29
3.37216E-01 3.40325E-29
3.41348E-01 3.21517E-29
3.45492E-01 3.03754E-29
3.49647E-01 2.86976E-29
3.53814E-01 2.71129E-29
3.57992E-01 2.56159E-29
3.62181E-01 2.42019E-29
3.66381E-01 2.28660E-29
3.70590E-01 2.16039E-29
3.74810E-01 2.04115E-29
3.79039E-01 1.92849E-29
3.83277E-01 1.82205E-29
3.87524E-01 1.72147E-29
3.91780E-01 1.62643E-29
3.96044E-01 1.53662E-29
4.00316E-01 1.45176E-29
4.04596E-01 1.37156E-29
4.08882E-01 1.29578E-29
4.13176E-01 1.22416E-29
4.17476E-01 1.15648E-29
4.21783E-01 1.09251E-29
4.26095E-01 1.03206E-29
4.30413E-01 9.74933E-30
4.34737E-01 9.20941E-30
4.39065E-01 8.69914E-30
4.43398E-01 8.21690E-30
4.47736E-01 7.76113E-30
4.52077E-01 7.33039E-30
4.56422E-01 6.92331E-30
4.60770E-01 6.53859E-30
4.65122E-01 6.17501E-30
4.69476E-01 5.83140E-30
4.73832E-01 5.50667E-30
4.78190E-01 5.19979E-30
4.82550E-01 4.90979E-30
4.86912E-01 4.63573E-30
4.91274E-01 4.37676E-30
4.95637E-01 4.13204E-30
5.00000E-01 3.90079E-30
5.04363E-01 3.68228E-30
5.08726E-01 3.47582E-30
5.13088E-01 3.28074E-30
5.17450E-01 3.09642E-30
5.21810E-01 2.92227E-30
5.26168E-01 2.75775E-30
5.30524E-01 2.60232E-30
5.34878E-01 2.45548E-30
5.39230E-01 2.31677E-30
5.43578E-01 2.18574E-30
5.47923E-01 2.06198E-30
5.52264E-01 1.94508E-30
5.56602E-01 1.83467E-30
5.60935E-01 1.73039E-30
5.65263E-01 1.63191E-30
5.69587E-01 1.53891E-30
5.73905E-01 1.45109E-30
5.78217E-01 1.36817E-30
5.82524E-01 1.28988E-30
5.86824E-01 1.21596E-30
5.91118E-01 1.14617E-30
5.95404E-01 1.08029E-30
5.99684E-01 1.01811E-30
6.03956E-01 9.59409E-31
6.08220E-01 9.04009E-31
6.12476E-01 8.51724E-31
6.16723E-01 8.02384E-31
6.20961E-01 7.55824E-31
6.25190E-01 7.11893E-31
6.29410E-01 6.70445E-31
6.33619E-01 6.31343E-31
6.37819E-01 5.94456E-31
6.42008E-01 5.59662E-31
6.46186E-01 5.26846E-31
6.50353E-01 4.95897E-31
6.54508E-01 4.66712E-31
6.58652E-01 4.39193E-31
6.62784E-01 4.13246E-31
6.66903E-01 3.88785E-31
6.71010E-01 3.65727E-31
6.75104E-01 3.43993E-31
6.79184E-01 3.23509E-31
6.83251E-01 3.04206E-31
6.87303E-01 2.86016E-31
6.91342E-01 2.68879E-31
6.95366E-01 2.52734E-31
6.99375E-01 2.37525E-31
7.03368E-01 2.23201E-31
7.07347E-01 2.09711E-31
7.11309E-01 1.97008E-31
7.15256E-01 1.85048E-31
7.19186E-01 1.73788E-31
7.23099E-01 1.63189E-31
7.26995E-01 1.53213E-31
7.30874E-01 1.43825E-31
7.34736E-01 1.34992E-31
7.38579E-01 1.26681E-31
7.42405E-01 1.18862E-31
7.46212E-01 1.11509E-31
7.50000E-01 1.04593E-31
7.53769E-01 9.80902E-32
7.57519E-01 9.19763E-32
7.61249E-01 8.62290E-32
7.64960E-01 8.08271E-32
7.68650E-01 7.57506E-32
7.72320E-01 7.09806E-32
7.75968E-01 6.64994E-32
7.79596E-01 6.22901E-32
7.83203E-01 5.83368E-32
7.86788E-01 5.46246E-32
7.90351E-01 5.11394E-32
7.93893E-01 4.78678E-32
7.97411E-01 4.47973E-32
8.00908E-01 4.19160E-32
8.04381E-01 3.92127E-32
8.07831E-01 3.66769E-32
8.11257E-01 3.42986E-32
8.14660E-01 3.20685E-32
8.18039E-01 2.99777E-32
8.21394E-01 2.80179E-32
8.24724E-01 2.61812E-32
8.28030E-01 2.44603E-32
8.31310E-01 2.28481E-32
8.34565E-01 2.13381E-32
8.37795E-01 1.99240E-32
8.40999E-01 1.86001E-32
8.44177E-01 1.73609E-32
8.47329E-01 1.62012E-32
8.50455E-01 1.51161E-32
8.53553E-01 1.41010E-32
8.56625E-01 1.31516E-32
8.59670E-01 1.22639E-32
8.62687E-01 1.14340E-32
8.65677E-01 1.06583E-32
8.68639E-01 9.93346E-33
8.71572E-01 9.25628E-33
8.74478E-01 8.62377E-33
8.77355E-01 8.03310E-33
8.80203E-01 7.48164E-33
8.83022E-01 6.96689E-33
8.85812E-01 6.48652E-33
8.88573E-01 6.03832E-33
8.91304E-01 5.62024E-33
8.94005E-01 5.23034E-33
8.96677E-01 4.86679E-33
8.99318E-01 4.52789E-33
9.01928E-01 4.21203E-33
9.04508E-01 3.91771E-33
9.07058E-01 3.64351E-33
9.09576E-01 3.38811E-33
9.12063E-01 3.15028E-33
9.14519E-01 2.92883E-33
9.16943E-01 2.72269E-33
9.19335E-01 2.53082E-33
9.21696E-01 2.35227E-33
9.24024E-01 2.18614E-33
9.26320E-01 2.03159E-33
9.28584E-01 1.88783E-33
9.30815E-01 1.75413E-33
9.33013E-01 1.62980E-33
9.35178E-01 1.51419E-33
9.37310E-01 1.40670E-33
9.39409E-01 1.30677E-33
9.41474E-01 1.21387E-33
9.43505E-01 1.12752E-33
9.45503E-01 1.04724E-33
9.47467E-01 9.72624E-34
9.49397E-01 9.03257E-34
9.51293E-01 8.38775E-34
9.53154E-01 7.78826E-34
9.54981E-01 7.23097E-34
9.56773E-01 6.71271E-34
9.58530E-01 6.23079E-34
9.60252E-01 5.78259E-34
9.61940E-01 5.36563E-34
9.63592E-01 4.97771E-34
9.65209E-01 4.61669E-34
9.66790E-01 4.28068E-34
9.68336E-01 3.96783E-34
9.69846E-01 3.67646E-34
9.71321E-01 3.40502E-34
9.72759E-01 3.15213E-34
9.74162E-01 2.91636E-34
9.75528E-01 2.69655E-34
9.76858E-01 2.49149E-34
9.78152E-01 2.30022E-34
9.79410E-01 2.12172E-34
9.80631E-01 1.95508E-34
9.81815E-01 1.79945E-34
9.82963E-01 1.65414E-34
9.84074E-01 1.51838E-34
9.85148E-01 1.39157E-34
9.86185E-01 1.27307E-34
9.87185E-01 1.16239E-34
9.88148E-01 1.05899E-34
9.89074E-01 9.62388E-35
9.89962E-01 8.72227E-35
9.90814E-01 7.88097E-35
9.91627E-01 7.09637E-35
9.92404E-01 6.36519E-35
9.93143E-01 5.68479E-35
9.93844E-01 5.05241E-35
9.94508E-01 4.46545E-35
9.95134E-01 3.92226E-35
9.95722E-01 3.42013E-35
9.96273E-01 2.95776E-35
9.96786E-01 2.53340E-35
9.97261E-01 2.14573E-35
9.97698E-01 1.79325E-35
9.98097E-01 1.47513E-35
9.98459E-01 1.18984E-35
9.98782E-01 9.36966E-36
9.99067E-01 7.15535E-36
9.99315E-01 5.24928E-36
9.99524E-01 3.64705E-36
9.99695E-01 2.34119E-36
9.99829E-01 1.33017E-36
9.99924E-01 6.08911E-37
9.99981E-01 1.77964E-37
1.00000E+00 3.36705E-38
