 #
 # Subroutine ELSEPA. Elastic scattering of electrons and positrons
 #                    by neutral atoms and positive ions
 #
 # Projectile: electron
 # Kinetic energy = 3.00000E+06 eV = 1.10248E+05 a.u.
 #
 # WARNING: High-energy factorization with free-atom DF screening.
 #          Absorption, polarization and exchange corrections are
 #          switched off.
 #          Phase shifts are calculated for the bare nucleus.
 #          Scattering amplitudes are not evaluated.
 #
 # Element: Na,  Z =  11,  atomic weight = 2.29898E+01 g/mol
 #
 # Nuclear model: Fermi distribution
 #                Average radius = 3.04249E-13 cm
 #                Skin thickness = 5.46000E-14 cm
 #
 # Number of electrons = 11
 #
 # Total elastic cross section = 4.77230E-19 cm**2 = 1.70422E-02 a0**2
 # 1st transport cross section = 1.49032E-23 cm**2 = 5.32202E-07 a0**2
 # 2nd transport cross section = 4.24768E-23 cm**2 = 1.51688E-06 a0**2
 #
 #
 # Differential cross section:                       MU=(1-COS(THETA))/2
 #
 #  THETA        MU          DCS          DCS        Sherman      error
 #  (deg)                 (cm**2/sr)   (a0**2/sr)    function
 #----------------------------------------------------------------------
0.00000E+00 1.07656E-13
7.61557E-13 1.07655E-13
1.18994E-12 1.07655E-13
1.71346E-12 1.07654E-13
2.33225E-12 1.07654E-13
3.04617E-12 1.07653E-13
3.85530E-12 1.07652E-13
4.75964E-12 1.07651E-13
5.75917E-12 1.07650E-13
6.85391E-12 1.07649E-13
8.04379E-12 1.07648E-13
9.32893E-12 1.07646E-13
1.07092E-11 1.07645E-13
1.21847E-11 1.07643E-13
1.37554E-11 1.07642E-13
1.54213E-11 1.07640E-13
1.71823E-11 1.07638E-13
1.90386E-11 1.07636E-13
2.09900E-11 1.07634E-13
2.30367E-11 1.07632E-13
2.51785E-11 1.07630E-13
2.74156E-11 1.07627E-13
2.97478E-11 1.07625E-13
3.21752E-11 1.07623E-13
3.46979E-11 1.07620E-13
3.73157E-11 1.07617E-13
4.00286E-11 1.07614E-13
4.28368E-11 1.07611E-13
4.57402E-11 1.07608E-13
4.87388E-11 1.07605E-13
5.18325E-11 1.07602E-13
5.50215E-11 1.07599E-13
5.83057E-11 1.07595E-13
6.16850E-11 1.07592E-13
6.51595E-11 1.07588E-13
6.87293E-11 1.07584E-13
7.23943E-11 1.07580E-13
7.61544E-11 1.07576E-13
1.18991E-10 1.07532E-13
1.71347E-10 1.07477E-13
2.33223E-10 1.07413E-13
3.04617E-10 1.07338E-13
3.85531E-10 1.07254E-13
4.75965E-10 1.07160E-13
5.75917E-10 1.07056E-13
6.85389E-10 1.06943E-13
8.04380E-10 1.06820E-13
9.32891E-10 1.06687E-13
1.07092E-09 1.06545E-13
1.21847E-09 1.06393E-13
1.37554E-09 1.06232E-13
1.54213E-09 1.06061E-13
1.71823E-09 1.05882E-13
1.90386E-09 1.05692E-13
2.09900E-09 1.05494E-13
2.30367E-09 1.05287E-13
2.51785E-09 1.05070E-13
2.74156E-09 1.04845E-13
2.97478E-09 1.04611E-13
3.21752E-09 1.04368E-13
3.46978E-09 1.04117E-13
3.73156E-09 1.03857E-13
4.00286E-09 1.03588E-13
4.28368E-09 1.03311E-13
4.57402E-09 1.03026E-13
4.87388E-09 1.02733E-13
5.18326E-09 1.02432E-13
5.50215E-09 1.02123E-13
5.83057E-09 1.01806E-13
6.16850E-09 1.01481E-13
6.51596E-09 1.01148E-13
6.87293E-09 1.00809E-13
7.23942E-09 1.00462E-13
7.61544E-09 1.00108E-13
1.18991E-08 9.62000E-14
1.71347E-08 9.17228E-14
2.33223E-08 8.68189E-14
3.04617E-08 8.16348E-14
3.85531E-08 7.63013E-14
4.75965E-08 7.09479E-14
5.75917E-08 6.56717E-14
6.85389E-08 6.05637E-14
8.04380E-08 5.56853E-14
9.32891E-08 5.10845E-14
1.07092E-07 4.67914E-14
1.21847E-07 4.28181E-14
1.37554E-07 3.92806E-14
1.54213E-07 3.60338E-14
1.71823E-07 3.29927E-14
1.90386E-07 3.01584E-14
2.09900E-07 2.76875E-14
2.30367E-07 2.55287E-14
2.51785E-07 2.35278E-14
2.74156E-07 2.16780E-14
2.97478E-07 2.00510E-14
3.21752E-07 1.86459E-14
3.46978E-07 1.73475E-14
3.73156E-07 1.61486E-14
4.00286E-07 1.50765E-14
4.28368E-07 1.41477E-14
4.57402E-07 1.32886E-14
4.87388E-07 1.24940E-14
5.18325E-07 1.17706E-14
5.50215E-07 1.11344E-14
5.83057E-07 1.05444E-14
6.16850E-07 9.99688E-15
6.51596E-07 9.49142E-15
6.87293E-07 9.03614E-15
7.23942E-07 8.61256E-15
7.61543E-07 8.21819E-15
1.18991E-06 5.44640E-15
1.71347E-06 3.83577E-15
2.33223E-06 2.78012E-15
3.04617E-06 2.04280E-15
3.85531E-06 1.51884E-15
4.75964E-06 1.13813E-15
5.75916E-06 8.61532E-16
6.85388E-06 6.58080E-16
8.04378E-06 5.07756E-16
9.32888E-06 3.95728E-16
1.07092E-05 3.11517E-16
1.21846E-05 2.47719E-16
1.37553E-05 1.98645E-16
1.54212E-05 1.61223E-16
1.71822E-05 1.31777E-16
1.90385E-05 1.08777E-16
2.09899E-05 9.05037E-17
2.30365E-05 7.58810E-17
2.51783E-05 6.41072E-17
2.74153E-05 5.45134E-17
2.97475E-05 4.66652E-17
3.21749E-05 4.01892E-17
3.46974E-05 3.48060E-17
3.73152E-05 3.03072E-17
4.00281E-05 2.65189E-17
4.28362E-05 2.33128E-17
4.57395E-05 2.05842E-17
4.87380E-05 1.82474E-17
5.18317E-05 1.62388E-17
5.50205E-05 1.45024E-17
5.83045E-05 1.29952E-17
6.16838E-05 1.16824E-17
6.51582E-05 1.05321E-17
6.87277E-05 9.52256E-18
7.23925E-05 8.63239E-18
7.61524E-05 7.84471E-18
9.21439E-05 5.47213E-18
1.09658E-04 3.93635E-18
1.28695E-04 2.90496E-18
1.49255E-04 2.19050E-18
1.71338E-04 1.68257E-18
1.94942E-04 1.31342E-18
2.20070E-04 1.03983E-18
2.46720E-04 8.33693E-19
2.74892E-04 6.75961E-19
3.04586E-04 5.53693E-19
3.35803E-04 4.57736E-19
3.68542E-04 3.81612E-19
4.02802E-04 3.20610E-19
4.38585E-04 2.71276E-19
4.75889E-04 2.31043E-19
5.14715E-04 1.97972E-19
5.55063E-04 1.70594E-19
5.96931E-04 1.47774E-19
6.40321E-04 1.28635E-19
6.85233E-04 1.12488E-19
7.31665E-04 9.87915E-20
7.79618E-04 8.71128E-20
8.29092E-04 7.71065E-20
8.80086E-04 6.84940E-20
9.32601E-04 6.10490E-20
9.86636E-04 5.45873E-20
1.04219E-03 4.89570E-20
1.09927E-03 4.40336E-20
1.15786E-03 3.97130E-20
1.21797E-03 3.59091E-20
1.27961E-03 3.25496E-20
1.34276E-03 2.95736E-20
1.40743E-03 2.69299E-20
1.47362E-03 2.45750E-20
1.54133E-03 2.24719E-20
1.61056E-03 2.05889E-20
1.68131E-03 1.88990E-20
1.75357E-03 1.73789E-20
1.82735E-03 1.60087E-20
1.90265E-03 1.47708E-20
1.97947E-03 1.36503E-20
2.05780E-03 1.26341E-20
2.13765E-03 1.17107E-20
2.21902E-03 1.08702E-20
2.30190E-03 1.01038E-20
2.38630E-03 9.40370E-21
2.47222E-03 8.76326E-21
2.55965E-03 8.17645E-21
2.64859E-03 7.63795E-21
2.73905E-03 7.14309E-21
2.83103E-03 6.68768E-21
2.92452E-03 6.26801E-21
3.01952E-03 5.88076E-21
3.11604E-03 5.52298E-21
3.21407E-03 5.19201E-21
3.31362E-03 4.88548E-21
3.41468E-03 4.60126E-21
3.51725E-03 4.33742E-21
3.62133E-03 4.09223E-21
3.72692E-03 3.86414E-21
3.83403E-03 3.65173E-21
3.94265E-03 3.45373E-21
4.05278E-03 3.26898E-21
4.16442E-03 3.09642E-21
4.27757E-03 2.93512E-21
4.39223E-03 2.78418E-21
4.50840E-03 2.64284E-21
4.62608E-03 2.51036E-21
4.74527E-03 2.38608E-21
4.86597E-03 2.26941E-21
4.98817E-03 2.15978E-21
5.11188E-03 2.05671E-21
5.23711E-03 1.95971E-21
5.36383E-03 1.86837E-21
5.49207E-03 1.78230E-21
5.62181E-03 1.70112E-21
5.75306E-03 1.62453E-21
5.88581E-03 1.55220E-21
6.02007E-03 1.48385E-21
6.15583E-03 1.41923E-21
6.29310E-03 1.35809E-21
6.43187E-03 1.30021E-21
6.57214E-03 1.24539E-21
6.71392E-03 1.19343E-21
6.85720E-03 1.14415E-21
7.00198E-03 1.09738E-21
7.14827E-03 1.05298E-21
7.29605E-03 1.01081E-21
7.44534E-03 9.70732E-22
7.59612E-03 9.32620E-22
7.97965E-03 8.45221E-22
8.37255E-03 7.67833E-22
8.77480E-03 6.99112E-22
9.18641E-03 6.37917E-22
9.60736E-03 5.83280E-22
1.00376E-02 5.34374E-22
1.04773E-02 4.90494E-22
1.09262E-02 4.51030E-22
1.13844E-02 4.15461E-22
1.18520E-02 3.83333E-22
1.23288E-02 3.54254E-22
1.28150E-02 3.27883E-22
1.33104E-02 3.03923E-22
1.38150E-02 2.82115E-22
1.43290E-02 2.62229E-22
1.48521E-02 2.44067E-22
1.53845E-02 2.27451E-22
1.59262E-02 2.12227E-22
1.64770E-02 1.98256E-22
1.70371E-02 1.85417E-22
1.76063E-02 1.73602E-22
1.81848E-02 1.62713E-22
1.87724E-02 1.52666E-22
1.93692E-02 1.43382E-22
1.99751E-02 1.34795E-22
2.05901E-02 1.26840E-22
2.12143E-02 1.19465E-22
2.18476E-02 1.12618E-22
2.24900E-02 1.06255E-22
2.31415E-02 1.00335E-22
2.38021E-02 9.48217E-23
2.44717E-02 8.96823E-23
2.51504E-02 8.48864E-23
2.58382E-02 8.04070E-23
2.65349E-02 7.62193E-23
2.72407E-02 7.23007E-23
2.79555E-02 6.86307E-23
2.86793E-02 6.51907E-23
2.94120E-02 6.19636E-23
3.01537E-02 5.89336E-23
3.09043E-02 5.60866E-23
3.16639E-02 5.34095E-23
3.24324E-02 5.08901E-23
3.32098E-02 4.85176E-23
3.39961E-02 4.62816E-23
3.47912E-02 4.41729E-23
3.55952E-02 4.21829E-23
3.64081E-02 4.03037E-23
3.72297E-02 3.85279E-23
3.80602E-02 3.68487E-23
3.88995E-02 3.52600E-23
3.97476E-02 3.37559E-23
4.06044E-02 3.23311E-23
4.14700E-02 3.09806E-23
4.23443E-02 2.96998E-23
4.32273E-02 2.84845E-23
4.41190E-02 2.73306E-23
4.50194E-02 2.62345E-23
4.59284E-02 2.51927E-23
4.68461E-02 2.42020E-23
4.87074E-02 2.23624E-23
5.06030E-02 2.06939E-23
5.25328E-02 1.91780E-23
5.44967E-02 1.77980E-23
5.64946E-02 1.65398E-23
5.85262E-02 1.53905E-23
6.05914E-02 1.43391E-23
6.26901E-02 1.33757E-23
6.48222E-02 1.24916E-23
6.69873E-02 1.16791E-23
6.91854E-02 1.09315E-23
7.14163E-02 1.02424E-23
7.36799E-02 9.60666E-24
7.59760E-02 9.01926E-24
7.83043E-02 8.47587E-24
8.06647E-02 7.97261E-24
8.30571E-02 7.50597E-24
8.54812E-02 7.07280E-24
8.79369E-02 6.67027E-24
9.04240E-02 6.29580E-24
9.29422E-02 5.94710E-24
9.54915E-02 5.62205E-24
9.80716E-02 5.31876E-24
1.00682E-01 5.03551E-24
1.03323E-01 4.77073E-24
1.05995E-01 4.52300E-24
1.08696E-01 4.29102E-24
1.11427E-01 4.07359E-24
1.14188E-01 3.86965E-24
1.16978E-01 3.67820E-24
1.19797E-01 3.49833E-24
1.22645E-01 3.32922E-24
1.25522E-01 3.17011E-24
1.28428E-01 3.02029E-24
1.31361E-01 2.87912E-24
1.34323E-01 2.74601E-24
1.37313E-01 2.62041E-24
1.40330E-01 2.50183E-24
1.43375E-01 2.38980E-24
1.46447E-01 2.28389E-24
1.49545E-01 2.18370E-24
1.52671E-01 2.08887E-24
1.55823E-01 1.99906E-24
1.59001E-01 1.91396E-24
1.62205E-01 1.83326E-24
1.65435E-01 1.75671E-24
1.68690E-01 1.68405E-24
1.71970E-01 1.61505E-24
1.75276E-01 1.54948E-24
1.78606E-01 1.48715E-24
1.81961E-01 1.42786E-24
1.85340E-01 1.37145E-24
1.88743E-01 1.31774E-24
1.92169E-01 1.26658E-24
1.95619E-01 1.21783E-24
1.99092E-01 1.17135E-24
2.02589E-01 1.12702E-24
2.06107E-01 1.08473E-24
2.09649E-01 1.04435E-24
2.13212E-01 1.00579E-24
2.16797E-01 9.68954E-25
2.20404E-01 9.33746E-25
2.24032E-01 9.00082E-25
2.27680E-01 8.67882E-25
2.31350E-01 8.37072E-25
2.35040E-01 8.07579E-25
2.38751E-01 7.79338E-25
2.42481E-01 7.52285E-25
2.46231E-01 7.26362E-25
2.50000E-01 7.01512E-25
2.53788E-01 6.77683E-25
2.57595E-01 6.54826E-25
2.61421E-01 6.32893E-25
2.65264E-01 6.11840E-25
2.69126E-01 5.91627E-25
2.73005E-01 5.72212E-25
2.76901E-01 5.53559E-25
2.80814E-01 5.35633E-25
2.84744E-01 5.18399E-25
2.88691E-01 5.01827E-25
2.92653E-01 4.85886E-25
2.96632E-01 4.70548E-25
3.00625E-01 4.55787E-25
3.04634E-01 4.41575E-25
3.08658E-01 4.27890E-25
3.12697E-01 4.14709E-25
3.16749E-01 4.02008E-25
3.20816E-01 3.89769E-25
3.24896E-01 3.77970E-25
3.28990E-01 3.66593E-25
3.33097E-01 3.55621E-25
3.37216E-01 3.45036E-25
3.41348E-01 3.34823E-25
3.45492E-01 3.24965E-25
3.49647E-01 3.15449E-25
3.53814E-01 3.06260E-25
3.57992E-01 2.97386E-25
3.62181E-01 2.88812E-25
3.66381E-01 2.80528E-25
3.70590E-01 2.72522E-25
3.74810E-01 2.64783E-25
3.79039E-01 2.57301E-25
3.83277E-01 2.50065E-25
3.87524E-01 2.43065E-25
3.91780E-01 2.36294E-25
3.96044E-01 2.29741E-25
4.00316E-01 2.23400E-25
4.04596E-01 2.17261E-25
4.08882E-01 2.11317E-25
4.13176E-01 2.05561E-25
4.17476E-01 1.99985E-25
4.21783E-01 1.94584E-25
4.26095E-01 1.89351E-25
4.30413E-01 1.84280E-25
4.34737E-01 1.79364E-25
4.39065E-01 1.74599E-25
4.43398E-01 1.69978E-25
4.47736E-01 1.65497E-25
4.52077E-01 1.61150E-25
4.56422E-01 1.56934E-25
4.60770E-01 1.52843E-25
4.65122E-01 1.48873E-25
4.69476E-01 1.45020E-25
4.73832E-01 1.41280E-25
4.78190E-01 1.37649E-25
4.82550E-01 1.34123E-25
4.86912E-01 1.30698E-25
4.91274E-01 1.27372E-25
4.95637E-01 1.24141E-25
5.00000E-01 1.21001E-25
5.04363E-01 1.17951E-25
5.08726E-01 1.14986E-25
5.13088E-01 1.12104E-25
5.17450E-01 1.09302E-25
5.21810E-01 1.06579E-25
5.26168E-01 1.03930E-25
5.30524E-01 1.01354E-25
5.34878E-01 9.88483E-26
5.39230E-01 9.64110E-26
5.43578E-01 9.40396E-26
5.47923E-01 9.17322E-26
5.52264E-01 8.94868E-26
5.56602E-01 8.73013E-26
5.60935E-01 8.51740E-26
5.65263E-01 8.31031E-26
5.69587E-01 8.10867E-26
5.73905E-01 7.91234E-26
5.78217E-01 7.72113E-26
5.82524E-01 7.53491E-26
5.86824E-01 7.35351E-26
5.91118E-01 7.17679E-26
5.95404E-01 7.00462E-26
5.99684E-01 6.83686E-26
6.03956E-01 6.67338E-26
6.08220E-01 6.51405E-26
6.12476E-01 6.35875E-26
6.16723E-01 6.20737E-26
6.20961E-01 6.05978E-26
6.25190E-01 5.91588E-26
6.29410E-01 5.77557E-26
6.33619E-01 5.63874E-26
6.37819E-01 5.50530E-26
6.42008E-01 5.37513E-26
6.46186E-01 5.24817E-26
6.50353E-01 5.12431E-26
6.54508E-01 5.00346E-26
6.58652E-01 4.88555E-26
6.62784E-01 4.77049E-26
6.66903E-01 4.65820E-26
6.71010E-01 4.54861E-26
6.75104E-01 4.44165E-26
6.79184E-01 4.33723E-26
6.83251E-01 4.23530E-26
6.87303E-01 4.13579E-26
6.91342E-01 4.03862E-26
6.95366E-01 3.94375E-26
6.99375E-01 3.85110E-26
7.03368E-01 3.76062E-26
7.07347E-01 3.67225E-26
7.11309E-01 3.58594E-26
7.15256E-01 3.50163E-26
7.19186E-01 3.41927E-26
7.23099E-01 3.33881E-26
7.26995E-01 3.26020E-26
7.30874E-01 3.18339E-26
7.34736E-01 3.10834E-26
7.38579E-01 3.03500E-26
7.42405E-01 2.96333E-26
7.46212E-01 2.89329E-26
7.50000E-01 2.82483E-26
7.53769E-01 2.75792E-26
7.57519E-01 2.69251E-26
7.61249E-01 2.62858E-26
7.64960E-01 2.56608E-26
7.68650E-01 2.50498E-26
7.72320E-01 2.44524E-26
7.75968E-01 2.38684E-26
7.79596E-01 2.32973E-26
7.83203E-01 2.27389E-26
7.86788E-01 2.21929E-26
7.90351E-01 2.16590E-26
7.93893E-01 2.11368E-26
7.97411E-01 2.06262E-26
8.00908E-01 2.01268E-26
8.04381E-01 1.96384E-26
8.07831E-01 1.91607E-26
8.11257E-01 1.86934E-26
8.14660E-01 1.82364E-26
8.18039E-01 1.77894E-26
8.21394E-01 1.73522E-26
8.24724E-01 1.69245E-26
8.28030E-01 1.65062E-26
8.31310E-01 1.60969E-26
8.34565E-01 1.56966E-26
8.37795E-01 1.53049E-26
8.40999E-01 1.49218E-26
8.44177E-01 1.45471E-26
8.47329E-01 1.41804E-26
8.50455E-01 1.38218E-26
8.53553E-01 1.34709E-26
8.56625E-01 1.31277E-26
8.59670E-01 1.27919E-26
8.62687E-01 1.24635E-26
8.65677E-01 1.21422E-26
8.68639E-01 1.18278E-26
8.71572E-01 1.15204E-26
8.74478E-01 1.12196E-26
8.77355E-01 1.09254E-26
8.80203E-01 1.06377E-26
8.83022E-01 1.03563E-26
8.85812E-01 1.00810E-26
8.88573E-01 9.81177E-27
8.91304E-01 9.54848E-27
8.94005E-01 9.29100E-27
8.96677E-01 9.03921E-27
8.99318E-01 8.79300E-27
9.01928E-01 8.55227E-27
9.04508E-01 8.31691E-27
9.07058E-01 8.08681E-27
9.09576E-01 7.86187E-27
9.12063E-01 7.64200E-27
9.14519E-01 7.42710E-27
9.16943E-01 7.21708E-27
9.19335E-01 7.01185E-27
9.21696E-01 6.81132E-27
9.24024E-01 6.61540E-27
9.26320E-01 6.42402E-27
9.28584E-01 6.23708E-27
9.30815E-01 6.05452E-27
9.33013E-01 5.87626E-27
9.35178E-01 5.70221E-27
9.37310E-01 5.53232E-27
9.39409E-01 5.36651E-27
9.41474E-01 5.20470E-27
9.43505E-01 5.04685E-27
9.45503E-01 4.89287E-27
9.47467E-01 4.74271E-27
9.49397E-01 4.59630E-27
9.51293E-01 4.45359E-27
9.53154E-01 4.31452E-27
9.54981E-01 4.17904E-27
9.56773E-01 4.04708E-27
9.58530E-01 3.91860E-27
9.60252E-01 3.79354E-27
9.61940E-01 3.67186E-27
9.63592E-01 3.55351E-27
9.65209E-01 3.43843E-27
9.66790E-01 3.32660E-27
9.68336E-01 3.21795E-27
9.69846E-01 3.11245E-27
9.71321E-01 3.01006E-27
9.72759E-01 2.91074E-27
9.74162E-01 2.81444E-27
9.75528E-01 2.72114E-27
9.76858E-01 2.63079E-27
9.78152E-01 2.54336E-27
9.79410E-01 2.45883E-27
9.80631E-01 2.37714E-27
9.81815E-01 2.29828E-27
9.82963E-01 2.22221E-27
9.84074E-01 2.14891E-27
9.85148E-01 2.07834E-27
9.86185E-01 2.01049E-27
9.87185E-01 1.94531E-27
9.88148E-01 1.88280E-27
9.89074E-01 1.82292E-27
9.89962E-01 1.76566E-27
9.90814E-01 1.71098E-27
9.91627E-01 1.65888E-27
9.92404E-01 1.60933E-27
9.93143E-01 1.56231E-27
9.93844E-01 1.51781E-27
9.94508E-01 1.47580E-27
9.95134E-01 1.43628E-27
9.95722E-01 1.39923E-27
9.96273E-01 1.36463E-27
9.96786E-01 1.33247E-27
9.97261E-01 1.30274E-27
9.97698E-01 1.27544E-27
9.98097E-01 1.25053E-27
9.98459E-01 1.22803E-27
9.98782E-01 1.20792E-27
9.99067E-01 1.19020E-27
9.99315E-01 1.17485E-27
9.99524E-01 1.16187E-27
9.99695E-01 1.15125E-27
9.99829E-01 1.14300E-27
9.99924E-01 1.13711E-27
9.99981E-01 1.13358E-27
1.00000E+00 1.13240E-27
