 #
 # Subroutine ELSEPA. Elastic scattering of electrons and positrons
 #                    by neutral atoms and positive ions
 #
 # Projectile: electron
 # Kinetic energy = 7.00000E+07 eV = 2.57245E+06 a.u.
 #
 # WARNING: High-energy factorization with free-atom DF screening.
 #          Absorption, polarization and exchange corrections are
 #          switched off.
 #          Phase shifts are calculated for the bare nucleus.
 #          Scattering amplitudes are not evaluated.
 #
 # Element: Na,  Z =  11,  atomic weight = 2.29898E+01 g/mol
 #
 # Nuclear model: Fermi distribution
 #                Average radius = 3.04249E-13 cm
 #                Skin thickness = 5.46000E-14 cm
 #
 # Number of electrons = 11
 #
 # Total elastic cross section = 4.66605E-19 cm**2 = 1.66628E-02 a0**2
 # 1st transport cross section = 5.19619E-26 cm**2 = 1.85559E-09 a0**2
 # 2nd transport cross section = 1.52885E-25 cm**2 = 5.45963E-09 a0**2
 #
 #
 # Differential cross section:                       MU=(1-COS(THETA))/2
 #
 #  THETA        MU          DCS          DCS        Sherman      error
 #  (deg)                 (cm**2/sr)   (a0**2/sr)    function
 #----------------------------------------------------------------------
0.00000E+00 4.34202E-11
7.61557E-13 4.32879E-11
1.18994E-12 4.32138E-11
1.71346E-12 4.31236E-11
2.33225E-12 4.30173E-11
3.04617E-12 4.28952E-11
3.85530E-12 4.27574E-11
4.75964E-12 4.26041E-11
5.75917E-12 4.24358E-11
6.85391E-12 4.22524E-11
8.04379E-12 4.20546E-11
9.32893E-12 4.18422E-11
1.07092E-11 4.16161E-11
1.21847E-11 4.13761E-11
1.37554E-11 4.11232E-11
1.54213E-11 4.08571E-11
1.71823E-11 4.05789E-11
1.90386E-11 4.02882E-11
2.09900E-11 3.99864E-11
2.30367E-11 3.96730E-11
2.51785E-11 3.93493E-11
2.74156E-11 3.90149E-11
2.97478E-11 3.86712E-11
3.21752E-11 3.83177E-11
3.46979E-11 3.79559E-11
3.73157E-11 3.75853E-11
4.00286E-11 3.72074E-11
4.28368E-11 3.68215E-11
4.57402E-11 3.64294E-11
4.87388E-11 3.60303E-11
5.18325E-11 3.56260E-11
5.50215E-11 3.52156E-11
5.83057E-11 3.48010E-11
6.16850E-11 3.43813E-11
6.51595E-11 3.39582E-11
6.87293E-11 3.35311E-11
7.23943E-11 3.31015E-11
7.61544E-11 3.26688E-11
1.18991E-10 2.82926E-11
1.71347E-10 2.40652E-11
2.33223E-10 2.02299E-11
3.04617E-10 1.69055E-11
3.85531E-10 1.41942E-11
4.75965E-10 1.18372E-11
5.75917E-10 1.00233E-11
6.85389E-10 8.48914E-12
8.04380E-10 7.31118E-12
9.32891E-10 6.32137E-12
1.07092E-09 5.54676E-12
1.21847E-09 4.89381E-12
1.37554E-09 4.36701E-12
1.54213E-09 3.91921E-12
1.71823E-09 3.54539E-12
1.90386E-09 3.22419E-12
2.09900E-09 2.94721E-12
2.30367E-09 2.70648E-12
2.51785E-09 2.49309E-12
2.74156E-09 2.30555E-12
2.97478E-09 2.13570E-12
3.21752E-09 1.98491E-12
3.46978E-09 1.84617E-12
3.73156E-09 1.72192E-12
4.00286E-09 1.60635E-12
4.28368E-09 1.50206E-12
4.57402E-09 1.40438E-12
4.87388E-09 1.31565E-12
5.18326E-09 1.23221E-12
5.50215E-09 1.15600E-12
5.83057E-09 1.08417E-12
6.16850E-09 1.01826E-12
6.51596E-09 9.56074E-13
6.87293E-09 8.98795E-13
7.23942E-09 8.44739E-13
7.61544E-09 7.94784E-13
1.18991E-08 4.39926E-13
1.71347E-08 2.53038E-13
2.33223E-08 1.51582E-13
3.04617E-08 9.46409E-14
3.85531E-08 6.14703E-14
4.75965E-08 4.14444E-14
5.75917E-08 2.88985E-14
6.85389E-08 2.07564E-14
8.04380E-08 1.52997E-14
9.32891E-08 1.15367E-14
1.07092E-07 8.87435E-15
1.21847E-07 6.94637E-15
1.37554E-07 5.52074E-15
1.54213E-07 4.44669E-15
1.71823E-07 3.62446E-15
1.90386E-07 2.98569E-15
2.09900E-07 2.48284E-15
2.30367E-07 2.08205E-15
2.51785E-07 1.75945E-15
2.74156E-07 1.49726E-15
2.97478E-07 1.28230E-15
3.21752E-07 1.10452E-15
3.46978E-07 9.56533E-16
3.73156E-07 8.32521E-16
4.00286E-07 7.27953E-16
4.28368E-07 6.39223E-16
4.57402E-07 5.63571E-16
4.87388E-07 4.98756E-16
5.18325E-07 4.42966E-16
5.50215E-07 3.94718E-16
5.83057E-07 3.52830E-16
6.16850E-07 3.16332E-16
6.51596E-07 2.84413E-16
6.87293E-07 2.56396E-16
7.23942E-07 2.31726E-16
7.61543E-07 2.09939E-16
1.18991E-06 8.74669E-17
1.71347E-06 4.25303E-17
2.33223E-06 2.30560E-17
3.04617E-06 1.35477E-17
3.85531E-06 8.46992E-18
4.75964E-06 5.56219E-18
5.75916E-06 3.80136E-18
6.85388E-06 2.68515E-18
8.04378E-06 1.95009E-18
9.32888E-06 1.45017E-18
1.07092E-05 1.10064E-18
1.21846E-05 8.50352E-19
1.37553E-05 6.67327E-19
1.54212E-05 5.30999E-19
1.71822E-05 4.27769E-19
1.90385E-05 3.48439E-19
2.09899E-05 2.86683E-19
2.30365E-05 2.38022E-19
2.51783E-05 1.99260E-19
2.74153E-05 1.68076E-19
2.97475E-05 1.42762E-19
3.21749E-05 1.22039E-19
3.46974E-05 1.04945E-19
3.73152E-05 9.07425E-20
4.00281E-05 7.88639E-20
4.28362E-05 6.88672E-20
4.57395E-05 6.04054E-20
4.87380E-05 5.32043E-20
5.18317E-05 4.70450E-20
5.50205E-05 4.17518E-20
5.83045E-05 3.71827E-20
6.16838E-05 3.32220E-20
6.51582E-05 2.97751E-20
6.87277E-05 2.67639E-20
7.23925E-05 2.41241E-20
7.61524E-05 2.17993E-20
9.21439E-05 1.48920E-20
1.09658E-04 1.05167E-20
1.28695E-04 7.63677E-21
1.49255E-04 5.67867E-21
1.71338E-04 4.30993E-21
1.94942E-04 3.32988E-21
2.20070E-04 2.61328E-21
2.46720E-04 2.07951E-21
2.74892E-04 1.67535E-21
3.04586E-04 1.36480E-21
3.35803E-04 1.12299E-21
3.68542E-04 9.32457E-22
4.02802E-04 7.80676E-22
4.38585E-04 6.58566E-22
4.75889E-04 5.59428E-22
5.14715E-04 4.78265E-22
5.55063E-04 4.11305E-22
5.96931E-04 3.55666E-22
6.40321E-04 3.09127E-22
6.85233E-04 2.69958E-22
7.31665E-04 2.36802E-22
7.79618E-04 2.08584E-22
8.29092E-04 1.84447E-22
8.80086E-04 1.63704E-22
9.32601E-04 1.45796E-22
9.86636E-04 1.30272E-22
1.04219E-03 1.16761E-22
1.09927E-03 1.04956E-22
1.15786E-03 9.46069E-23
1.21797E-03 8.55023E-23
1.27961E-03 7.74672E-23
1.34276E-03 7.03541E-23
1.40743E-03 6.40390E-23
1.47362E-03 5.84169E-23
1.54133E-03 5.33983E-23
1.61056E-03 4.89073E-23
1.68131E-03 4.48786E-23
1.75357E-03 4.12563E-23
1.82735E-03 3.79921E-23
1.90265E-03 3.50444E-23
1.97947E-03 3.23770E-23
2.05780E-03 2.99586E-23
2.13765E-03 2.77618E-23
2.21902E-03 2.57627E-23
2.30190E-03 2.39402E-23
2.38630E-03 2.22761E-23
2.47222E-03 2.07540E-23
2.55965E-03 1.93596E-23
2.64859E-03 1.80804E-23
2.73905E-03 1.69050E-23
2.83103E-03 1.58236E-23
2.92452E-03 1.48272E-23
3.01952E-03 1.39080E-23
3.11604E-03 1.30589E-23
3.21407E-03 1.22735E-23
3.31362E-03 1.15463E-23
3.41468E-03 1.08721E-23
3.51725E-03 1.02463E-23
3.62133E-03 9.66492E-24
3.72692E-03 9.12414E-24
3.83403E-03 8.62061E-24
3.94265E-03 8.15131E-24
4.05278E-03 7.71348E-24
4.16442E-03 7.30463E-24
4.27757E-03 6.92247E-24
4.39223E-03 6.56495E-24
4.50840E-03 6.23019E-24
4.62608E-03 5.91646E-24
4.74527E-03 5.62221E-24
4.86597E-03 5.34600E-24
4.98817E-03 5.08651E-24
5.11188E-03 4.84256E-24
5.23711E-03 4.61303E-24
5.36383E-03 4.39692E-24
5.49207E-03 4.19330E-24
5.62181E-03 4.00130E-24
5.75306E-03 3.82015E-24
5.88581E-03 3.64911E-24
6.02007E-03 3.48752E-24
6.15583E-03 3.33476E-24
6.29310E-03 3.19025E-24
6.43187E-03 3.05347E-24
6.57214E-03 2.92392E-24
6.71392E-03 2.80115E-24
6.85720E-03 2.68475E-24
7.00198E-03 2.57431E-24
7.14827E-03 2.46948E-24
7.29605E-03 2.36991E-24
7.44534E-03 2.27530E-24
7.59612E-03 2.18535E-24
7.97965E-03 1.97912E-24
8.37255E-03 1.79659E-24
8.77480E-03 1.63455E-24
9.18641E-03 1.49032E-24
9.60736E-03 1.36159E-24
1.00376E-02 1.24642E-24
1.04773E-02 1.14312E-24
1.09262E-02 1.05026E-24
1.13844E-02 9.66594E-25
1.18520E-02 8.91059E-25
1.23288E-02 8.22724E-25
1.28150E-02 7.60781E-25
1.33104E-02 7.04528E-25
1.38150E-02 6.53350E-25
1.43290E-02 6.06707E-25
1.48521E-02 5.64127E-25
1.53845E-02 5.25193E-25
1.59262E-02 4.89538E-25
1.64770E-02 4.56836E-25
1.70371E-02 4.26799E-25
1.76063E-02 3.99172E-25
1.81848E-02 3.73726E-25
1.87724E-02 3.50259E-25
1.93692E-02 3.28589E-25
1.99751E-02 3.08554E-25
2.05901E-02 2.90008E-25
2.12143E-02 2.72822E-25
2.18476E-02 2.56877E-25
2.24900E-02 2.42068E-25
2.31415E-02 2.28300E-25
2.38021E-02 2.15486E-25
2.44717E-02 2.03548E-25
2.51504E-02 1.92415E-25
2.58382E-02 1.82024E-25
2.65349E-02 1.72316E-25
2.72407E-02 1.63238E-25
2.79555E-02 1.54743E-25
2.86793E-02 1.46785E-25
2.94120E-02 1.39325E-25
3.01537E-02 1.32326E-25
3.09043E-02 1.25754E-25
3.16639E-02 1.19579E-25
3.24324E-02 1.13773E-25
3.32098E-02 1.08309E-25
3.39961E-02 1.03163E-25
3.47912E-02 9.83148E-26
3.55952E-02 9.37426E-26
3.64081E-02 8.94284E-26
3.72297E-02 8.53550E-26
3.80602E-02 8.15065E-26
3.88995E-02 7.78683E-26
3.97476E-02 7.44269E-26
4.06044E-02 7.11696E-26
4.14700E-02 6.80849E-26
4.23443E-02 6.51620E-26
4.32273E-02 6.23909E-26
4.41190E-02 5.97623E-26
4.50194E-02 5.72676E-26
4.59284E-02 5.48987E-26
4.68461E-02 5.26481E-26
4.87074E-02 4.84747E-26
5.06030E-02 4.46970E-26
5.25328E-02 4.12712E-26
5.44967E-02 3.81591E-26
5.64946E-02 3.53272E-26
5.85262E-02 3.27459E-26
6.05914E-02 3.03895E-26
6.26901E-02 2.82350E-26
6.48222E-02 2.62623E-26
6.69873E-02 2.44535E-26
6.91854E-02 2.27927E-26
7.14163E-02 2.12659E-26
7.36799E-02 1.98603E-26
7.59760E-02 1.85648E-26
7.83043E-02 1.73694E-26
8.06647E-02 1.62650E-26
8.30571E-02 1.52436E-26
8.54812E-02 1.42979E-26
8.79369E-02 1.34215E-26
9.04240E-02 1.26083E-26
9.29422E-02 1.18531E-26
9.54915E-02 1.11511E-26
9.80716E-02 1.04980E-26
1.00682E-01 9.88975E-27
1.03323E-01 9.32282E-27
1.05995E-01 8.79396E-27
1.08696E-01 8.30019E-27
1.11427E-01 7.83882E-27
1.14188E-01 7.40740E-27
1.16978E-01 7.00366E-27
1.19797E-01 6.62557E-27
1.22645E-01 6.27122E-27
1.25522E-01 5.93890E-27
1.28428E-01 5.62704E-27
1.31361E-01 5.33416E-27
1.34323E-01 5.05895E-27
1.37313E-01 4.80017E-27
1.40330E-01 4.55670E-27
1.43375E-01 4.32749E-27
1.46447E-01 4.11157E-27
1.49545E-01 3.90807E-27
1.52671E-01 3.71616E-27
1.55823E-01 3.53509E-27
1.59001E-01 3.36415E-27
1.62205E-01 3.20269E-27
1.65435E-01 3.05010E-27
1.68690E-01 2.90584E-27
1.71970E-01 2.76938E-27
1.75276E-01 2.64024E-27
1.78606E-01 2.51797E-27
1.81961E-01 2.40214E-27
1.85340E-01 2.29239E-27
1.88743E-01 2.18833E-27
1.92169E-01 2.08964E-27
1.95619E-01 1.99600E-27
1.99092E-01 1.90711E-27
2.02589E-01 1.82270E-27
2.06107E-01 1.74252E-27
2.09649E-01 1.66632E-27
2.13212E-01 1.59388E-27
2.16797E-01 1.52498E-27
2.20404E-01 1.45944E-27
2.24032E-01 1.39707E-27
2.27680E-01 1.33769E-27
2.31350E-01 1.28115E-27
2.35040E-01 1.22728E-27
2.38751E-01 1.17595E-27
2.42481E-01 1.12702E-27
2.46231E-01 1.08036E-27
2.50000E-01 1.03587E-27
2.53788E-01 9.93409E-28
2.57595E-01 9.52892E-28
2.61421E-01 9.14213E-28
2.65264E-01 8.77279E-28
2.69126E-01 8.42002E-28
2.73005E-01 8.08298E-28
2.76901E-01 7.76090E-28
2.80814E-01 7.45302E-28
2.84744E-01 7.15865E-28
2.88691E-01 6.87712E-28
2.92653E-01 6.60781E-28
2.96632E-01 6.35013E-28
3.00625E-01 6.10352E-28
3.04634E-01 5.86745E-28
3.08658E-01 5.64142E-28
3.12697E-01 5.42495E-28
3.16749E-01 5.21759E-28
3.20816E-01 5.01892E-28
3.24896E-01 4.82854E-28
3.28990E-01 4.64606E-28
3.33097E-01 4.47111E-28
3.37216E-01 4.30336E-28
3.41348E-01 4.14248E-28
3.45492E-01 3.98816E-28
3.49647E-01 3.84009E-28
3.53814E-01 3.69801E-28
3.57992E-01 3.56164E-28
3.62181E-01 3.43073E-28
3.66381E-01 3.30504E-28
3.70590E-01 3.18435E-28
3.74810E-01 3.06843E-28
3.79039E-01 2.95708E-28
3.83277E-01 2.85009E-28
3.87524E-01 2.74729E-28
3.91780E-01 2.64849E-28
3.96044E-01 2.55353E-28
4.00316E-01 2.46223E-28
4.04596E-01 2.37444E-28
4.08882E-01 2.29003E-28
4.13176E-01 2.20883E-28
4.17476E-01 2.13073E-28
4.21783E-01 2.05559E-28
4.26095E-01 1.98330E-28
4.30413E-01 1.91372E-28
4.34737E-01 1.84676E-28
4.39065E-01 1.78231E-28
4.43398E-01 1.72025E-28
4.47736E-01 1.66051E-28
4.52077E-01 1.60297E-28
4.56422E-01 1.54757E-28
4.60770E-01 1.49420E-28
4.65122E-01 1.44279E-28
4.69476E-01 1.39326E-28
4.73832E-01 1.34553E-28
4.78190E-01 1.29954E-28
4.82550E-01 1.25522E-28
4.86912E-01 1.21250E-28
4.91274E-01 1.17132E-28
4.95637E-01 1.13162E-28
5.00000E-01 1.09334E-28
5.04363E-01 1.05643E-28
5.08726E-01 1.02083E-28
5.13088E-01 9.86498E-29
5.17450E-01 9.53382E-29
5.21810E-01 9.21436E-29
5.26168E-01 8.90616E-29
5.30524E-01 8.60879E-29
5.34878E-01 8.32184E-29
5.39230E-01 8.04493E-29
5.43578E-01 7.77767E-29
5.47923E-01 7.51971E-29
5.52264E-01 7.27069E-29
5.56602E-01 7.03030E-29
5.60935E-01 6.79821E-29
5.65263E-01 6.57411E-29
5.69587E-01 6.35771E-29
5.73905E-01 6.14873E-29
5.78217E-01 5.94690E-29
5.82524E-01 5.75195E-29
5.86824E-01 5.56364E-29
5.91118E-01 5.38173E-29
5.95404E-01 5.20598E-29
5.99684E-01 5.03618E-29
6.03956E-01 4.87210E-29
6.08220E-01 4.71355E-29
6.12476E-01 4.56032E-29
6.16723E-01 4.41224E-29
6.20961E-01 4.26910E-29
6.25190E-01 4.13075E-29
6.29410E-01 3.99700E-29
6.33619E-01 3.86770E-29
6.37819E-01 3.74270E-29
6.42008E-01 3.62183E-29
6.46186E-01 3.50495E-29
6.50353E-01 3.39194E-29
6.54508E-01 3.28264E-29
6.58652E-01 3.17693E-29
6.62784E-01 3.07469E-29
6.66903E-01 2.97580E-29
6.71010E-01 2.88014E-29
6.75104E-01 2.78760E-29
6.79184E-01 2.69808E-29
6.83251E-01 2.61146E-29
6.87303E-01 2.52766E-29
6.91342E-01 2.44656E-29
6.95366E-01 2.36809E-29
6.99375E-01 2.29216E-29
7.03368E-01 2.21866E-29
7.07347E-01 2.14754E-29
7.11309E-01 2.07870E-29
7.15256E-01 2.01206E-29
7.19186E-01 1.94756E-29
7.23099E-01 1.88512E-29
7.26995E-01 1.82467E-29
7.30874E-01 1.76615E-29
7.34736E-01 1.70949E-29
7.38579E-01 1.65463E-29
7.42405E-01 1.60150E-29
7.46212E-01 1.55007E-29
7.50000E-01 1.50025E-29
7.53769E-01 1.45201E-29
7.57519E-01 1.40530E-29
7.61249E-01 1.36005E-29
7.64960E-01 1.31622E-29
7.68650E-01 1.27378E-29
7.72320E-01 1.23266E-29
7.75968E-01 1.19283E-29
7.79596E-01 1.15424E-29
7.83203E-01 1.11687E-29
7.86788E-01 1.08065E-29
7.90351E-01 1.04557E-29
7.93893E-01 1.01158E-29
7.97411E-01 9.78640E-30
8.00908E-01 9.46727E-30
8.04381E-01 9.15804E-30
8.07831E-01 8.85838E-30
8.11257E-01 8.56800E-30
8.14660E-01 8.28659E-30
8.18039E-01 8.01388E-30
8.21394E-01 7.74958E-30
8.24724E-01 7.49342E-30
8.28030E-01 7.24515E-30
8.31310E-01 7.00452E-30
8.34565E-01 6.77128E-30
8.37795E-01 6.54521E-30
8.40999E-01 6.32607E-30
8.44177E-01 6.11365E-30
8.47329E-01 5.90774E-30
8.50455E-01 5.70814E-30
8.53553E-01 5.51464E-30
8.56625E-01 5.32707E-30
8.59670E-01 5.14522E-30
8.62687E-01 4.96893E-30
8.65677E-01 4.79802E-30
8.68639E-01 4.63233E-30
8.71572E-01 4.47169E-30
8.74478E-01 4.31596E-30
8.77355E-01 4.16497E-30
8.80203E-01 4.01859E-30
8.83022E-01 3.87667E-30
8.85812E-01 3.73908E-30
8.88573E-01 3.60568E-30
8.91304E-01 3.47635E-30
8.94005E-01 3.35097E-30
8.96677E-01 3.22941E-30
8.99318E-01 3.11156E-30
9.01928E-01 2.99731E-30
9.04508E-01 2.88655E-30
9.07058E-01 2.77917E-30
9.09576E-01 2.67509E-30
9.12063E-01 2.57419E-30
9.14519E-01 2.47638E-30
9.16943E-01 2.38158E-30
9.19335E-01 2.28969E-30
9.21696E-01 2.20063E-30
9.24024E-01 2.11431E-30
9.26320E-01 2.03067E-30
9.28584E-01 1.94961E-30
9.30815E-01 1.87106E-30
9.33013E-01 1.79496E-30
9.35178E-01 1.72123E-30
9.37310E-01 1.64980E-30
9.39409E-01 1.58062E-30
9.41474E-01 1.51360E-30
9.43505E-01 1.44871E-30
9.45503E-01 1.38587E-30
9.47467E-01 1.32503E-30
9.49397E-01 1.26613E-30
9.51293E-01 1.20912E-30
9.53154E-01 1.15396E-30
9.54981E-01 1.10058E-30
9.56773E-01 1.04894E-30
9.58530E-01 9.99001E-31
9.60252E-01 9.50709E-31
9.61940E-01 9.04024E-31
9.63592E-01 8.58904E-31
9.65209E-01 8.15309E-31
9.66790E-01 7.73200E-31
9.68336E-01 7.32540E-31
9.69846E-01 6.93292E-31
9.71321E-01 6.55422E-31
9.72759E-01 6.18895E-31
9.74162E-01 5.83681E-31
9.75528E-01 5.49747E-31
9.76858E-01 5.17064E-31
9.78152E-01 4.85602E-31
9.79410E-01 4.55335E-31
9.80631E-01 4.26235E-31
9.81815E-01 3.98277E-31
9.82963E-01 3.71437E-31
9.84074E-01 3.45691E-31
9.85148E-01 3.21016E-31
9.86185E-01 2.97391E-31
9.87185E-01 2.74795E-31
9.88148E-01 2.53209E-31
9.89074E-01 2.32613E-31
9.89962E-01 2.12991E-31
9.90814E-01 1.94323E-31
9.91627E-01 1.76596E-31
9.92404E-01 1.59792E-31
9.93143E-01 1.43898E-31
9.93844E-01 1.28900E-31
9.94508E-01 1.14785E-31
9.95134E-01 1.01540E-31
9.95722E-01 8.91538E-32
9.96273E-01 7.76162E-32
9.96786E-01 6.69170E-32
9.97261E-01 5.70469E-32
9.97698E-01 4.79974E-32
9.98097E-01 3.97607E-32
9.98459E-01 3.23298E-32
9.98782E-01 2.56981E-32
9.99067E-01 1.98600E-32
9.99315E-01 1.48105E-32
9.99524E-01 1.05451E-32
9.99695E-01 7.06024E-33
9.99829E-01 4.35289E-33
9.99924E-01 2.42075E-33
9.99981E-01 1.26213E-33
1.00000E+00 8.76081E-34
