 #
 # Subroutine ELSEPA. Elastic scattering of electrons and positrons
 #                    by neutral atoms and positive ions
 #
 # Projectile: electron
 # Kinetic energy = 4.50000E+06 eV = 1.65372E+05 a.u.
 #
 # WARNING: High-energy factorization with free-atom DF screening.
 #          Absorption, polarization and exchange corrections are
 #          switched off.
 #          Phase shifts are calculated for the bare nucleus.
 #          Scattering amplitudes are not evaluated.
 #
 # Element: Na,  Z =  11,  atomic weight = 2.29898E+01 g/mol
 #
 # Nuclear model: Fermi distribution
 #                Average radius = 3.04249E-13 cm
 #                Skin thickness = 5.46000E-14 cm
 #
 # Number of electrons = 11
 #
 # Total elastic cross section = 4.71684E-19 cm**2 = 1.68441E-02 a0**2
 # 1st transport cross section = 7.61245E-24 cm**2 = 2.71846E-07 a0**2
 # 2nd transport cross section = 2.17768E-23 cm**2 = 7.77665E-07 a0**2
 #
 #
 # Differential cross section:                       MU=(1-COS(THETA))/2
 #
 #  THETA        MU          DCS          DCS        Sherman      error
 #  (deg)                 (cm**2/sr)   (a0**2/sr)    function
 #----------------------------------------------------------------------
0.00000E+00 2.19294E-13
7.61557E-13 2.19291E-13
1.18994E-12 2.19289E-13
1.71346E-12 2.19286E-13
2.33225E-12 2.19284E-13
3.04617E-12 2.19280E-13
3.85530E-12 2.19277E-13
4.75964E-12 2.19273E-13
5.75917E-12 2.19268E-13
6.85391E-12 2.19264E-13
8.04379E-12 2.19258E-13
9.32893E-12 2.19253E-13
1.07092E-11 2.19247E-13
1.21847E-11 2.19240E-13
1.37554E-11 2.19233E-13
1.54213E-11 2.19226E-13
1.71823E-11 2.19218E-13
1.90386E-11 2.19210E-13
2.09900E-11 2.19201E-13
2.30367E-11 2.19192E-13
2.51785E-11 2.19183E-13
2.74156E-11 2.19173E-13
2.97478E-11 2.19163E-13
3.21752E-11 2.19152E-13
3.46979E-11 2.19141E-13
3.73157E-11 2.19130E-13
4.00286E-11 2.19118E-13
4.28368E-11 2.19106E-13
4.57402E-11 2.19093E-13
4.87388E-11 2.19080E-13
5.18325E-11 2.19066E-13
5.50215E-11 2.19052E-13
5.83057E-11 2.19038E-13
6.16850E-11 2.19023E-13
6.51595E-11 2.19008E-13
6.87293E-11 2.18992E-13
7.23943E-11 2.18976E-13
7.61544E-11 2.18960E-13
1.18991E-10 2.18772E-13
1.71347E-10 2.18543E-13
2.33223E-10 2.18273E-13
3.04617E-10 2.17963E-13
3.85531E-10 2.17611E-13
4.75965E-10 2.17220E-13
5.75917E-10 2.16788E-13
6.85389E-10 2.16317E-13
8.04380E-10 2.15806E-13
9.32891E-10 2.15257E-13
1.07092E-09 2.14669E-13
1.21847E-09 2.14043E-13
1.37554E-09 2.13380E-13
1.54213E-09 2.12680E-13
1.71823E-09 2.11944E-13
1.90386E-09 2.11171E-13
2.09900E-09 2.10364E-13
2.30367E-09 2.09522E-13
2.51785E-09 2.08646E-13
2.74156E-09 2.07738E-13
2.97478E-09 2.06796E-13
3.21752E-09 2.05823E-13
3.46978E-09 2.04819E-13
3.73156E-09 2.03784E-13
4.00286E-09 2.02720E-13
4.28368E-09 2.01628E-13
4.57402E-09 2.00506E-13
4.87388E-09 1.99359E-13
5.18326E-09 1.98185E-13
5.50215E-09 1.96984E-13
5.83057E-09 1.95761E-13
6.16850E-09 1.94513E-13
6.51596E-09 1.93240E-13
6.87293E-09 1.91949E-13
7.23942E-09 1.90635E-13
7.61544E-09 1.89298E-13
1.18991E-08 1.75030E-13
1.71347E-08 1.59672E-13
2.33223E-08 1.44024E-13
3.04617E-08 1.28716E-13
3.85531E-08 1.14247E-13
4.75965E-08 1.00913E-13
5.75917E-08 8.88982E-14
6.85389E-08 7.85156E-14
8.04380E-08 6.92874E-14
9.32891E-08 6.09258E-14
1.07092E-07 5.40430E-14
1.21847E-07 4.80767E-14
1.37554E-07 4.27447E-14
1.54213E-07 3.84472E-14
1.71823E-07 3.46654E-14
1.90386E-07 3.13032E-14
2.09900E-07 2.85704E-14
2.30367E-07 2.61268E-14
2.51785E-07 2.39664E-14
2.74156E-07 2.21374E-14
2.97478E-07 2.04953E-14
3.21752E-07 1.90363E-14
3.46978E-07 1.77551E-14
3.73156E-07 1.65991E-14
4.00286E-07 1.55577E-14
4.28368E-07 1.46184E-14
4.57402E-07 1.37665E-14
4.87388E-07 1.29837E-14
5.18325E-07 1.22665E-14
5.50215E-07 1.16131E-14
5.83057E-07 1.09988E-14
6.16850E-07 1.04326E-14
6.51596E-07 9.91448E-15
6.87293E-07 9.41633E-15
7.23942E-07 8.95747E-15
7.61543E-07 8.53429E-15
1.18991E-06 5.35676E-15
1.71347E-06 3.46913E-15
2.33223E-06 2.28829E-15
3.04617E-06 1.53999E-15
3.85531E-06 1.05647E-15
4.75964E-06 7.40266E-16
5.75916E-06 5.29379E-16
6.85388E-06 3.85862E-16
8.04378E-06 2.87262E-16
9.32888E-06 2.17745E-16
1.07092E-05 1.67836E-16
1.21846E-05 1.31381E-16
1.37553E-05 1.04300E-16
1.54212E-05 8.38860E-17
1.71822E-05 6.82707E-17
1.90385E-05 5.61615E-17
2.09899E-05 4.66541E-17
2.30365E-05 3.91011E-17
2.51783E-05 3.30363E-17
2.74153E-05 2.81186E-17
2.97475E-05 2.40935E-17
3.21749E-05 2.07721E-17
3.46974E-05 1.80104E-17
3.73152E-05 1.56978E-17
4.00281E-05 1.37483E-17
4.28362E-05 1.20949E-17
4.57395E-05 1.06845E-17
4.87380E-05 9.47517E-18
5.18317E-05 8.43266E-18
5.50205E-05 7.53005E-18
5.83045E-05 6.74543E-18
6.16838E-05 6.06063E-18
6.51582E-05 5.46071E-18
6.87277E-05 4.93326E-18
7.23925E-05 4.46797E-18
7.61524E-05 4.05622E-18
9.21439E-05 2.81487E-18
1.09658E-04 2.01305E-18
1.28695E-04 1.47648E-18
1.49255E-04 1.10673E-18
1.71338E-04 8.45355E-19
1.94942E-04 6.56504E-19
2.20070E-04 5.17371E-19
2.46720E-04 4.13100E-19
2.74892E-04 3.33739E-19
3.04586E-04 2.72501E-19
3.35803E-04 2.24649E-19
3.68542E-04 1.86832E-19
4.02802E-04 1.56631E-19
4.38585E-04 1.32283E-19
4.75889E-04 1.12479E-19
5.14715E-04 9.62415E-20
5.55063E-04 8.28276E-20
5.96931E-04 7.16688E-20
6.40321E-04 6.23257E-20
6.85233E-04 5.44557E-20
7.31665E-04 4.77887E-20
7.79618E-04 4.21111E-20
8.29092E-04 3.72517E-20
8.80086E-04 3.30733E-20
9.32601E-04 2.94645E-20
9.86636E-04 2.63346E-20
1.04219E-03 2.36096E-20
1.09927E-03 2.12280E-20
1.15786E-03 1.91393E-20
1.21797E-03 1.73013E-20
1.27961E-03 1.56788E-20
1.34276E-03 1.42421E-20
1.40743E-03 1.29663E-20
1.47362E-03 1.18303E-20
1.54133E-03 1.08161E-20
1.61056E-03 9.90824E-21
1.68131E-03 9.09374E-21
1.75357E-03 8.36127E-21
1.82735E-03 7.70112E-21
1.90265E-03 7.10489E-21
1.97947E-03 6.56529E-21
2.05780E-03 6.07598E-21
2.13765E-03 5.63145E-21
2.21902E-03 5.22687E-21
2.30190E-03 4.85799E-21
2.38630E-03 4.52111E-21
2.47222E-03 4.21295E-21
2.55965E-03 3.93062E-21
2.64859E-03 3.67156E-21
2.73905E-03 3.43352E-21
2.83103E-03 3.21447E-21
2.92452E-03 3.01263E-21
3.01952E-03 2.82640E-21
3.11604E-03 2.65435E-21
3.21407E-03 2.49520E-21
3.31362E-03 2.34781E-21
3.41468E-03 2.21115E-21
3.51725E-03 2.08428E-21
3.62133E-03 1.96639E-21
3.72692E-03 1.85673E-21
3.83403E-03 1.75462E-21
3.94265E-03 1.65943E-21
4.05278E-03 1.57062E-21
4.16442E-03 1.48768E-21
4.27757E-03 1.41015E-21
4.39223E-03 1.33760E-21
4.50840E-03 1.26967E-21
4.62608E-03 1.20600E-21
4.74527E-03 1.14627E-21
4.86597E-03 1.09020E-21
4.98817E-03 1.03752E-21
5.11188E-03 9.87992E-22
5.23711E-03 9.41383E-22
5.36383E-03 8.97493E-22
5.49207E-03 8.56134E-22
5.62181E-03 8.17132E-22
5.75306E-03 7.80329E-22
5.88581E-03 7.45577E-22
6.02007E-03 7.12739E-22
6.15583E-03 6.81692E-22
6.29310E-03 6.52319E-22
6.43187E-03 6.24512E-22
6.57214E-03 5.98173E-22
6.71392E-03 5.73209E-22
6.85720E-03 5.49536E-22
7.00198E-03 5.27073E-22
7.14827E-03 5.05747E-22
7.29605E-03 4.85491E-22
7.44534E-03 4.66239E-22
7.59612E-03 4.47933E-22
7.97965E-03 4.05954E-22
8.37255E-03 3.68783E-22
8.77480E-03 3.35775E-22
9.18641E-03 3.06382E-22
9.60736E-03 2.80139E-22
1.00376E-02 2.56649E-22
1.04773E-02 2.35573E-22
1.09262E-02 2.16618E-22
1.13844E-02 1.99534E-22
1.18520E-02 1.84102E-22
1.23288E-02 1.70136E-22
1.28150E-02 1.57470E-22
1.33104E-02 1.45962E-22
1.38150E-02 1.35487E-22
1.43290E-02 1.25936E-22
1.48521E-02 1.17213E-22
1.53845E-02 1.09232E-22
1.59262E-02 1.01920E-22
1.64770E-02 9.52104E-23
1.70371E-02 8.90440E-23
1.76063E-02 8.33691E-23
1.81848E-02 7.81395E-23
1.87724E-02 7.33139E-23
1.93692E-02 6.88553E-23
1.99751E-02 6.47307E-23
2.05901E-02 6.09105E-23
2.12143E-02 5.73682E-23
2.18476E-02 5.40797E-23
2.24900E-02 5.10237E-23
2.31415E-02 4.81805E-23
2.38021E-02 4.55327E-23
2.44717E-02 4.30644E-23
2.51504E-02 4.07611E-23
2.58382E-02 3.86098E-23
2.65349E-02 3.65986E-23
2.72407E-02 3.47167E-23
2.79555E-02 3.29542E-23
2.86793E-02 3.13021E-23
2.94120E-02 2.97522E-23
3.01537E-02 2.82971E-23
3.09043E-02 2.69298E-23
3.16639E-02 2.56441E-23
3.24324E-02 2.44342E-23
3.32098E-02 2.32948E-23
3.39961E-02 2.22210E-23
3.47912E-02 2.12084E-23
3.55952E-02 2.02527E-23
3.64081E-02 1.93502E-23
3.72297E-02 1.84974E-23
3.80602E-02 1.76910E-23
3.88995E-02 1.69281E-23
3.97476E-02 1.62058E-23
4.06044E-02 1.55216E-23
4.14700E-02 1.48731E-23
4.23443E-02 1.42580E-23
4.32273E-02 1.36744E-23
4.41190E-02 1.31203E-23
4.50194E-02 1.25939E-23
4.59284E-02 1.20936E-23
4.68461E-02 1.16179E-23
4.87074E-02 1.07345E-23
5.06030E-02 9.93335E-24
5.25328E-02 9.20541E-24
5.44967E-02 8.54280E-24
5.64946E-02 7.93860E-24
5.85262E-02 7.38676E-24
6.05914E-02 6.88191E-24
6.26901E-02 6.41933E-24
6.48222E-02 5.99485E-24
6.69873E-02 5.60476E-24
6.91854E-02 5.24578E-24
7.14163E-02 4.91496E-24
7.36799E-02 4.60972E-24
7.59760E-02 4.32770E-24
7.83043E-02 4.06682E-24
8.06647E-02 3.82521E-24
8.30571E-02 3.60118E-24
8.54812E-02 3.39323E-24
8.79369E-02 3.19998E-24
9.04240E-02 3.02022E-24
9.29422E-02 2.85282E-24
9.54915E-02 2.69679E-24
9.80716E-02 2.55120E-24
1.00682E-01 2.41523E-24
1.03323E-01 2.28813E-24
1.05995E-01 2.16922E-24
1.08696E-01 2.05787E-24
1.11427E-01 1.95351E-24
1.14188E-01 1.85562E-24
1.16978E-01 1.76373E-24
1.19797E-01 1.67741E-24
1.22645E-01 1.59624E-24
1.25522E-01 1.51988E-24
1.28428E-01 1.44798E-24
1.31361E-01 1.38023E-24
1.34323E-01 1.31635E-24
1.37313E-01 1.25608E-24
1.40330E-01 1.19917E-24
1.43375E-01 1.14541E-24
1.46447E-01 1.09459E-24
1.49545E-01 1.04651E-24
1.52671E-01 1.00101E-24
1.55823E-01 9.57921E-25
1.59001E-01 9.17087E-25
1.62205E-01 8.78372E-25
1.65435E-01 8.41644E-25
1.68690E-01 8.06784E-25
1.71970E-01 7.73678E-25
1.75276E-01 7.42223E-25
1.78606E-01 7.12320E-25
1.81961E-01 6.83880E-25
1.85340E-01 6.56817E-25
1.88743E-01 6.31053E-25
1.92169E-01 6.06514E-25
1.95619E-01 5.83130E-25
1.99092E-01 5.60838E-25
2.02589E-01 5.39577E-25
2.06107E-01 5.19290E-25
2.09649E-01 4.99926E-25
2.13212E-01 4.81434E-25
2.16797E-01 4.63767E-25
2.20404E-01 4.46883E-25
2.24032E-01 4.30739E-25
2.27680E-01 4.15299E-25
2.31350E-01 4.00525E-25
2.35040E-01 3.86383E-25
2.38751E-01 3.72842E-25
2.42481E-01 3.59871E-25
2.46231E-01 3.47442E-25
2.50000E-01 3.35529E-25
2.53788E-01 3.24105E-25
2.57595E-01 3.13147E-25
2.61421E-01 3.02633E-25
2.65264E-01 2.92541E-25
2.69126E-01 2.82852E-25
2.73005E-01 2.73546E-25
2.76901E-01 2.64605E-25
2.80814E-01 2.56013E-25
2.84744E-01 2.47753E-25
2.88691E-01 2.39811E-25
2.92653E-01 2.32172E-25
2.96632E-01 2.24822E-25
3.00625E-01 2.17748E-25
3.04634E-01 2.10938E-25
3.08658E-01 2.04381E-25
3.12697E-01 1.98065E-25
3.16749E-01 1.91979E-25
3.20816E-01 1.86115E-25
3.24896E-01 1.80463E-25
3.28990E-01 1.75013E-25
3.33097E-01 1.69756E-25
3.37216E-01 1.64686E-25
3.41348E-01 1.59794E-25
3.45492E-01 1.55072E-25
3.49647E-01 1.50514E-25
3.53814E-01 1.46113E-25
3.57992E-01 1.41863E-25
3.62181E-01 1.37757E-25
3.66381E-01 1.33790E-25
3.70590E-01 1.29956E-25
3.74810E-01 1.26250E-25
3.79039E-01 1.22668E-25
3.83277E-01 1.19203E-25
3.87524E-01 1.15852E-25
3.91780E-01 1.12610E-25
3.96044E-01 1.09473E-25
4.00316E-01 1.06437E-25
4.04596E-01 1.03498E-25
4.08882E-01 1.00653E-25
4.13176E-01 9.78983E-26
4.17476E-01 9.52299E-26
4.21783E-01 9.26450E-26
4.26095E-01 9.01406E-26
4.30413E-01 8.77136E-26
4.34737E-01 8.53613E-26
4.39065E-01 8.30810E-26
4.43398E-01 8.08701E-26
4.47736E-01 7.87262E-26
4.52077E-01 7.66468E-26
4.56422E-01 7.46297E-26
4.60770E-01 7.26726E-26
4.65122E-01 7.07736E-26
4.69476E-01 6.89306E-26
4.73832E-01 6.71416E-26
4.78190E-01 6.54048E-26
4.82550E-01 6.37185E-26
4.86912E-01 6.20809E-26
4.91274E-01 6.04903E-26
4.95637E-01 5.89452E-26
5.00000E-01 5.74441E-26
5.04363E-01 5.59855E-26
5.08726E-01 5.45680E-26
5.13088E-01 5.31903E-26
5.17450E-01 5.18510E-26
5.21810E-01 5.05490E-26
5.26168E-01 4.92829E-26
5.30524E-01 4.80517E-26
5.34878E-01 4.68542E-26
5.39230E-01 4.56893E-26
5.43578E-01 4.45561E-26
5.47923E-01 4.34535E-26
5.52264E-01 4.23806E-26
5.56602E-01 4.13364E-26
5.60935E-01 4.03200E-26
5.65263E-01 3.93306E-26
5.69587E-01 3.83674E-26
5.73905E-01 3.74295E-26
5.78217E-01 3.65162E-26
5.82524E-01 3.56268E-26
5.86824E-01 3.47604E-26
5.91118E-01 3.39165E-26
5.95404E-01 3.30943E-26
5.99684E-01 3.22932E-26
6.03956E-01 3.15126E-26
6.08220E-01 3.07519E-26
6.12476E-01 3.00105E-26
6.16723E-01 2.92878E-26
6.20961E-01 2.85832E-26
6.25190E-01 2.78964E-26
6.29410E-01 2.72267E-26
6.33619E-01 2.65736E-26
6.37819E-01 2.59367E-26
6.42008E-01 2.53156E-26
6.46186E-01 2.47097E-26
6.50353E-01 2.41187E-26
6.54508E-01 2.35421E-26
6.58652E-01 2.29796E-26
6.62784E-01 2.24307E-26
6.66903E-01 2.18950E-26
6.71010E-01 2.13723E-26
6.75104E-01 2.08621E-26
6.79184E-01 2.03641E-26
6.83251E-01 1.98780E-26
6.87303E-01 1.94035E-26
6.91342E-01 1.89401E-26
6.95366E-01 1.84878E-26
6.99375E-01 1.80460E-26
7.03368E-01 1.76147E-26
7.07347E-01 1.71934E-26
7.11309E-01 1.67820E-26
7.15256E-01 1.63801E-26
7.19186E-01 1.59876E-26
7.23099E-01 1.56041E-26
7.26995E-01 1.52295E-26
7.30874E-01 1.48635E-26
7.34736E-01 1.45058E-26
7.38579E-01 1.41564E-26
7.42405E-01 1.38150E-26
7.46212E-01 1.34813E-26
7.50000E-01 1.31552E-26
7.53769E-01 1.28364E-26
7.57519E-01 1.25249E-26
7.61249E-01 1.22204E-26
7.64960E-01 1.19228E-26
7.68650E-01 1.16318E-26
7.72320E-01 1.13474E-26
7.75968E-01 1.10693E-26
7.79596E-01 1.07974E-26
7.83203E-01 1.05315E-26
7.86788E-01 1.02716E-26
7.90351E-01 1.00175E-26
7.93893E-01 9.76893E-27
7.97411E-01 9.52590E-27
8.00908E-01 9.28823E-27
8.04381E-01 9.05580E-27
8.07831E-01 8.82849E-27
8.11257E-01 8.60618E-27
8.14660E-01 8.38875E-27
8.18039E-01 8.17608E-27
8.21394E-01 7.96808E-27
8.24724E-01 7.76463E-27
8.28030E-01 7.56563E-27
8.31310E-01 7.37098E-27
8.34565E-01 7.18058E-27
8.37795E-01 6.99434E-27
8.40999E-01 6.81216E-27
8.44177E-01 6.63396E-27
8.47329E-01 6.45964E-27
8.50455E-01 6.28912E-27
8.53553E-01 6.12232E-27
8.56625E-01 5.95916E-27
8.59670E-01 5.79955E-27
8.62687E-01 5.64343E-27
8.65677E-01 5.49072E-27
8.68639E-01 5.34134E-27
8.71572E-01 5.19523E-27
8.74478E-01 5.05231E-27
8.77355E-01 4.91253E-27
8.80203E-01 4.77581E-27
8.83022E-01 4.64210E-27
8.85812E-01 4.51132E-27
8.88573E-01 4.38343E-27
8.91304E-01 4.25836E-27
8.94005E-01 4.13606E-27
8.96677E-01 4.01648E-27
8.99318E-01 3.89955E-27
9.01928E-01 3.78522E-27
9.04508E-01 3.67346E-27
9.07058E-01 3.56419E-27
9.09576E-01 3.45739E-27
9.12063E-01 3.35300E-27
9.14519E-01 3.25097E-27
9.16943E-01 3.15127E-27
9.19335E-01 3.05385E-27
9.21696E-01 2.95866E-27
9.24024E-01 2.86566E-27
9.26320E-01 2.77483E-27
9.28584E-01 2.68611E-27
9.30815E-01 2.59947E-27
9.33013E-01 2.51487E-27
9.35178E-01 2.43229E-27
9.37310E-01 2.35167E-27
9.39409E-01 2.27300E-27
9.41474E-01 2.19623E-27
9.43505E-01 2.12134E-27
9.45503E-01 2.04829E-27
9.47467E-01 1.97705E-27
9.49397E-01 1.90761E-27
9.51293E-01 1.83991E-27
9.53154E-01 1.77395E-27
9.54981E-01 1.70969E-27
9.56773E-01 1.64711E-27
9.58530E-01 1.58618E-27
9.60252E-01 1.52687E-27
9.61940E-01 1.46917E-27
9.63592E-01 1.41305E-27
9.65209E-01 1.35848E-27
9.66790E-01 1.30546E-27
9.68336E-01 1.25394E-27
9.69846E-01 1.20393E-27
9.71321E-01 1.15538E-27
9.72759E-01 1.10830E-27
9.74162E-01 1.06265E-27
9.75528E-01 1.01842E-27
9.76858E-01 9.75592E-28
9.78152E-01 9.34151E-28
9.79410E-01 8.94081E-28
9.80631E-01 8.55364E-28
9.81815E-01 8.17988E-28
9.82963E-01 7.81936E-28
9.84074E-01 7.47195E-28
9.85148E-01 7.13752E-28
9.86185E-01 6.81595E-28
9.87185E-01 6.50710E-28
9.88148E-01 6.21086E-28
9.89074E-01 5.92712E-28
9.89962E-01 5.65576E-28
9.90814E-01 5.39670E-28
9.91627E-01 5.14982E-28
9.92404E-01 4.91503E-28
9.93143E-01 4.69225E-28
9.93844E-01 4.48140E-28
9.94508E-01 4.28238E-28
9.95134E-01 4.09513E-28
9.95722E-01 3.91959E-28
9.96273E-01 3.75567E-28
9.96786E-01 3.60332E-28
9.97261E-01 3.46248E-28
9.97698E-01 3.33310E-28
9.98097E-01 3.21514E-28
9.98459E-01 3.10854E-28
9.98782E-01 3.01327E-28
9.99067E-01 2.92929E-28
9.99315E-01 2.85657E-28
9.99524E-01 2.79508E-28
9.99695E-01 2.74481E-28
9.99829E-01 2.70573E-28
9.99924E-01 2.67782E-28
9.99981E-01 2.66108E-28
1.00000E+00 2.65550E-28
