 #
 # Subroutine ELSEPA. Elastic scattering of electrons and positrons
 #                    by neutral atoms and positive ions
 #
 # Projectile: electron
 # Kinetic energy = 1.50000E+06 eV = 5.51240E+04 a.u.
 #
 # WARNING: High-energy factorization with free-atom DF screening.
 #          Absorption, polarization and exchange corrections are
 #          switched off.
 #          Phase shifts are calculated for the bare nucleus.
 #          Scattering amplitudes are not evaluated.
 #
 # Element: Ni,  Z =  28,  atomic weight = 5.86934E+01 g/mol
 #
 # Nuclear model: Fermi distribution
 #                Average radius = 4.15828E-13 cm
 #                Skin thickness = 5.46000E-14 cm
 #
 # Number of electrons = 28
 #
 # Total elastic cross section = 2.10991E-18 cm**2 = 7.53461E-02 a0**2
 # 1st transport cross section = 2.86470E-22 cm**2 = 1.02300E-05 a0**2
 # 2nd transport cross section = 8.00278E-22 cm**2 = 2.85784E-05 a0**2
 #
 #
 # Differential cross section:                       MU=(1-COS(THETA))/2
 #
 #  THETA        MU          DCS          DCS        Sherman      error
 #  (deg)                 (cm**2/sr)   (a0**2/sr)    function
 #----------------------------------------------------------------------
0.00000E+00 6.60007E-14
7.61557E-13 6.60007E-14
1.18994E-12 6.60006E-14
1.71346E-12 6.60006E-14
2.33225E-12 6.60005E-14
3.04617E-12 6.60005E-14
3.85530E-12 6.60004E-14
4.75964E-12 6.60003E-14
5.75917E-12 6.60003E-14
6.85391E-12 6.60002E-14
8.04379E-12 6.60001E-14
9.32893E-12 6.60000E-14
1.07092E-11 6.59999E-14
1.21847E-11 6.59997E-14
1.37554E-11 6.59996E-14
1.54213E-11 6.59995E-14
1.71823E-11 6.59993E-14
1.90386E-11 6.59992E-14
2.09900E-11 6.59990E-14
2.30367E-11 6.59988E-14
2.51785E-11 6.59987E-14
2.74156E-11 6.59985E-14
2.97478E-11 6.59983E-14
3.21752E-11 6.59981E-14
3.46979E-11 6.59979E-14
3.73157E-11 6.59976E-14
4.00286E-11 6.59974E-14
4.28368E-11 6.59972E-14
4.57402E-11 6.59969E-14
4.87388E-11 6.59967E-14
5.18325E-11 6.59964E-14
5.50215E-11 6.59962E-14
5.83057E-11 6.59959E-14
6.16850E-11 6.59956E-14
6.51595E-11 6.59953E-14
6.87293E-11 6.59950E-14
7.23943E-11 6.59947E-14
7.61544E-11 6.59944E-14
1.18991E-10 6.59908E-14
1.71347E-10 6.59863E-14
2.33223E-10 6.59811E-14
3.04617E-10 6.59750E-14
3.85531E-10 6.59681E-14
4.75965E-10 6.59604E-14
5.75917E-10 6.59519E-14
6.85389E-10 6.59426E-14
8.04380E-10 6.59325E-14
9.32891E-10 6.59215E-14
1.07092E-09 6.59098E-14
1.21847E-09 6.58972E-14
1.37554E-09 6.58839E-14
1.54213E-09 6.58697E-14
1.71823E-09 6.58547E-14
1.90386E-09 6.58389E-14
2.09900E-09 6.58223E-14
2.30367E-09 6.58049E-14
2.51785E-09 6.57867E-14
2.74156E-09 6.57677E-14
2.97478E-09 6.57479E-14
3.21752E-09 6.57273E-14
3.46978E-09 6.57059E-14
3.73156E-09 6.56837E-14
4.00286E-09 6.56607E-14
4.28368E-09 6.56369E-14
4.57402E-09 6.56123E-14
4.87388E-09 6.55869E-14
5.18326E-09 6.55607E-14
5.50215E-09 6.55338E-14
5.83057E-09 6.55060E-14
6.16850E-09 6.54775E-14
6.51596E-09 6.54482E-14
6.87293E-09 6.54180E-14
7.23942E-09 6.53872E-14
7.61544E-09 6.53555E-14
1.18991E-08 6.49966E-14
1.71347E-08 6.45622E-14
2.33223E-08 6.40549E-14
3.04617E-08 6.34776E-14
3.85531E-08 6.28337E-14
4.75965E-08 6.21266E-14
5.75917E-08 6.13605E-14
6.85389E-08 6.05347E-14
8.04380E-08 5.96611E-14
9.32891E-08 5.87474E-14
1.07092E-07 5.77810E-14
1.21847E-07 5.67827E-14
1.37554E-07 5.57578E-14
1.54213E-07 5.46906E-14
1.71823E-07 5.36085E-14
1.90386E-07 5.25093E-14
2.09900E-07 5.13837E-14
2.30367E-07 5.02568E-14
2.51785E-07 4.91197E-14
2.74156E-07 4.79722E-14
2.97478E-07 4.68346E-14
3.21752E-07 4.56917E-14
3.46978E-07 4.45532E-14
3.73156E-07 4.34330E-14
4.00286E-07 4.23109E-14
4.28368E-07 4.12056E-14
4.57402E-07 4.01247E-14
4.87388E-07 3.90437E-14
5.18325E-07 3.79894E-14
5.50215E-07 3.69596E-14
5.83057E-07 3.59381E-14
6.16850E-07 3.49465E-14
6.51596E-07 3.39779E-14
6.87293E-07 3.30251E-14
7.23942E-07 3.21031E-14
7.61543E-07 3.12019E-14
1.18991E-06 2.34882E-14
1.71347E-06 1.78919E-14
2.33223E-06 1.38863E-14
3.04617E-06 1.09848E-14
3.85531E-06 8.83740E-15
4.75964E-06 7.20550E-15
5.75916E-06 5.93943E-15
6.85388E-06 4.88118E-15
8.04378E-06 4.07319E-15
9.32888E-06 3.46576E-15
1.07092E-05 2.90445E-15
1.21846E-05 2.46373E-15
1.37553E-05 2.11589E-15
1.54212E-05 1.79421E-15
1.71822E-05 1.53963E-15
1.90385E-05 1.32887E-15
2.09899E-05 1.14152E-15
2.30365E-05 9.89436E-16
2.51783E-05 8.59772E-16
2.74153E-05 7.47033E-16
2.97475E-05 6.53620E-16
3.21749E-05 5.72607E-16
3.46974E-05 5.02947E-16
3.73152E-05 4.44242E-16
4.00281E-05 3.92791E-16
4.28362E-05 3.48583E-16
4.57395E-05 3.10752E-16
4.87380E-05 2.77346E-16
5.18317E-05 2.48484E-16
5.50205E-05 2.23400E-16
5.83045E-05 2.01236E-16
6.16838E-05 1.81880E-16
6.51582E-05 1.64849E-16
6.87277E-05 1.49751E-16
7.23925E-05 1.36426E-16
7.61524E-05 1.24579E-16
9.21439E-05 8.85647E-17
1.09658E-04 6.49825E-17
1.28695E-04 4.89105E-17
1.49255E-04 3.76183E-17
1.71338E-04 2.94372E-17
1.94942E-04 2.33795E-17
2.20070E-04 1.88074E-17
2.46720E-04 1.52911E-17
2.74892E-04 1.25550E-17
3.04586E-04 1.03936E-17
3.35803E-04 8.67223E-18
3.68542E-04 7.28757E-18
4.02802E-04 6.16434E-18
4.38585E-04 5.24717E-18
4.75889E-04 4.49162E-18
5.14715E-04 3.86609E-18
5.55063E-04 3.34445E-18
5.96931E-04 2.90716E-18
6.40321E-04 2.53767E-18
6.85233E-04 2.22546E-18
7.31665E-04 1.96055E-18
7.79618E-04 1.73274E-18
8.29092E-04 1.53743E-18
8.80086E-04 1.36913E-18
9.32601E-04 1.22286E-18
9.86636E-04 1.09585E-18
1.04219E-03 9.84993E-19
1.09927E-03 8.87738E-19
1.15786E-03 8.02344E-19
1.21797E-03 7.26995E-19
1.27961E-03 6.60294E-19
1.34276E-03 6.01167E-19
1.40743E-03 5.48512E-19
1.47362E-03 5.01532E-19
1.54133E-03 4.59541E-19
1.61056E-03 4.21837E-19
1.68131E-03 3.87960E-19
1.75357E-03 3.57460E-19
1.82735E-03 3.29877E-19
1.90265E-03 3.04939E-19
1.97947E-03 2.82336E-19
2.05780E-03 2.61780E-19
2.13765E-03 2.43087E-19
2.21902E-03 2.26040E-19
2.30190E-03 2.10460E-19
2.38630E-03 1.96217E-19
2.47222E-03 1.83159E-19
2.55965E-03 1.71173E-19
2.64859E-03 1.60164E-19
2.73905E-03 1.50022E-19
2.83103E-03 1.40675E-19
2.92452E-03 1.32054E-19
3.01952E-03 1.24077E-19
3.11604E-03 1.16699E-19
3.21407E-03 1.09868E-19
3.31362E-03 1.03524E-19
3.41468E-03 9.76365E-20
3.51725E-03 9.21647E-20
3.62133E-03 8.70677E-20
3.72692E-03 8.23228E-20
3.83403E-03 7.78972E-20
3.94265E-03 7.37640E-20
4.05278E-03 6.99049E-20
4.16442E-03 6.62938E-20
4.27757E-03 6.29131E-20
4.39223E-03 5.97480E-20
4.50840E-03 5.67776E-20
4.62608E-03 5.39906E-20
4.74527E-03 5.13746E-20
4.86597E-03 4.89130E-20
4.98817E-03 4.65986E-20
5.11188E-03 4.44207E-20
5.23711E-03 4.23670E-20
5.36383E-03 4.04321E-20
5.49207E-03 3.86068E-20
5.62181E-03 3.68826E-20
5.75306E-03 3.52547E-20
5.88581E-03 3.37156E-20
6.02007E-03 3.22594E-20
6.15583E-03 3.08818E-20
6.29310E-03 2.95766E-20
6.43187E-03 2.83398E-20
6.57214E-03 2.71677E-20
6.71392E-03 2.60550E-20
6.85720E-03 2.49991E-20
7.00198E-03 2.39967E-20
7.14827E-03 2.30434E-20
7.29605E-03 2.21374E-20
7.44534E-03 2.12759E-20
7.59612E-03 2.04555E-20
7.97965E-03 1.85720E-20
8.37255E-03 1.69010E-20
8.77480E-03 1.54142E-20
9.18641E-03 1.40877E-20
9.60736E-03 1.29011E-20
1.00376E-02 1.18373E-20
1.04773E-02 1.08812E-20
1.09262E-02 1.00201E-20
1.13844E-02 9.24269E-21
1.18520E-02 8.53949E-21
1.23288E-02 7.90214E-21
1.28150E-02 7.32334E-21
1.33104E-02 6.79674E-21
1.38150E-02 6.31680E-21
1.43290E-02 5.87864E-21
1.48521E-02 5.47797E-21
1.53845E-02 5.11099E-21
1.59262E-02 4.77435E-21
1.64770E-02 4.46509E-21
1.70371E-02 4.18057E-21
1.76063E-02 3.91844E-21
1.81848E-02 3.67663E-21
1.87724E-02 3.45326E-21
1.93692E-02 3.24668E-21
1.99751E-02 3.05539E-21
2.05901E-02 2.87804E-21
2.12143E-02 2.71344E-21
2.18476E-02 2.56049E-21
2.24900E-02 2.41821E-21
2.31415E-02 2.28573E-21
2.38021E-02 2.16224E-21
2.44717E-02 2.04702E-21
2.51504E-02 1.93941E-21
2.58382E-02 1.83882E-21
2.65349E-02 1.74469E-21
2.72407E-02 1.65655E-21
2.79555E-02 1.57392E-21
2.86793E-02 1.49641E-21
2.94120E-02 1.42364E-21
3.01537E-02 1.35526E-21
3.09043E-02 1.29096E-21
3.16639E-02 1.23045E-21
3.24324E-02 1.17346E-21
3.32098E-02 1.11975E-21
3.39961E-02 1.06909E-21
3.47912E-02 1.02128E-21
3.55952E-02 9.76124E-22
3.64081E-02 9.33452E-22
3.72297E-02 8.93099E-22
3.80602E-02 8.54914E-22
3.88995E-02 8.18759E-22
3.97476E-02 7.84505E-22
4.06044E-02 7.52033E-22
4.14700E-02 7.21233E-22
4.23443E-02 6.92001E-22
4.32273E-02 6.64244E-22
4.41190E-02 6.37871E-22
4.50194E-02 6.12801E-22
4.59284E-02 5.88956E-22
4.68461E-02 5.66267E-22
4.87074E-02 5.24088E-22
5.06030E-02 4.85782E-22
5.25328E-02 4.50929E-22
5.44967E-02 4.19161E-22
5.64946E-02 3.90154E-22
5.85262E-02 3.63624E-22
6.05914E-02 3.39321E-22
6.26901E-02 3.17023E-22
6.48222E-02 2.96534E-22
6.69873E-02 2.77681E-22
6.91854E-02 2.60308E-22
7.14163E-02 2.44277E-22
7.36799E-02 2.29466E-22
7.59760E-02 2.15764E-22
7.83043E-02 2.03073E-22
8.06647E-02 1.91304E-22
8.30571E-02 1.80378E-22
8.54812E-02 1.70223E-22
8.79369E-02 1.60774E-22
9.04240E-02 1.51973E-22
9.29422E-02 1.43767E-22
9.54915E-02 1.36108E-22
9.80716E-02 1.28954E-22
1.00682E-01 1.22263E-22
1.03323E-01 1.16002E-22
1.05995E-01 1.10136E-22
1.08696E-01 1.04637E-22
1.11427E-01 9.94764E-23
1.14188E-01 9.46301E-23
1.16978E-01 9.00751E-23
1.19797E-01 8.57907E-23
1.22645E-01 8.17576E-23
1.25522E-01 7.79584E-23
1.28428E-01 7.43769E-23
1.31361E-01 7.09982E-23
1.34323E-01 6.78087E-23
1.37313E-01 6.47957E-23
1.40330E-01 6.19476E-23
1.43375E-01 5.92537E-23
1.46447E-01 5.67040E-23
1.49545E-01 5.42894E-23
1.52671E-01 5.20012E-23
1.55823E-01 4.98317E-23
1.59001E-01 4.77734E-23
1.62205E-01 4.58197E-23
1.65435E-01 4.39641E-23
1.68690E-01 4.22008E-23
1.71970E-01 4.05243E-23
1.75276E-01 3.89296E-23
1.78606E-01 3.74118E-23
1.81961E-01 3.59666E-23
1.85340E-01 3.45898E-23
1.88743E-01 3.32776E-23
1.92169E-01 3.20263E-23
1.95619E-01 3.08327E-23
1.99092E-01 2.96934E-23
2.02589E-01 2.86056E-23
2.06107E-01 2.75665E-23
2.09649E-01 2.65736E-23
2.13212E-01 2.56243E-23
2.16797E-01 2.47163E-23
2.20404E-01 2.38476E-23
2.24032E-01 2.30161E-23
2.27680E-01 2.22199E-23
2.31350E-01 2.14573E-23
2.35040E-01 2.07265E-23
2.38751E-01 2.00259E-23
2.42481E-01 1.93541E-23
2.46231E-01 1.87097E-23
2.50000E-01 1.80913E-23
2.53788E-01 1.74977E-23
2.57595E-01 1.69277E-23
2.61421E-01 1.63802E-23
2.65264E-01 1.58541E-23
2.69126E-01 1.53485E-23
2.73005E-01 1.48623E-23
2.76901E-01 1.43947E-23
2.80814E-01 1.39449E-23
2.84744E-01 1.35120E-23
2.88691E-01 1.30953E-23
2.92653E-01 1.26941E-23
2.96632E-01 1.23077E-23
3.00625E-01 1.19354E-23
3.04634E-01 1.15766E-23
3.08658E-01 1.12307E-23
3.12697E-01 1.08972E-23
3.16749E-01 1.05756E-23
3.20816E-01 1.02654E-23
3.24896E-01 9.96600E-24
3.28990E-01 9.67704E-24
3.33097E-01 9.39808E-24
3.37216E-01 9.12871E-24
3.41348E-01 8.86853E-24
3.45492E-01 8.61717E-24
3.49647E-01 8.37427E-24
3.53814E-01 8.13950E-24
3.57992E-01 7.91254E-24
3.62181E-01 7.69307E-24
3.66381E-01 7.48080E-24
3.70590E-01 7.27546E-24
3.74810E-01 7.07678E-24
3.79039E-01 6.88449E-24
3.83277E-01 6.69835E-24
3.87524E-01 6.51814E-24
3.91780E-01 6.34363E-24
3.96044E-01 6.17460E-24
4.00316E-01 6.01085E-24
4.04596E-01 5.85219E-24
4.08882E-01 5.69843E-24
4.13176E-01 5.54938E-24
4.17476E-01 5.40489E-24
4.21783E-01 5.26478E-24
4.26095E-01 5.12889E-24
4.30413E-01 4.99708E-24
4.34737E-01 4.86920E-24
4.39065E-01 4.74512E-24
4.43398E-01 4.62469E-24
4.47736E-01 4.50780E-24
4.52077E-01 4.39432E-24
4.56422E-01 4.28413E-24
4.60770E-01 4.17712E-24
4.65122E-01 4.07318E-24
4.69476E-01 3.97222E-24
4.73832E-01 3.87411E-24
4.78190E-01 3.77879E-24
4.82550E-01 3.68614E-24
4.86912E-01 3.59608E-24
4.91274E-01 3.50853E-24
4.95637E-01 3.42340E-24
5.00000E-01 3.34061E-24
5.04363E-01 3.26010E-24
5.08726E-01 3.18178E-24
5.13088E-01 3.10559E-24
5.17450E-01 3.03145E-24
5.21810E-01 2.95931E-24
5.26168E-01 2.88910E-24
5.30524E-01 2.82075E-24
5.34878E-01 2.75422E-24
5.39230E-01 2.68944E-24
5.43578E-01 2.62636E-24
5.47923E-01 2.56493E-24
5.52264E-01 2.50510E-24
5.56602E-01 2.44682E-24
5.60935E-01 2.39004E-24
5.65263E-01 2.33472E-24
5.69587E-01 2.28081E-24
5.73905E-01 2.22827E-24
5.78217E-01 2.17706E-24
5.82524E-01 2.12715E-24
5.86824E-01 2.07849E-24
5.91118E-01 2.03104E-24
5.95404E-01 1.98478E-24
5.99684E-01 1.93966E-24
6.03956E-01 1.89566E-24
6.08220E-01 1.85274E-24
6.12476E-01 1.81088E-24
6.16723E-01 1.77003E-24
6.20961E-01 1.73018E-24
6.25190E-01 1.69129E-24
6.29410E-01 1.65334E-24
6.33619E-01 1.61630E-24
6.37819E-01 1.58015E-24
6.42008E-01 1.54486E-24
6.46186E-01 1.51041E-24
6.50353E-01 1.47677E-24
6.54508E-01 1.44393E-24
6.58652E-01 1.41186E-24
6.62784E-01 1.38054E-24
6.66903E-01 1.34996E-24
6.71010E-01 1.32008E-24
6.75104E-01 1.29089E-24
6.79184E-01 1.26238E-24
6.83251E-01 1.23453E-24
6.87303E-01 1.20732E-24
6.91342E-01 1.18073E-24
6.95366E-01 1.15474E-24
6.99375E-01 1.12935E-24
7.03368E-01 1.10453E-24
7.07347E-01 1.08027E-24
7.11309E-01 1.05656E-24
7.15256E-01 1.03338E-24
7.19186E-01 1.01072E-24
7.23099E-01 9.88568E-25
7.26995E-01 9.66908E-25
7.30874E-01 9.45730E-25
7.34736E-01 9.25020E-25
7.38579E-01 9.04769E-25
7.42405E-01 8.84963E-25
7.46212E-01 8.65593E-25
7.50000E-01 8.46648E-25
7.53769E-01 8.28117E-25
7.57519E-01 8.09991E-25
7.61249E-01 7.92260E-25
7.64960E-01 7.74915E-25
7.68650E-01 7.57946E-25
7.72320E-01 7.41344E-25
7.75968E-01 7.25101E-25
7.79596E-01 7.09208E-25
7.83203E-01 6.93657E-25
7.86788E-01 6.78441E-25
7.90351E-01 6.63550E-25
7.93893E-01 6.48979E-25
7.97411E-01 6.34719E-25
8.00908E-01 6.20764E-25
8.04381E-01 6.07107E-25
8.07831E-01 5.93740E-25
8.11257E-01 5.80658E-25
8.14660E-01 5.67854E-25
8.18039E-01 5.55322E-25
8.21394E-01 5.43056E-25
8.24724E-01 5.31049E-25
8.28030E-01 5.19297E-25
8.31310E-01 5.07794E-25
8.34565E-01 4.96534E-25
8.37795E-01 4.85512E-25
8.40999E-01 4.74723E-25
8.44177E-01 4.64163E-25
8.47329E-01 4.53826E-25
8.50455E-01 4.43707E-25
8.53553E-01 4.33802E-25
8.56625E-01 4.24107E-25
8.59670E-01 4.14617E-25
8.62687E-01 4.05328E-25
8.65677E-01 3.96236E-25
8.68639E-01 3.87337E-25
8.71572E-01 3.78626E-25
8.74478E-01 3.70101E-25
8.77355E-01 3.61758E-25
8.80203E-01 3.53592E-25
8.83022E-01 3.45601E-25
8.85812E-01 3.37781E-25
8.88573E-01 3.30128E-25
8.91304E-01 3.22640E-25
8.94005E-01 3.15313E-25
8.96677E-01 3.08144E-25
8.99318E-01 3.01131E-25
9.01928E-01 2.94270E-25
9.04508E-01 2.87558E-25
9.07058E-01 2.80994E-25
9.09576E-01 2.74573E-25
9.12063E-01 2.68294E-25
9.14519E-01 2.62154E-25
9.16943E-01 2.56150E-25
9.19335E-01 2.50280E-25
9.21696E-01 2.44542E-25
9.24024E-01 2.38933E-25
9.26320E-01 2.33452E-25
9.28584E-01 2.28096E-25
9.30815E-01 2.22862E-25
9.33013E-01 2.17750E-25
9.35178E-01 2.12756E-25
9.37310E-01 2.07879E-25
9.39409E-01 2.03117E-25
9.41474E-01 1.98469E-25
9.43505E-01 1.93932E-25
9.45503E-01 1.89504E-25
9.47467E-01 1.85185E-25
9.49397E-01 1.80972E-25
9.51293E-01 1.76864E-25
9.53154E-01 1.72859E-25
9.54981E-01 1.68956E-25
9.56773E-01 1.65153E-25
9.58530E-01 1.61449E-25
9.60252E-01 1.57842E-25
9.61940E-01 1.54331E-25
9.63592E-01 1.50915E-25
9.65209E-01 1.47593E-25
9.66790E-01 1.44363E-25
9.68336E-01 1.41225E-25
9.69846E-01 1.38176E-25
9.71321E-01 1.35216E-25
9.72759E-01 1.32344E-25
9.74162E-01 1.29559E-25
9.75528E-01 1.26859E-25
9.76858E-01 1.24244E-25
9.78152E-01 1.21713E-25
9.79410E-01 1.19265E-25
9.80631E-01 1.16900E-25
9.81815E-01 1.14615E-25
9.82963E-01 1.12410E-25
9.84074E-01 1.10286E-25
9.85148E-01 1.08240E-25
9.86185E-01 1.06272E-25
9.87185E-01 1.04382E-25
9.88148E-01 1.02568E-25
9.89074E-01 1.00831E-25
9.89962E-01 9.91689E-26
9.90814E-01 9.75819E-26
9.91627E-01 9.60692E-26
9.92404E-01 9.46304E-26
9.93143E-01 9.32649E-26
9.93844E-01 9.19723E-26
9.94508E-01 9.07520E-26
9.95134E-01 8.96038E-26
9.95722E-01 8.85271E-26
9.96273E-01 8.75216E-26
9.96786E-01 8.65870E-26
9.97261E-01 8.57229E-26
9.97698E-01 8.49290E-26
9.98097E-01 8.42050E-26
9.98459E-01 8.35508E-26
9.98782E-01 8.29660E-26
9.99067E-01 8.24506E-26
9.99315E-01 8.20042E-26
9.99524E-01 8.16267E-26
9.99695E-01 8.13180E-26
9.99829E-01 8.10781E-26
9.99924E-01 8.09067E-26
9.99981E-01 8.08040E-26
1.00000E+00 8.07696E-26
