 #
 # Subroutine ELSEPA. Elastic scattering of electrons and positrons
 #                    by neutral atoms and positive ions
 #
 # Projectile: electron
 # Kinetic energy = 1.75000E+06 eV = 6.43113E+04 a.u.
 #
 # WARNING: High-energy factorization with free-atom DF screening.
 #          Absorption, polarization and exchange corrections are
 #          switched off.
 #          Phase shifts are calculated for the bare nucleus.
 #          Scattering amplitudes are not evaluated.
 #
 # Element: Ni,  Z =  28,  atomic weight = 5.86934E+01 g/mol
 #
 # Nuclear model: Fermi distribution
 #                Average radius = 4.15828E-13 cm
 #                Skin thickness = 5.46000E-14 cm
 #
 # Number of electrons = 28
 #
 # Total elastic cross section = 2.07953E-18 cm**2 = 7.42613E-02 a0**2
 # 1st transport cross section = 2.25560E-22 cm**2 = 8.05489E-06 a0**2
 # 2nd transport cross section = 6.31643E-22 cm**2 = 2.25564E-05 a0**2
 #
 #
 # Differential cross section:                       MU=(1-COS(THETA))/2
 #
 #  THETA        MU          DCS          DCS        Sherman      error
 #  (deg)                 (cm**2/sr)   (a0**2/sr)    function
 #----------------------------------------------------------------------
0.00000E+00 8.34306E-14
7.61557E-13 8.34306E-14
1.18994E-12 8.34305E-14
1.71346E-12 8.34305E-14
2.33225E-12 8.34304E-14
3.04617E-12 8.34303E-14
3.85530E-12 8.34302E-14
4.75964E-12 8.34300E-14
5.75917E-12 8.34299E-14
6.85391E-12 8.34298E-14
8.04379E-12 8.34296E-14
9.32893E-12 8.34294E-14
1.07092E-11 8.34292E-14
1.21847E-11 8.34290E-14
1.37554E-11 8.34288E-14
1.54213E-11 8.34286E-14
1.71823E-11 8.34284E-14
1.90386E-11 8.34281E-14
2.09900E-11 8.34279E-14
2.30367E-11 8.34276E-14
2.51785E-11 8.34273E-14
2.74156E-11 8.34270E-14
2.97478E-11 8.34267E-14
3.21752E-11 8.34263E-14
3.46979E-11 8.34260E-14
3.73157E-11 8.34256E-14
4.00286E-11 8.34253E-14
4.28368E-11 8.34249E-14
4.57402E-11 8.34245E-14
4.87388E-11 8.34241E-14
5.18325E-11 8.34236E-14
5.50215E-11 8.34232E-14
5.83057E-11 8.34228E-14
6.16850E-11 8.34223E-14
6.51595E-11 8.34218E-14
6.87293E-11 8.34213E-14
7.23943E-11 8.34208E-14
7.61544E-11 8.34203E-14
1.18991E-10 8.34144E-14
1.71347E-10 8.34072E-14
2.33223E-10 8.33987E-14
3.04617E-10 8.33888E-14
3.85531E-10 8.33777E-14
4.75965E-10 8.33652E-14
5.75917E-10 8.33514E-14
6.85389E-10 8.33363E-14
8.04380E-10 8.33198E-14
9.32891E-10 8.33021E-14
1.07092E-09 8.32830E-14
1.21847E-09 8.32626E-14
1.37554E-09 8.32410E-14
1.54213E-09 8.32180E-14
1.71823E-09 8.31937E-14
1.90386E-09 8.31681E-14
2.09900E-09 8.31412E-14
2.30367E-09 8.31130E-14
2.51785E-09 8.30835E-14
2.74156E-09 8.30527E-14
2.97478E-09 8.30207E-14
3.21752E-09 8.29873E-14
3.46978E-09 8.29527E-14
3.73156E-09 8.29167E-14
4.00286E-09 8.28795E-14
4.28368E-09 8.28410E-14
4.57402E-09 8.28012E-14
4.87388E-09 8.27602E-14
5.18326E-09 8.27179E-14
5.50215E-09 8.26743E-14
5.83057E-09 8.26294E-14
6.16850E-09 8.25833E-14
6.51596E-09 8.25360E-14
6.87293E-09 8.24873E-14
7.23942E-09 8.24375E-14
7.61544E-09 8.23864E-14
1.18991E-08 8.18077E-14
1.71347E-08 8.11095E-14
2.33223E-08 8.02968E-14
3.04617E-08 7.93756E-14
3.85531E-08 7.83526E-14
4.75965E-08 7.72346E-14
5.75917E-08 7.60227E-14
6.85389E-08 7.47413E-14
8.04380E-08 7.33844E-14
9.32891E-08 7.19638E-14
1.07092E-07 7.05001E-14
1.21847E-07 6.89712E-14
1.37554E-07 6.74190E-14
1.54213E-07 6.58301E-14
1.71823E-07 6.42173E-14
1.90386E-07 6.26026E-14
2.09900E-07 6.09571E-14
2.30367E-07 5.93261E-14
2.51785E-07 5.76911E-14
2.74156E-07 5.60642E-14
2.97478E-07 5.44640E-14
3.21752E-07 5.28611E-14
3.46978E-07 5.12964E-14
3.73156E-07 4.97498E-14
4.00286E-07 4.82315E-14
4.28368E-07 4.67551E-14
4.57402E-07 4.52945E-14
4.87388E-07 4.38825E-14
5.18325E-07 4.25001E-14
5.50215E-07 4.11554E-14
5.83057E-07 3.98571E-14
6.16850E-07 3.85840E-14
6.51596E-07 3.73605E-14
6.87293E-07 3.61702E-14
7.23942E-07 3.50193E-14
7.61543E-07 3.39127E-14
1.18991E-06 2.47492E-14
1.71347E-06 1.84623E-14
2.33223E-06 1.41175E-14
3.04617E-06 1.10321E-14
3.85531E-06 8.77029E-15
4.75964E-06 7.05856E-15
5.75916E-06 5.66570E-15
6.85388E-06 4.67077E-15
8.04378E-06 3.85389E-15
9.32888E-06 3.18674E-15
1.07092E-05 2.68055E-15
1.21846E-05 2.22551E-15
1.37553E-05 1.87578E-15
1.54212E-05 1.58267E-15
1.71822E-05 1.33851E-15
1.90385E-05 1.14339E-15
2.09899E-05 9.72962E-16
2.30365E-05 8.35494E-16
2.51783E-05 7.19387E-16
2.74153E-05 6.21554E-16
2.97475E-05 5.40532E-16
3.21749E-05 4.70533E-16
3.46974E-05 4.12073E-16
3.73152E-05 3.62137E-16
4.00281E-05 3.19449E-16
4.28362E-05 2.83108E-16
4.57395E-05 2.51565E-16
4.87380E-05 2.24490E-16
5.18317E-05 2.00973E-16
5.50205E-05 1.80510E-16
5.83045E-05 1.62694E-16
6.16838E-05 1.47022E-16
6.51582E-05 1.33288E-16
6.87277E-05 1.21155E-16
7.23925E-05 1.10417E-16
7.61524E-05 1.00900E-16
9.21439E-05 7.18914E-17
1.09658E-04 5.28104E-17
1.28695E-04 3.97536E-17
1.49255E-04 3.05154E-17
1.71338E-04 2.38241E-17
1.94942E-04 1.88565E-17
2.20070E-04 1.51079E-17
2.46720E-04 1.22347E-17
2.74892E-04 1.00015E-17
3.04586E-04 8.24961E-18
3.35803E-04 6.85916E-18
3.68542E-04 5.74636E-18
4.02802E-04 4.84791E-18
4.38585E-04 4.11626E-18
4.75889E-04 3.51649E-18
5.14715E-04 3.02026E-18
5.55063E-04 2.60980E-18
5.96931E-04 2.26616E-18
6.40321E-04 1.97704E-18
6.85233E-04 1.73306E-18
7.31665E-04 1.52505E-18
7.79618E-04 1.34770E-18
8.29092E-04 1.19538E-18
8.80086E-04 1.06406E-18
9.32601E-04 9.50463E-19
9.86636E-04 8.51552E-19
1.04219E-03 7.65335E-19
1.09927E-03 6.89779E-19
1.15786E-03 6.23374E-19
1.21797E-03 5.64854E-19
1.27961E-03 5.13024E-19
1.34276E-03 4.67080E-19
1.40743E-03 4.26173E-19
1.47362E-03 3.89675E-19
1.54133E-03 3.57042E-19
1.61056E-03 3.27743E-19
1.68131E-03 3.01428E-19
1.75357E-03 2.77701E-19
1.82735E-03 2.56277E-19
1.90265E-03 2.36900E-19
1.97947E-03 2.19311E-19
2.05780E-03 2.03346E-19
2.13765E-03 1.88805E-19
2.21902E-03 1.75547E-19
2.30190E-03 1.63444E-19
2.38630E-03 1.52359E-19
2.47222E-03 1.42210E-19
2.55965E-03 1.32890E-19
2.64859E-03 1.24324E-19
2.73905E-03 1.16444E-19
2.83103E-03 1.09173E-19
2.92452E-03 1.02468E-19
3.01952E-03 9.62680E-20
3.11604E-03 9.05320E-20
3.21407E-03 8.52202E-20
3.31362E-03 8.02892E-20
3.41468E-03 7.57140E-20
3.51725E-03 7.14586E-20
3.62133E-03 6.74993E-20
3.72692E-03 6.38123E-20
3.83403E-03 6.03718E-20
3.94265E-03 5.71627E-20
4.05278E-03 5.41630E-20
4.16442E-03 5.13582E-20
4.27757E-03 4.87339E-20
4.39223E-03 4.62739E-20
4.50840E-03 4.39689E-20
4.62608E-03 4.18049E-20
4.74527E-03 3.97730E-20
4.86597E-03 3.78637E-20
4.98817E-03 3.60670E-20
5.11188E-03 3.43767E-20
5.23711E-03 3.27838E-20
5.36383E-03 3.12824E-20
5.49207E-03 2.98666E-20
5.62181E-03 2.85294E-20
5.75306E-03 2.72671E-20
5.88581E-03 2.60735E-20
6.02007E-03 2.49447E-20
6.15583E-03 2.38768E-20
6.29310E-03 2.28651E-20
6.43187E-03 2.19069E-20
6.57214E-03 2.09982E-20
6.71392E-03 2.01363E-20
6.85720E-03 1.93185E-20
7.00198E-03 1.85416E-20
7.14827E-03 1.78037E-20
7.29605E-03 1.71020E-20
7.44534E-03 1.64348E-20
7.59612E-03 1.57999E-20
7.97965E-03 1.43419E-20
8.37255E-03 1.30487E-20
8.77480E-03 1.18984E-20
9.18641E-03 1.08725E-20
9.60736E-03 9.95507E-21
1.00376E-02 9.13270E-21
1.04773E-02 8.39377E-21
1.09262E-02 7.72832E-21
1.13844E-02 7.12774E-21
1.18520E-02 6.58458E-21
1.23288E-02 6.09237E-21
1.28150E-02 5.64546E-21
1.33104E-02 5.23895E-21
1.38150E-02 4.86850E-21
1.43290E-02 4.53036E-21
1.48521E-02 4.22119E-21
1.53845E-02 3.93805E-21
1.59262E-02 3.67836E-21
1.64770E-02 3.43981E-21
1.70371E-02 3.22038E-21
1.76063E-02 3.01824E-21
1.81848E-02 2.83179E-21
1.87724E-02 2.65958E-21
1.93692E-02 2.50032E-21
1.99751E-02 2.35287E-21
2.05901E-02 2.21617E-21
2.12143E-02 2.08931E-21
2.18476E-02 1.97144E-21
2.24900E-02 1.86181E-21
2.31415E-02 1.75973E-21
2.38021E-02 1.66458E-21
2.44717E-02 1.57582E-21
2.51504E-02 1.49292E-21
2.58382E-02 1.41542E-21
2.65349E-02 1.34292E-21
2.72407E-02 1.27503E-21
2.79555E-02 1.21139E-21
2.86793E-02 1.15170E-21
2.94120E-02 1.09565E-21
3.01537E-02 1.04299E-21
3.09043E-02 9.93479E-22
3.16639E-02 9.46883E-22
3.24324E-02 9.03001E-22
3.32098E-02 8.61645E-22
3.39961E-02 8.22643E-22
3.47912E-02 7.85834E-22
3.55952E-02 7.51071E-22
3.64081E-02 7.18220E-22
3.72297E-02 6.87155E-22
3.80602E-02 6.57761E-22
3.88995E-02 6.29929E-22
3.97476E-02 6.03562E-22
4.06044E-02 5.78567E-22
4.14700E-02 5.54860E-22
4.23443E-02 5.32361E-22
4.32273E-02 5.10996E-22
4.41190E-02 4.90698E-22
4.50194E-02 4.71403E-22
4.59284E-02 4.53052E-22
4.68461E-02 4.35590E-22
4.87074E-02 4.03130E-22
5.06030E-02 3.73652E-22
5.25328E-02 3.46832E-22
5.44967E-02 3.22387E-22
5.64946E-02 3.00067E-22
5.85262E-02 2.79654E-22
6.05914E-02 2.60954E-22
6.26901E-02 2.43799E-22
6.48222E-02 2.28035E-22
6.69873E-02 2.13530E-22
6.91854E-02 2.00164E-22
7.14163E-02 1.87832E-22
7.36799E-02 1.76437E-22
7.59760E-02 1.65897E-22
7.83043E-02 1.56134E-22
8.06647E-02 1.47081E-22
8.30571E-02 1.38676E-22
8.54812E-02 1.30864E-22
8.79369E-02 1.23596E-22
9.04240E-02 1.16826E-22
9.29422E-02 1.10515E-22
9.54915E-02 1.04624E-22
9.80716E-02 9.91212E-23
1.00682E-01 9.39755E-23
1.03323E-01 8.91597E-23
1.05995E-01 8.46485E-23
1.08696E-01 8.04190E-23
1.11427E-01 7.64502E-23
1.14188E-01 7.27231E-23
1.16978E-01 6.92201E-23
1.19797E-01 6.59252E-23
1.22645E-01 6.28237E-23
1.25522E-01 5.99021E-23
1.28428E-01 5.71479E-23
1.31361E-01 5.45498E-23
1.34323E-01 5.20971E-23
1.37313E-01 4.97803E-23
1.40330E-01 4.75903E-23
1.43375E-01 4.55189E-23
1.46447E-01 4.35584E-23
1.49545E-01 4.17018E-23
1.52671E-01 3.99424E-23
1.55823E-01 3.82743E-23
1.59001E-01 3.66918E-23
1.62205E-01 3.51897E-23
1.65435E-01 3.37631E-23
1.68690E-01 3.24074E-23
1.71970E-01 3.11185E-23
1.75276E-01 2.98925E-23
1.78606E-01 2.87257E-23
1.81961E-01 2.76147E-23
1.85340E-01 2.65563E-23
1.88743E-01 2.55476E-23
1.92169E-01 2.45857E-23
1.95619E-01 2.36681E-23
1.99092E-01 2.27924E-23
2.02589E-01 2.19562E-23
2.06107E-01 2.11575E-23
2.09649E-01 2.03943E-23
2.13212E-01 1.96646E-23
2.16797E-01 1.89668E-23
2.20404E-01 1.82991E-23
2.24032E-01 1.76600E-23
2.27680E-01 1.70481E-23
2.31350E-01 1.64620E-23
2.35040E-01 1.59003E-23
2.38751E-01 1.53620E-23
2.42481E-01 1.48457E-23
2.46231E-01 1.43505E-23
2.50000E-01 1.38753E-23
2.53788E-01 1.34191E-23
2.57595E-01 1.29811E-23
2.61421E-01 1.25604E-23
2.65264E-01 1.21562E-23
2.69126E-01 1.17677E-23
2.73005E-01 1.13941E-23
2.76901E-01 1.10348E-23
2.80814E-01 1.06892E-23
2.84744E-01 1.03567E-23
2.88691E-01 1.00365E-23
2.92653E-01 9.72826E-24
2.96632E-01 9.43138E-24
3.00625E-01 9.14536E-24
3.04634E-01 8.86974E-24
3.08658E-01 8.60406E-24
3.12697E-01 8.34790E-24
3.16749E-01 8.10086E-24
3.20816E-01 7.86254E-24
3.24896E-01 7.63259E-24
3.28990E-01 7.41064E-24
3.33097E-01 7.19639E-24
3.37216E-01 6.98949E-24
3.41348E-01 6.78967E-24
3.45492E-01 6.59662E-24
3.49647E-01 6.41008E-24
3.53814E-01 6.22979E-24
3.57992E-01 6.05549E-24
3.62181E-01 5.88696E-24
3.66381E-01 5.72396E-24
3.70590E-01 5.56628E-24
3.74810E-01 5.41372E-24
3.79039E-01 5.26608E-24
3.83277E-01 5.12316E-24
3.87524E-01 4.98480E-24
3.91780E-01 4.85081E-24
3.96044E-01 4.72104E-24
4.00316E-01 4.59533E-24
4.04596E-01 4.47353E-24
4.08882E-01 4.35549E-24
4.13176E-01 4.24107E-24
4.17476E-01 4.13016E-24
4.21783E-01 4.02261E-24
4.26095E-01 3.91830E-24
4.30413E-01 3.81713E-24
4.34737E-01 3.71898E-24
4.39065E-01 3.62375E-24
4.43398E-01 3.53132E-24
4.47736E-01 3.44161E-24
4.52077E-01 3.35453E-24
4.56422E-01 3.26997E-24
4.60770E-01 3.18785E-24
4.65122E-01 3.10809E-24
4.69476E-01 3.03062E-24
4.73832E-01 2.95534E-24
4.78190E-01 2.88220E-24
4.82550E-01 2.81111E-24
4.86912E-01 2.74202E-24
4.91274E-01 2.67485E-24
4.95637E-01 2.60954E-24
5.00000E-01 2.54603E-24
5.04363E-01 2.48427E-24
5.08726E-01 2.42419E-24
5.13088E-01 2.36575E-24
5.17450E-01 2.30888E-24
5.21810E-01 2.25355E-24
5.26168E-01 2.19969E-24
5.30524E-01 2.14728E-24
5.34878E-01 2.09625E-24
5.39230E-01 2.04657E-24
5.43578E-01 1.99820E-24
5.47923E-01 1.95109E-24
5.52264E-01 1.90521E-24
5.56602E-01 1.86052E-24
5.60935E-01 1.81698E-24
5.65263E-01 1.77457E-24
5.69587E-01 1.73324E-24
5.73905E-01 1.69296E-24
5.78217E-01 1.65370E-24
5.82524E-01 1.61543E-24
5.86824E-01 1.57813E-24
5.91118E-01 1.54176E-24
5.95404E-01 1.50630E-24
5.99684E-01 1.47172E-24
6.03956E-01 1.43799E-24
6.08220E-01 1.40510E-24
6.12476E-01 1.37301E-24
6.16723E-01 1.34170E-24
6.20961E-01 1.31116E-24
6.25190E-01 1.28136E-24
6.29410E-01 1.25228E-24
6.33619E-01 1.22390E-24
6.37819E-01 1.19620E-24
6.42008E-01 1.16916E-24
6.46186E-01 1.14277E-24
6.50353E-01 1.11700E-24
6.54508E-01 1.09184E-24
6.58652E-01 1.06727E-24
6.62784E-01 1.04328E-24
6.66903E-01 1.01985E-24
6.71010E-01 9.96961E-25
6.75104E-01 9.74608E-25
6.79184E-01 9.52772E-25
6.83251E-01 9.31439E-25
6.87303E-01 9.10597E-25
6.91342E-01 8.90233E-25
6.95366E-01 8.70333E-25
6.99375E-01 8.50887E-25
7.03368E-01 8.31883E-25
7.07347E-01 8.13308E-25
7.11309E-01 7.95153E-25
7.15256E-01 7.77407E-25
7.19186E-01 7.60058E-25
7.23099E-01 7.43098E-25
7.26995E-01 7.26517E-25
7.30874E-01 7.10304E-25
7.34736E-01 6.94451E-25
7.38579E-01 6.78950E-25
7.42405E-01 6.63790E-25
7.46212E-01 6.48965E-25
7.50000E-01 6.34465E-25
7.53769E-01 6.20283E-25
7.57519E-01 6.06412E-25
7.61249E-01 5.92843E-25
7.64960E-01 5.79570E-25
7.68650E-01 5.66585E-25
7.72320E-01 5.53882E-25
7.75968E-01 5.41454E-25
7.79596E-01 5.29294E-25
7.83203E-01 5.17397E-25
7.86788E-01 5.05756E-25
7.90351E-01 4.94365E-25
7.93893E-01 4.83218E-25
7.97411E-01 4.72310E-25
8.00908E-01 4.61636E-25
8.04381E-01 4.51190E-25
8.07831E-01 4.40966E-25
8.11257E-01 4.30961E-25
8.14660E-01 4.21169E-25
8.18039E-01 4.11585E-25
8.21394E-01 4.02204E-25
8.24724E-01 3.93023E-25
8.28030E-01 3.84037E-25
8.31310E-01 3.75241E-25
8.34565E-01 3.66632E-25
8.37795E-01 3.58205E-25
8.40999E-01 3.49956E-25
8.44177E-01 3.41883E-25
8.47329E-01 3.33980E-25
8.50455E-01 3.26245E-25
8.53553E-01 3.18674E-25
8.56625E-01 3.11263E-25
8.59670E-01 3.04009E-25
8.62687E-01 2.96909E-25
8.65677E-01 2.89960E-25
8.68639E-01 2.83159E-25
8.71572E-01 2.76502E-25
8.74478E-01 2.69987E-25
8.77355E-01 2.63611E-25
8.80203E-01 2.57372E-25
8.83022E-01 2.51265E-25
8.85812E-01 2.45290E-25
8.88573E-01 2.39443E-25
8.91304E-01 2.33722E-25
8.94005E-01 2.28124E-25
8.96677E-01 2.22647E-25
8.99318E-01 2.17290E-25
9.01928E-01 2.12048E-25
9.04508E-01 2.06921E-25
9.07058E-01 2.01907E-25
9.09576E-01 1.97003E-25
9.12063E-01 1.92206E-25
9.14519E-01 1.87517E-25
9.16943E-01 1.82931E-25
9.19335E-01 1.78448E-25
9.21696E-01 1.74066E-25
9.24024E-01 1.69783E-25
9.26320E-01 1.65597E-25
9.28584E-01 1.61506E-25
9.30815E-01 1.57510E-25
9.33013E-01 1.53606E-25
9.35178E-01 1.49793E-25
9.37310E-01 1.46070E-25
9.39409E-01 1.42434E-25
9.41474E-01 1.38885E-25
9.43505E-01 1.35421E-25
9.45503E-01 1.32041E-25
9.47467E-01 1.28743E-25
9.49397E-01 1.25527E-25
9.51293E-01 1.22391E-25
9.53154E-01 1.19334E-25
9.54981E-01 1.16354E-25
9.56773E-01 1.13451E-25
9.58530E-01 1.10624E-25
9.60252E-01 1.07871E-25
9.61940E-01 1.05192E-25
9.63592E-01 1.02585E-25
9.65209E-01 1.00049E-25
9.66790E-01 9.75840E-26
9.68336E-01 9.51885E-26
9.69846E-01 9.28618E-26
9.71321E-01 9.06030E-26
9.72759E-01 8.84112E-26
9.74162E-01 8.62858E-26
9.75528E-01 8.42257E-26
9.76858E-01 8.22305E-26
9.78152E-01 8.02992E-26
9.79410E-01 7.84313E-26
9.80631E-01 7.66260E-26
9.81815E-01 7.48827E-26
9.82963E-01 7.32008E-26
9.84074E-01 7.15797E-26
9.85148E-01 7.00187E-26
9.86185E-01 6.85174E-26
9.87185E-01 6.70751E-26
9.88148E-01 6.56915E-26
9.89074E-01 6.43659E-26
9.89962E-01 6.30980E-26
9.90814E-01 6.18872E-26
9.91627E-01 6.07332E-26
9.92404E-01 5.96356E-26
9.93143E-01 5.85939E-26
9.93844E-01 5.76077E-26
9.94508E-01 5.66769E-26
9.95134E-01 5.58009E-26
9.95722E-01 5.49796E-26
9.96273E-01 5.42125E-26
9.96786E-01 5.34995E-26
9.97261E-01 5.28404E-26
9.97698E-01 5.22348E-26
9.98097E-01 5.16825E-26
9.98459E-01 5.11835E-26
9.98782E-01 5.07374E-26
9.99067E-01 5.03442E-26
9.99315E-01 5.00037E-26
9.99524E-01 4.97157E-26
9.99695E-01 4.94803E-26
9.99829E-01 4.92973E-26
9.99924E-01 4.91666E-26
9.99981E-01 4.90882E-26
1.00000E+00 4.90620E-26
