 #
 # Subroutine ELSEPA. Elastic scattering of electrons and positrons
 #                    by neutral atoms and positive ions
 #
 # Projectile: electron
 # Kinetic energy = 9.00000E+07 eV = 3.30744E+06 a.u.
 #
 # WARNING: High-energy factorization with free-atom DF screening.
 #          Absorption, polarization and exchange corrections are
 #          switched off.
 #          Phase shifts are calculated for the bare nucleus.
 #          Scattering amplitudes are not evaluated.
 #
 # Element: Ni,  Z =  28,  atomic weight = 5.86934E+01 g/mol
 #
 # Nuclear model: Fermi distribution
 #                Average radius = 4.15828E-13 cm
 #                Skin thickness = 5.46000E-14 cm
 #
 # Number of electrons = 28
 #
 # Total elastic cross section = 1.96947E-18 cm**2 = 7.03311E-02 a0**2
 # 1st transport cross section = 1.97018E-25 cm**2 = 7.03565E-09 a0**2
 # 2nd transport cross section = 5.84266E-25 cm**2 = 2.08645E-08 a0**2
 #
 #
 # Differential cross section:                       MU=(1-COS(THETA))/2
 #
 #  THETA        MU          DCS          DCS        Sherman      error
 #  (deg)                 (cm**2/sr)   (a0**2/sr)    function
 #----------------------------------------------------------------------
0.00000E+00 1.33699E-10
7.61557E-13 1.33412E-10
1.18994E-12 1.33252E-10
1.71346E-12 1.33056E-10
2.33225E-12 1.32825E-10
3.04617E-12 1.32560E-10
3.85530E-12 1.32261E-10
4.75964E-12 1.31927E-10
5.75917E-12 1.31560E-10
6.85391E-12 1.31161E-10
8.04379E-12 1.30728E-10
9.32893E-12 1.30264E-10
1.07092E-11 1.29769E-10
1.21847E-11 1.29242E-10
1.37554E-11 1.28686E-10
1.54213E-11 1.28100E-10
1.71823E-11 1.27486E-10
1.90386E-11 1.26844E-10
2.09900E-11 1.26174E-10
2.30367E-11 1.25478E-10
2.51785E-11 1.24757E-10
2.74156E-11 1.24011E-10
2.97478E-11 1.23236E-10
3.21752E-11 1.22438E-10
3.46979E-11 1.21621E-10
3.73157E-11 1.20785E-10
4.00286E-11 1.19931E-10
4.28368E-11 1.19062E-10
4.57402E-11 1.18164E-10
4.87388E-11 1.17245E-10
5.18325E-11 1.16313E-10
5.50215E-11 1.15369E-10
5.83057E-11 1.14414E-10
6.16850E-11 1.13449E-10
6.51595E-11 1.12460E-10
6.87293E-11 1.11454E-10
7.23943E-11 1.10441E-10
7.61544E-11 1.09422E-10
1.18991E-10 9.88536E-11
1.71347E-10 8.81335E-11
2.33223E-10 7.78295E-11
3.04617E-10 6.83558E-11
3.85531E-10 5.98751E-11
4.75965E-10 5.24335E-11
5.75917E-10 4.60042E-11
6.85389E-10 4.04784E-11
8.04380E-10 3.57498E-11
9.32891E-10 3.17103E-11
1.07092E-09 2.82428E-11
1.21847E-09 2.52610E-11
1.37554E-09 2.26877E-11
1.54213E-09 2.04469E-11
1.71823E-09 1.84916E-11
1.90386E-09 1.67766E-11
2.09900E-09 1.52580E-11
2.30367E-09 1.39129E-11
2.51785E-09 1.27149E-11
2.74156E-09 1.16400E-11
2.97478E-09 1.06085E-11
3.21752E-09 9.68990E-12
3.46978E-09 8.89263E-12
3.73156E-09 8.19732E-12
4.00286E-09 7.58816E-12
4.28368E-09 7.05212E-12
4.57402E-09 6.50231E-12
4.87388E-09 5.98549E-12
5.18326E-09 5.52908E-12
5.50215E-09 5.12453E-12
5.83057E-09 4.76466E-12
6.16850E-09 4.44345E-12
6.51596E-09 4.12248E-12
6.87293E-09 3.81672E-12
7.23942E-09 3.54302E-12
7.61544E-09 3.29729E-12
1.18991E-08 1.67155E-12
1.71347E-08 9.05765E-13
2.33223E-08 5.25212E-13
3.04617E-08 3.25230E-13
3.85531E-08 2.12998E-13
4.75965E-08 1.46151E-13
5.75917E-08 1.04149E-13
6.85389E-08 7.64697E-14
8.04380E-08 5.74992E-14
9.32891E-08 4.41037E-14
1.07092E-07 3.43784E-14
1.21847E-07 2.71740E-14
1.37554E-07 2.17427E-14
1.54213E-07 1.75786E-14
1.71823E-07 1.43520E-14
1.90386E-07 1.18235E-14
2.09900E-07 9.81903E-15
2.30367E-07 8.21728E-15
2.51785E-07 6.92555E-15
2.74156E-07 5.87505E-15
2.97478E-07 5.01311E-15
3.21752E-07 4.30447E-15
3.46978E-07 3.71692E-15
3.73156E-07 3.22484E-15
4.00286E-07 2.81250E-15
4.28368E-07 2.46308E-15
4.57402E-07 2.16668E-15
4.87388E-07 1.91361E-15
5.18325E-07 1.69640E-15
5.50215E-07 1.50945E-15
5.83057E-07 1.34737E-15
6.16850E-07 1.20670E-15
6.51596E-07 1.08393E-15
6.87293E-07 9.76448E-16
7.23942E-07 8.82064E-16
7.61543E-07 7.98779E-16
1.18991E-06 3.33334E-16
1.71347E-06 1.62998E-16
2.33223E-06 8.88610E-17
3.04617E-06 5.24560E-17
3.85531E-06 3.29116E-17
4.75964E-06 2.16710E-17
5.75916E-06 1.48408E-17
6.85388E-06 1.04993E-17
8.04378E-06 7.63432E-18
9.32888E-06 5.68258E-18
1.07092E-05 4.31620E-18
1.21846E-05 3.33671E-18
1.37553E-05 2.61986E-18
1.54212E-05 2.08552E-18
1.71822E-05 1.68069E-18
1.90385E-05 1.36940E-18
2.09899E-05 1.12713E-18
2.30365E-05 9.36114E-19
2.51783E-05 7.83862E-19
2.74153E-05 6.61310E-19
2.97475E-05 5.61784E-19
3.21749E-05 4.80296E-19
3.46974E-05 4.13070E-19
3.73152E-05 3.57218E-19
4.00281E-05 3.10503E-19
4.28362E-05 2.71187E-19
4.57395E-05 2.37902E-19
4.87380E-05 2.09569E-19
5.18317E-05 1.85329E-19
5.50205E-05 1.64493E-19
5.83045E-05 1.46504E-19
6.16838E-05 1.30909E-19
6.51582E-05 1.17337E-19
6.87277E-05 1.05481E-19
7.23925E-05 9.50871E-20
7.61524E-05 8.59453E-20
9.21439E-05 5.87347E-20
1.09658E-04 4.14922E-20
1.28695E-04 3.01406E-20
1.49255E-04 2.24195E-20
1.71338E-04 1.70213E-20
1.94942E-04 1.31549E-20
2.20070E-04 1.03271E-20
2.46720E-04 8.22035E-21
2.74892E-04 6.62467E-21
3.04586E-04 5.39832E-21
3.35803E-04 4.44318E-21
3.68542E-04 3.69039E-21
4.02802E-04 3.09058E-21
4.38585E-04 2.60790E-21
4.75889E-04 2.21594E-21
5.14715E-04 1.89497E-21
5.55063E-04 1.63011E-21
5.96931E-04 1.40997E-21
6.40321E-04 1.22580E-21
6.85233E-04 1.07076E-21
7.31665E-04 9.39493E-22
7.79618E-04 8.27751E-22
8.29092E-04 7.32149E-22
8.80086E-04 6.49967E-22
9.32601E-04 5.79007E-22
9.86636E-04 5.17477E-22
1.04219E-03 4.63913E-22
1.09927E-03 4.17107E-22
1.15786E-03 3.76061E-22
1.21797E-03 3.39945E-22
1.27961E-03 3.08063E-22
1.34276E-03 2.79835E-22
1.40743E-03 2.54768E-22
1.47362E-03 2.32448E-22
1.54133E-03 2.12520E-22
1.61056E-03 1.94683E-22
1.68131E-03 1.78679E-22
1.75357E-03 1.64286E-22
1.82735E-03 1.51314E-22
1.90265E-03 1.39598E-22
1.97947E-03 1.28994E-22
2.05780E-03 1.19378E-22
2.13765E-03 1.10641E-22
2.21902E-03 1.02689E-22
2.30190E-03 9.54388E-23
2.38630E-03 8.88169E-23
2.47222E-03 8.27592E-23
2.55965E-03 7.72090E-23
2.64859E-03 7.21161E-23
2.73905E-03 6.74360E-23
2.83103E-03 6.31292E-23
2.92452E-03 5.91605E-23
3.01952E-03 5.54985E-23
3.11604E-03 5.21152E-23
3.21407E-03 4.89855E-23
3.31362E-03 4.60870E-23
3.41468E-03 4.33995E-23
3.51725E-03 4.09047E-23
3.62133E-03 3.85864E-23
3.72692E-03 3.64297E-23
3.83403E-03 3.44214E-23
3.94265E-03 3.25493E-23
4.05278E-03 3.08024E-23
4.16442E-03 2.91710E-23
4.27757E-03 2.76459E-23
4.39223E-03 2.62189E-23
4.50840E-03 2.48826E-23
4.62608E-03 2.36301E-23
4.74527E-03 2.24553E-23
4.86597E-03 2.13523E-23
4.98817E-03 2.03160E-23
5.11188E-03 1.93416E-23
5.23711E-03 1.84247E-23
5.36383E-03 1.75613E-23
5.49207E-03 1.67478E-23
5.62181E-03 1.59806E-23
5.75306E-03 1.52566E-23
5.88581E-03 1.45731E-23
6.02007E-03 1.39272E-23
6.15583E-03 1.33165E-23
6.29310E-03 1.27388E-23
6.43187E-03 1.21919E-23
6.57214E-03 1.16739E-23
6.71392E-03 1.11830E-23
6.85720E-03 1.07175E-23
7.00198E-03 1.02758E-23
7.14827E-03 9.85650E-24
7.29605E-03 9.45824E-24
7.44534E-03 9.07977E-24
7.59612E-03 8.71993E-24
7.97965E-03 7.89482E-24
8.37255E-03 7.16441E-24
8.77480E-03 6.51595E-24
9.18641E-03 5.93868E-24
9.60736E-03 5.42343E-24
1.00376E-02 4.96239E-24
1.04773E-02 4.54887E-24
1.09262E-02 4.17713E-24
1.13844E-02 3.84221E-24
1.18520E-02 3.53983E-24
1.23288E-02 3.26628E-24
1.28150E-02 3.01833E-24
1.33104E-02 2.79317E-24
1.38150E-02 2.58834E-24
1.43290E-02 2.40169E-24
1.48521E-02 2.23132E-24
1.53845E-02 2.07555E-24
1.59262E-02 1.93293E-24
1.64770E-02 1.80215E-24
1.70371E-02 1.68205E-24
1.76063E-02 1.57161E-24
1.81848E-02 1.46991E-24
1.87724E-02 1.37615E-24
1.93692E-02 1.28959E-24
1.99751E-02 1.20959E-24
2.05901E-02 1.13557E-24
2.12143E-02 1.06699E-24
2.18476E-02 1.00339E-24
2.24900E-02 9.44339E-25
2.31415E-02 8.89463E-25
2.38021E-02 8.38412E-25
2.44717E-02 7.90874E-25
2.51504E-02 7.46564E-25
2.58382E-02 7.05227E-25
2.65349E-02 6.66627E-25
2.72407E-02 6.30553E-25
2.79555E-02 5.96811E-25
2.86793E-02 5.65223E-25
2.94120E-02 5.35629E-25
3.01537E-02 5.07882E-25
3.09043E-02 4.81846E-25
3.16639E-02 4.57398E-25
3.24324E-02 4.34424E-25
3.32098E-02 4.12821E-25
3.39961E-02 3.92493E-25
3.47912E-02 3.73352E-25
3.55952E-02 3.55316E-25
3.64081E-02 3.38312E-25
3.72297E-02 3.22270E-25
3.80602E-02 3.07127E-25
3.88995E-02 2.92824E-25
3.97476E-02 2.79306E-25
4.06044E-02 2.66524E-25
4.14700E-02 2.54430E-25
4.23443E-02 2.42982E-25
4.32273E-02 2.32139E-25
4.41190E-02 2.21864E-25
4.50194E-02 2.12122E-25
4.59284E-02 2.02881E-25
4.68461E-02 1.94112E-25
4.87074E-02 1.77877E-25
5.06030E-02 1.63215E-25
5.25328E-02 1.49951E-25
5.44967E-02 1.37932E-25
5.64946E-02 1.27023E-25
5.85262E-02 1.17106E-25
6.05914E-02 1.08078E-25
6.26901E-02 9.98482E-26
6.48222E-02 9.23348E-26
6.69873E-02 8.54669E-26
6.91854E-02 7.91810E-26
7.14163E-02 7.34208E-26
7.36799E-02 6.81362E-26
7.59760E-02 6.32825E-26
7.83043E-02 5.88197E-26
8.06647E-02 5.47119E-26
8.30571E-02 5.09272E-26
8.54812E-02 4.74367E-26
8.79369E-02 4.42145E-26
9.04240E-02 4.12374E-26
9.29422E-02 3.84841E-26
9.54915E-02 3.59358E-26
9.80716E-02 3.35753E-26
1.00682E-01 3.13870E-26
1.03323E-01 2.93567E-26
1.05995E-01 2.74717E-26
1.08696E-01 2.57204E-26
1.11427E-01 2.40920E-26
1.14188E-01 2.25770E-26
1.16978E-01 2.11666E-26
1.19797E-01 1.98527E-26
1.22645E-01 1.86280E-26
1.25522E-01 1.74857E-26
1.28428E-01 1.64197E-26
1.31361E-01 1.54244E-26
1.34323E-01 1.44945E-26
1.37313E-01 1.36254E-26
1.40330E-01 1.28126E-26
1.43375E-01 1.20521E-26
1.46447E-01 1.13402E-26
1.49545E-01 1.06736E-26
1.52671E-01 1.00490E-26
1.55823E-01 9.46360E-27
1.59001E-01 8.91465E-27
1.62205E-01 8.39971E-27
1.65435E-01 7.91647E-27
1.68690E-01 7.46281E-27
1.71970E-01 7.03677E-27
1.75276E-01 6.63653E-27
1.78606E-01 6.26038E-27
1.81961E-01 5.90678E-27
1.85340E-01 5.57425E-27
1.88743E-01 5.26145E-27
1.92169E-01 4.96711E-27
1.95619E-01 4.69007E-27
1.99092E-01 4.42924E-27
2.02589E-01 4.18360E-27
2.06107E-01 3.95220E-27
2.09649E-01 3.73416E-27
2.13212E-01 3.52867E-27
2.16797E-01 3.33495E-27
2.20404E-01 3.15228E-27
2.24032E-01 2.98000E-27
2.27680E-01 2.81748E-27
2.31350E-01 2.66414E-27
2.35040E-01 2.51943E-27
2.38751E-01 2.38283E-27
2.42481E-01 2.25387E-27
2.46231E-01 2.13210E-27
2.50000E-01 2.01709E-27
2.53788E-01 1.90846E-27
2.57595E-01 1.80583E-27
2.61421E-01 1.70885E-27
2.65264E-01 1.61721E-27
2.69126E-01 1.53058E-27
2.73005E-01 1.44870E-27
2.76901E-01 1.37129E-27
2.80814E-01 1.29808E-27
2.84744E-01 1.22886E-27
2.88691E-01 1.16339E-27
2.92653E-01 1.10146E-27
2.96632E-01 1.04287E-27
3.00625E-01 9.87443E-28
3.04634E-01 9.34996E-28
3.08658E-01 8.85367E-28
3.12697E-01 8.38399E-28
3.16749E-01 7.93946E-28
3.20816E-01 7.51869E-28
3.24896E-01 7.12038E-28
3.28990E-01 6.74331E-28
3.33097E-01 6.38632E-28
3.37216E-01 6.04831E-28
3.41348E-01 5.72826E-28
3.45492E-01 5.42519E-28
3.49647E-01 5.13819E-28
3.53814E-01 4.86639E-28
3.57992E-01 4.60897E-28
3.62181E-01 4.36517E-28
3.66381E-01 4.13424E-28
3.70590E-01 3.91550E-28
3.74810E-01 3.70831E-28
3.79039E-01 3.51204E-28
3.83277E-01 3.32612E-28
3.87524E-01 3.14998E-28
3.91780E-01 2.98313E-28
3.96044E-01 2.82505E-28
4.00316E-01 2.67529E-28
4.04596E-01 2.53341E-28
4.08882E-01 2.39900E-28
4.13176E-01 2.27165E-28
4.17476E-01 2.15099E-28
4.21783E-01 2.03668E-28
4.26095E-01 1.92838E-28
4.30413E-01 1.82578E-28
4.34737E-01 1.72857E-28
4.39065E-01 1.63647E-28
4.43398E-01 1.54921E-28
4.47736E-01 1.46655E-28
4.52077E-01 1.38823E-28
4.56422E-01 1.31404E-28
4.60770E-01 1.24375E-28
4.65122E-01 1.17717E-28
4.69476E-01 1.11409E-28
4.73832E-01 1.05434E-28
4.78190E-01 9.97744E-29
4.82550E-01 9.44133E-29
4.86912E-01 8.93352E-29
4.91274E-01 8.45255E-29
4.95637E-01 7.99700E-29
5.00000E-01 7.56557E-29
5.04363E-01 7.15697E-29
5.08726E-01 6.77003E-29
5.13088E-01 6.40361E-29
5.17450E-01 6.05663E-29
5.21810E-01 5.72809E-29
5.26168E-01 5.41702E-29
5.30524E-01 5.12250E-29
5.34878E-01 4.84368E-29
5.39230E-01 4.57972E-29
5.43578E-01 4.32986E-29
5.47923E-01 4.09334E-29
5.52264E-01 3.86948E-29
5.56602E-01 3.65761E-29
5.60935E-01 3.45710E-29
5.65263E-01 3.26735E-29
5.69587E-01 3.08781E-29
5.73905E-01 2.91792E-29
5.78217E-01 2.75719E-29
5.82524E-01 2.60513E-29
5.86824E-01 2.46129E-29
5.91118E-01 2.32523E-29
5.95404E-01 2.19654E-29
5.99684E-01 2.07483E-29
6.03956E-01 1.95973E-29
6.08220E-01 1.85089E-29
6.12476E-01 1.74798E-29
6.16723E-01 1.65069E-29
6.20961E-01 1.55872E-29
6.25190E-01 1.47177E-29
6.29410E-01 1.38960E-29
6.33619E-01 1.31193E-29
6.37819E-01 1.23854E-29
6.42008E-01 1.16918E-29
6.46186E-01 1.10365E-29
6.50353E-01 1.04175E-29
6.54508E-01 9.83265E-30
6.58652E-01 9.28024E-30
6.62784E-01 8.75850E-30
6.66903E-01 8.26577E-30
6.71010E-01 7.80049E-30
6.75104E-01 7.36116E-30
6.79184E-01 6.94639E-30
6.83251E-01 6.55483E-30
6.87303E-01 6.18523E-30
6.91342E-01 5.83639E-30
6.95366E-01 5.50717E-30
6.99375E-01 5.19650E-30
7.03368E-01 4.90336E-30
7.07347E-01 4.62679E-30
7.11309E-01 4.36588E-30
7.15256E-01 4.11977E-30
7.19186E-01 3.88764E-30
7.23099E-01 3.66871E-30
7.26995E-01 3.46225E-30
7.30874E-01 3.26757E-30
7.34736E-01 3.08402E-30
7.38579E-01 2.91097E-30
7.42405E-01 2.74783E-30
7.46212E-01 2.59405E-30
7.50000E-01 2.44910E-30
7.53769E-01 2.31249E-30
7.57519E-01 2.18374E-30
7.61249E-01 2.06241E-30
7.64960E-01 1.94809E-30
7.68650E-01 1.84036E-30
7.72320E-01 1.73886E-30
7.75968E-01 1.64323E-30
7.79596E-01 1.55314E-30
7.83203E-01 1.46826E-30
7.86788E-01 1.38829E-30
7.90351E-01 1.31296E-30
7.93893E-01 1.24200E-30
7.97411E-01 1.17515E-30
8.00908E-01 1.11217E-30
8.04381E-01 1.05284E-30
8.07831E-01 9.96938E-31
8.11257E-01 9.44276E-31
8.14660E-01 8.94657E-31
8.18039E-01 8.47903E-31
8.21394E-01 8.03846E-31
8.24724E-01 7.62325E-31
8.28030E-01 7.23191E-31
8.31310E-01 6.86302E-31
8.34565E-01 6.51524E-31
8.37795E-01 6.18731E-31
8.40999E-01 5.87805E-31
8.44177E-01 5.58634E-31
8.47329E-01 5.31112E-31
8.50455E-01 5.05140E-31
8.53553E-01 4.80624E-31
8.56625E-01 4.57477E-31
8.59670E-01 4.35616E-31
8.62687E-01 4.14963E-31
8.65677E-01 3.95443E-31
8.68639E-01 3.76989E-31
8.71572E-01 3.59536E-31
8.74478E-01 3.43022E-31
8.77355E-01 3.27390E-31
8.80203E-01 3.12586E-31
8.83022E-01 2.98559E-31
8.85812E-01 2.85263E-31
8.88573E-01 2.72652E-31
8.91304E-01 2.60684E-31
8.94005E-01 2.49320E-31
8.96677E-01 2.38523E-31
8.99318E-01 2.28259E-31
9.01928E-01 2.18494E-31
9.04508E-01 2.09200E-31
9.07058E-01 2.00346E-31
9.09576E-01 1.91907E-31
9.12063E-01 1.83857E-31
9.14519E-01 1.76173E-31
9.16943E-01 1.68834E-31
9.19335E-01 1.61818E-31
9.21696E-01 1.55107E-31
9.24024E-01 1.48682E-31
9.26320E-01 1.42528E-31
9.28584E-01 1.36628E-31
9.30815E-01 1.30967E-31
9.33013E-01 1.25533E-31
9.35178E-01 1.20313E-31
9.37310E-01 1.15295E-31
9.39409E-01 1.10467E-31
9.41474E-01 1.05820E-31
9.43505E-01 1.01344E-31
9.45503E-01 9.70311E-32
9.47467E-01 9.28718E-32
9.49397E-01 8.88590E-32
9.51293E-01 8.49855E-32
9.53154E-01 8.12449E-32
9.54981E-01 7.76311E-32
9.56773E-01 7.41384E-32
9.58530E-01 7.07616E-32
9.60252E-01 6.74958E-32
9.61940E-01 6.43367E-32
9.63592E-01 6.12800E-32
9.65209E-01 5.83221E-32
9.66790E-01 5.54594E-32
9.68336E-01 5.26887E-32
9.69846E-01 5.00070E-32
9.71321E-01 4.74117E-32
9.72759E-01 4.49001E-32
9.74162E-01 4.24701E-32
9.75528E-01 4.01195E-32
9.76858E-01 3.78464E-32
9.78152E-01 3.56491E-32
9.79410E-01 3.35260E-32
9.80631E-01 3.14755E-32
9.81815E-01 2.94965E-32
9.82963E-01 2.75876E-32
9.84074E-01 2.57478E-32
9.85148E-01 2.39762E-32
9.86185E-01 2.22717E-32
9.87185E-01 2.06337E-32
9.88148E-01 1.90614E-32
9.89074E-01 1.75541E-32
9.89962E-01 1.61113E-32
9.90814E-01 1.47324E-32
9.91627E-01 1.34170E-32
9.92404E-01 1.21647E-32
9.93143E-01 1.09751E-32
9.93844E-01 9.84788E-33
9.94508E-01 8.78276E-33
9.95134E-01 7.77947E-33
9.95722E-01 6.83782E-33
9.96273E-01 5.95759E-33
9.96786E-01 5.13864E-33
9.97261E-01 4.38080E-33
9.97698E-01 3.68397E-33
9.98097E-01 3.04802E-33
9.98459E-01 2.47288E-33
9.98782E-01 1.95845E-33
9.99067E-01 1.50468E-33
9.99315E-01 1.11151E-33
9.99524E-01 7.78905E-34
9.99695E-01 5.06815E-34
9.99829E-01 2.95216E-34
9.99924E-01 1.44091E-34
9.99981E-01 5.34181E-35
1.00000E+00 2.32153E-35
