 #
 # Subroutine ELSEPA. Elastic scattering of electrons and positrons
 #                    by neutral atoms and positive ions
 #
 # Projectile: electron
 # Kinetic energy = 1.00000E+09 eV = 3.67493E+07 a.u.
 #
 # WARNING: High-energy factorization with free-atom DF screening.
 #          Absorption, polarization and exchange corrections are
 #          switched off.
 #          Phase shifts are calculated for the bare nucleus.
 #          Scattering amplitudes are not evaluated.
 #
 # Element: Ni,  Z =  28,  atomic weight = 5.86934E+01 g/mol
 #
 # Nuclear model: Fermi distribution
 #                Average radius = 4.15828E-13 cm
 #                Skin thickness = 5.46000E-14 cm
 #
 # Number of electrons = 28
 #
 # Total elastic cross section = 1.95475E-18 cm**2 = 6.98052E-02 a0**2
 # 1st transport cross section = 1.61960E-27 cm**2 = 5.78371E-11 a0**2
 # 2nd transport cross section = 4.85821E-27 cm**2 = 1.73490E-10 a0**2
 #
 #
 # Differential cross section:                       MU=(1-COS(THETA))/2
 #
 #  THETA        MU          DCS          DCS        Sherman      error
 #  (deg)                 (cm**2/sr)   (a0**2/sr)    function
 #----------------------------------------------------------------------
0.00000E+00 1.63369E-08
7.61557E-13 1.28339E-08
1.18994E-12 1.13860E-08
1.71346E-12 9.96431E-09
2.33225E-12 8.64454E-09
3.04617E-12 7.46934E-09
3.85530E-12 6.45040E-09
4.75964E-12 5.58172E-09
5.75917E-12 4.84806E-09
6.85391E-12 4.23013E-09
8.04379E-12 3.70991E-09
9.32893E-12 3.27076E-09
1.07092E-11 2.89820E-09
1.21847E-11 2.58017E-09
1.37554E-11 2.30690E-09
1.54213E-11 2.07003E-09
1.71823E-11 1.86384E-09
1.90386E-11 1.68325E-09
2.09900E-11 1.52420E-09
2.30367E-11 1.38257E-09
2.51785E-11 1.24658E-09
2.74156E-11 1.13067E-09
2.97478E-11 1.03127E-09
3.21752E-11 9.45547E-10
3.46979E-11 8.71218E-10
3.73157E-11 7.97753E-10
4.00286E-11 7.27973E-10
4.28368E-11 6.67138E-10
4.57402E-11 6.13862E-10
4.87388E-11 5.67004E-10
5.18325E-11 5.24923E-10
5.50215E-11 4.81376E-10
5.83057E-11 4.42898E-10
6.16850E-11 4.08778E-10
6.51595E-11 3.78419E-10
6.87293E-11 3.51317E-10
7.23943E-11 3.25030E-10
7.61544E-11 3.00292E-10
1.18991E-10 1.46686E-10
1.71347E-10 7.78230E-11
2.33223E-10 4.47926E-11
3.04617E-10 2.77126E-11
3.85531E-10 1.81864E-11
4.75965E-10 1.25037E-11
5.75917E-10 8.91522E-12
6.85389E-10 6.53712E-12
8.04380E-10 4.90416E-12
9.32891E-10 3.74922E-12
1.07092E-09 2.91204E-12
1.21847E-09 2.29297E-12
1.37554E-09 1.82764E-12
1.54213E-09 1.47274E-12
1.71823E-09 1.19888E-12
1.90386E-09 9.85056E-13
2.09900E-09 8.16327E-13
2.30367E-09 6.81868E-13
2.51785E-09 5.73568E-13
2.74156E-09 4.86214E-13
2.97478E-09 4.14598E-13
3.21752E-09 3.55780E-13
3.46978E-09 3.06975E-13
3.73156E-09 2.66275E-13
4.00286E-09 2.32115E-13
4.28368E-09 2.03263E-13
4.57402E-09 1.78784E-13
4.87388E-09 1.57874E-13
5.18326E-09 1.39962E-13
5.50215E-09 1.24512E-13
5.83057E-09 1.11159E-13
6.16850E-09 9.95429E-14
6.51596E-09 8.94192E-14
6.87293E-09 8.05500E-14
7.23942E-09 7.27600E-14
7.61544E-09 6.58918E-14
1.18991E-08 2.74769E-14
1.71347E-08 1.34181E-14
2.33223E-08 7.30503E-15
3.04617E-08 4.30695E-15
3.85531E-08 2.69960E-15
4.75965E-08 1.77616E-15
5.75917E-08 1.21558E-15
6.85389E-08 8.59535E-16
8.04380E-08 6.24726E-16
9.32891E-08 4.64848E-16
1.07092E-07 3.52968E-16
1.21847E-07 2.72797E-16
1.37554E-07 2.14140E-16
1.54213E-07 1.70430E-16
1.71823E-07 1.37321E-16
1.90386E-07 1.11873E-16
2.09900E-07 9.20555E-17
2.30367E-07 7.64371E-17
2.51785E-07 6.39944E-17
2.74156E-07 5.39832E-17
2.97478E-07 4.58551E-17
3.21752E-07 3.92006E-17
3.46978E-07 3.37105E-17
3.73156E-07 2.91487E-17
4.00286E-07 2.53330E-17
4.28368E-07 2.21217E-17
4.57402E-07 1.94035E-17
4.87388E-07 1.70902E-17
5.18325E-07 1.51116E-17
5.50215E-07 1.34112E-17
5.83057E-07 1.19434E-17
6.16850E-07 1.06710E-17
6.51596E-07 9.56363E-18
6.87293E-07 8.59625E-18
7.23942E-07 7.74815E-18
7.61543E-07 7.00210E-18
1.18991E-06 2.86871E-18
1.71347E-06 1.38368E-18
2.33223E-06 7.46991E-19
3.04617E-06 4.37934E-19
3.85531E-06 2.73437E-19
4.75964E-06 1.79425E-19
5.75916E-06 1.22565E-19
6.85388E-06 8.65504E-20
8.04378E-06 6.28456E-20
9.32888E-06 4.67295E-20
1.07092E-05 3.54643E-20
1.21846E-05 2.73986E-20
1.37553E-05 2.15014E-20
1.54212E-05 1.71090E-20
1.71822E-05 1.37833E-20
1.90385E-05 1.12273E-20
2.09899E-05 9.23891E-21
2.30365E-05 7.67173E-21
2.51783E-05 6.42295E-21
2.74153E-05 5.41803E-21
2.97475E-05 4.60208E-21
3.21749E-05 3.93414E-21
3.46974E-05 3.38320E-21
3.73152E-05 2.92552E-21
4.00281E-05 2.54277E-21
4.28362E-05 2.22067E-21
4.57395E-05 1.94801E-21
4.87380E-05 1.71593E-21
5.18317E-05 1.51739E-21
5.50205E-05 1.34675E-21
5.83045E-05 1.19943E-21
6.16838E-05 1.07172E-21
6.51582E-05 9.60585E-22
6.87277E-05 8.63504E-22
7.23925E-05 7.78396E-22
7.61524E-05 6.84600E-22
9.21439E-05 4.64602E-22
1.09658E-04 3.25670E-22
1.28695E-04 2.34552E-22
1.49255E-04 1.72836E-22
1.71338E-04 1.29888E-22
1.94942E-04 9.92834E-23
2.20070E-04 7.70236E-23
2.46720E-04 6.05387E-23
2.74892E-04 4.81335E-23
3.04586E-04 3.86654E-23
3.35803E-04 3.13459E-23
3.68542E-04 2.56225E-23
4.02802E-04 2.11004E-23
4.38585E-04 1.74937E-23
4.75889E-04 1.45925E-23
5.14715E-04 1.22402E-23
5.55063E-04 1.03195E-23
5.96931E-04 8.74058E-24
6.40321E-04 7.43486E-24
6.85233E-04 6.34897E-24
7.31665E-04 5.44118E-24
7.79618E-04 4.67864E-24
8.29092E-04 4.03524E-24
8.80086E-04 3.49011E-24
9.32601E-04 3.02647E-24
9.86636E-04 2.63070E-24
1.04219E-03 2.29175E-24
1.09927E-03 2.00055E-24
1.15786E-03 1.74964E-24
1.21797E-03 1.53287E-24
1.27961E-03 1.34510E-24
1.34276E-03 1.18208E-24
1.40743E-03 1.04022E-24
1.47362E-03 9.16527E-25
1.54133E-03 8.08464E-25
1.61056E-03 7.13886E-25
1.68131E-03 6.30969E-25
1.75357E-03 5.58164E-25
1.82735E-03 4.94142E-25
1.90265E-03 4.37769E-25
1.97947E-03 3.88067E-25
2.05780E-03 3.44197E-25
2.13765E-03 3.05432E-25
2.21902E-03 2.71145E-25
2.30190E-03 2.40790E-25
2.38630E-03 2.13894E-25
2.47222E-03 1.90045E-25
2.55965E-03 1.68883E-25
2.64859E-03 1.50093E-25
2.73905E-03 1.33401E-25
2.83103E-03 1.18566E-25
2.92452E-03 1.05374E-25
3.01952E-03 9.36404E-26
3.11604E-03 8.31999E-26
3.21407E-03 7.39081E-26
3.31362E-03 6.56369E-26
3.41468E-03 5.82733E-26
3.51725E-03 5.17172E-26
3.62133E-03 4.58799E-26
3.72692E-03 4.06828E-26
3.83403E-03 3.60560E-26
3.94265E-03 3.19376E-26
4.05278E-03 2.82724E-26
4.16442E-03 2.50112E-26
4.27757E-03 2.21105E-26
4.39223E-03 1.95313E-26
4.50840E-03 1.72389E-26
4.62608E-03 1.52023E-26
4.74527E-03 1.33940E-26
4.86597E-03 1.17892E-26
4.98817E-03 1.03660E-26
5.11188E-03 9.10469E-27
5.23711E-03 7.98769E-27
5.36383E-03 6.99929E-27
5.49207E-03 6.12548E-27
5.62181E-03 5.35369E-27
5.75306E-03 4.67271E-27
5.88581E-03 4.07251E-27
6.02007E-03 3.54414E-27
6.15583E-03 3.07958E-27
6.29310E-03 2.67166E-27
6.43187E-03 2.31401E-27
6.57214E-03 2.00090E-27
6.71392E-03 1.72724E-27
6.85720E-03 1.48846E-27
7.00198E-03 1.28052E-27
7.14827E-03 1.09979E-27
7.29605E-03 9.43044E-28
7.44534E-03 8.07407E-28
7.59612E-03 6.90323E-28
7.97965E-03 4.64476E-28
8.37255E-03 3.11945E-28
8.77480E-03 2.11194E-28
9.18641E-03 1.46423E-28
9.60736E-03 1.06144E-28
1.00376E-02 8.21089E-29
1.04773E-02 6.84743E-29
1.09262E-02 6.11799E-29
1.13844E-02 5.74690E-29
1.18520E-02 5.55287E-29
1.23288E-02 5.42196E-29
1.28150E-02 5.28730E-29
1.33104E-02 5.11424E-29
1.38150E-02 4.88932E-29
1.43290E-02 4.61248E-29
1.48521E-02 4.29140E-29
1.53845E-02 3.93764E-29
1.59262E-02 3.56410E-29
1.64770E-02 3.18327E-29
1.70371E-02 2.80631E-29
1.76063E-02 2.44251E-29
1.81848E-02 2.09913E-29
1.87724E-02 1.78137E-29
1.93692E-02 1.49259E-29
1.99751E-02 1.23454E-29
2.05901E-02 1.00758E-29
2.12143E-02 8.11032E-30
2.18476E-02 6.43384E-30
2.24900E-02 5.02553E-30
2.31415E-02 3.86081E-30
2.38021E-02 2.91315E-30
2.44717E-02 2.15541E-30
2.51504E-02 1.56094E-30
2.58382E-02 1.10443E-30
2.65349E-02 7.62392E-31
2.72407E-02 5.13600E-31
2.79555E-02 3.39219E-31
2.86793E-02 2.22885E-31
2.94120E-02 1.50646E-31
3.01537E-02 1.10842E-31
3.09043E-02 9.39215E-32
3.16639E-02 9.22354E-32
3.24324E-02 9.98093E-32
3.32098E-02 1.12114E-31
3.39961E-02 1.25843E-31
3.47912E-02 1.38697E-31
3.55952E-02 1.49195E-31
3.64081E-02 1.56498E-31
3.72297E-02 1.60257E-31
3.80602E-02 1.60484E-31
3.88995E-02 1.57441E-31
3.97476E-02 1.51552E-31
4.06044E-02 1.43333E-31
4.14700E-02 1.33331E-31
4.23443E-02 1.22090E-31
4.32273E-02 1.10118E-31
4.41190E-02 9.78688E-32
4.50194E-02 8.57281E-32
4.59284E-02 7.40126E-32
4.68461E-02 6.29679E-32
4.87074E-02 4.35421E-32
5.06030E-02 2.81862E-32
5.25328E-02 1.69089E-32
5.44967E-02 9.25130E-33
5.64946E-02 4.51710E-33
5.85262E-02 1.94735E-33
6.05914E-02 8.38029E-34
6.26901E-02 6.05204E-34
6.48222E-02 8.09475E-34
6.69873E-02 1.15229E-33
6.91854E-02 1.45564E-33
7.14163E-02 1.63424E-33
7.36799E-02 1.66704E-33
7.59760E-02 1.57180E-33
7.83043E-02 1.38508E-33
8.06647E-02 1.14801E-33
8.30571E-02 8.97424E-34
8.54812E-02 6.61340E-34
8.79369E-02 4.57711E-34
9.04240E-02 2.95196E-34
9.29422E-02 1.75060E-34
9.54915E-02 9.34646E-35
9.80716E-02 4.36637E-35
1.00682E-01 1.78170E-35
1.03323E-01 8.31385E-36
1.05995E-01 8.60103E-36
1.08696E-01 1.35827E-35
1.11427E-01 1.96942E-35
1.14188E-01 2.47580E-35
1.16978E-01 2.77189E-35
1.19797E-01 2.83364E-35
1.22645E-01 2.68892E-35
1.25522E-01 2.39261E-35
1.28428E-01 2.00757E-35
1.31361E-01 1.59199E-35
1.34323E-01 1.19216E-35
1.37313E-01 8.39739E-36
1.40330E-01 5.51988E-36
1.43375E-01 3.34062E-36
1.46447E-01 1.82126E-36
1.49545E-01 8.66402E-37
1.52671E-01 3.53002E-37
1.55823E-01 1.53599E-37
1.59001E-01 1.52378E-37
1.62205E-01 2.54444E-37
1.65435E-01 3.89457E-37
1.68690E-01 5.11081E-37
1.71970E-01 5.93779E-37
1.75276E-01 6.28259E-37
1.78606E-01 6.16590E-37
1.81961E-01 5.67680E-37
1.85340E-01 4.93538E-37
1.88743E-01 4.06478E-37
1.92169E-01 3.17270E-37
1.95619E-01 2.34146E-37
1.99092E-01 1.62484E-37
2.02589E-01 1.04981E-37
2.06107E-01 6.21205E-38
2.09649E-01 3.27817E-38
2.13212E-01 1.00000E-45
2.16797E-01 1.00000E-45
2.20404E-01 1.00000E-45
2.24032E-01 1.00000E-45
2.27680E-01 1.00000E-45
2.31350E-01 1.00000E-45
2.35040E-01 1.00000E-45
2.38751E-01 1.00000E-45
2.42481E-01 1.00000E-45
2.46231E-01 1.00000E-45
2.50000E-01 1.00000E-45
2.53788E-01 1.00000E-45
2.57595E-01 1.00000E-45
2.61421E-01 1.00000E-45
2.65264E-01 1.00000E-45
2.69126E-01 1.00000E-45
2.73005E-01 1.00000E-45
2.76901E-01 1.00000E-45
2.80814E-01 1.00000E-45
2.84744E-01 1.00000E-45
2.88691E-01 1.00000E-45
2.92653E-01 1.00000E-45
2.96632E-01 1.00000E-45
3.00625E-01 1.00000E-45
3.04634E-01 1.00000E-45
3.08658E-01 1.00000E-45
3.12697E-01 1.00000E-45
3.16749E-01 1.00000E-45
3.20816E-01 1.00000E-45
3.24896E-01 1.00000E-45
3.28990E-01 1.00000E-45
3.33097E-01 1.00000E-45
3.37216E-01 1.00000E-45
3.41348E-01 1.00000E-45
3.45492E-01 1.00000E-45
3.49647E-01 1.00000E-45
3.53814E-01 1.00000E-45
3.57992E-01 1.00000E-45
3.62181E-01 1.00000E-45
3.66381E-01 1.00000E-45
3.70590E-01 1.00000E-45
3.74810E-01 1.00000E-45
3.79039E-01 1.00000E-45
3.83277E-01 1.00000E-45
3.87524E-01 1.00000E-45
3.91780E-01 1.00000E-45
3.96044E-01 1.00000E-45
4.00316E-01 1.00000E-45
4.04596E-01 1.00000E-45
4.08882E-01 1.00000E-45
4.13176E-01 1.00000E-45
4.17476E-01 1.00000E-45
4.21783E-01 1.00000E-45
4.26095E-01 1.00000E-45
4.30413E-01 1.00000E-45
4.34737E-01 1.00000E-45
4.39065E-01 1.00000E-45
4.43398E-01 1.00000E-45
4.47736E-01 1.00000E-45
4.52077E-01 1.00000E-45
4.56422E-01 1.00000E-45
4.60770E-01 1.00000E-45
4.65122E-01 1.00000E-45
4.69476E-01 1.00000E-45
4.73832E-01 1.00000E-45
4.78190E-01 1.00000E-45
4.82550E-01 1.00000E-45
4.86912E-01 1.00000E-45
4.91274E-01 1.00000E-45
4.95637E-01 1.00000E-45
5.00000E-01 1.00000E-45
5.04363E-01 1.00000E-45
5.08726E-01 1.00000E-45
5.13088E-01 1.00000E-45
5.17450E-01 1.00000E-45
5.21810E-01 1.00000E-45
5.26168E-01 1.00000E-45
5.30524E-01 1.00000E-45
5.34878E-01 1.00000E-45
5.39230E-01 1.00000E-45
5.43578E-01 1.00000E-45
5.47923E-01 1.00000E-45
5.52264E-01 1.00000E-45
5.56602E-01 1.00000E-45
5.60935E-01 1.00000E-45
5.65263E-01 1.00000E-45
5.69587E-01 1.00000E-45
5.73905E-01 1.00000E-45
5.78217E-01 1.00000E-45
5.82524E-01 1.00000E-45
5.86824E-01 1.00000E-45
5.91118E-01 1.00000E-45
5.95404E-01 1.00000E-45
5.99684E-01 1.00000E-45
6.03956E-01 1.00000E-45
6.08220E-01 1.00000E-45
6.12476E-01 1.00000E-45
6.16723E-01 1.00000E-45
6.20961E-01 1.00000E-45
6.25190E-01 1.00000E-45
6.29410E-01 1.00000E-45
6.33619E-01 1.00000E-45
6.37819E-01 1.00000E-45
6.42008E-01 1.00000E-45
6.46186E-01 1.00000E-45
6.50353E-01 1.00000E-45
6.54508E-01 1.00000E-45
6.58652E-01 1.00000E-45
6.62784E-01 1.00000E-45
6.66903E-01 1.00000E-45
6.71010E-01 1.00000E-45
6.75104E-01 1.00000E-45
6.79184E-01 1.00000E-45
6.83251E-01 1.00000E-45
6.87303E-01 1.00000E-45
6.91342E-01 1.00000E-45
6.95366E-01 1.00000E-45
6.99375E-01 1.00000E-45
7.03368E-01 1.00000E-45
7.07347E-01 1.00000E-45
7.11309E-01 1.00000E-45
7.15256E-01 1.00000E-45
7.19186E-01 1.00000E-45
7.23099E-01 1.00000E-45
7.26995E-01 1.00000E-45
7.30874E-01 1.00000E-45
7.34736E-01 1.00000E-45
7.38579E-01 1.00000E-45
7.42405E-01 1.00000E-45
7.46212E-01 1.00000E-45
7.50000E-01 1.00000E-45
7.53769E-01 1.00000E-45
7.57519E-01 1.00000E-45
7.61249E-01 1.00000E-45
7.64960E-01 1.00000E-45
7.68650E-01 1.00000E-45
7.72320E-01 1.00000E-45
7.75968E-01 1.00000E-45
7.79596E-01 1.00000E-45
7.83203E-01 1.00000E-45
7.86788E-01 1.00000E-45
7.90351E-01 1.00000E-45
7.93893E-01 1.00000E-45
7.97411E-01 1.00000E-45
8.00908E-01 1.00000E-45
8.04381E-01 1.00000E-45
8.07831E-01 1.00000E-45
8.11257E-01 1.00000E-45
8.14660E-01 1.00000E-45
8.18039E-01 1.00000E-45
8.21394E-01 1.00000E-45
8.24724E-01 1.00000E-45
8.28030E-01 1.00000E-45
8.31310E-01 1.00000E-45
8.34565E-01 1.00000E-45
8.37795E-01 1.00000E-45
8.40999E-01 1.00000E-45
8.44177E-01 1.00000E-45
8.47329E-01 1.00000E-45
8.50455E-01 1.00000E-45
8.53553E-01 1.00000E-45
8.56625E-01 1.00000E-45
8.59670E-01 1.00000E-45
8.62687E-01 1.00000E-45
8.65677E-01 1.00000E-45
8.68639E-01 1.00000E-45
8.71572E-01 1.00000E-45
8.74478E-01 1.00000E-45
8.77355E-01 1.00000E-45
8.80203E-01 1.00000E-45
8.83022E-01 1.00000E-45
8.85812E-01 1.00000E-45
8.88573E-01 1.00000E-45
8.91304E-01 1.00000E-45
8.94005E-01 1.00000E-45
8.96677E-01 1.00000E-45
8.99318E-01 1.00000E-45
9.01928E-01 1.00000E-45
9.04508E-01 1.00000E-45
9.07058E-01 1.00000E-45
9.09576E-01 1.00000E-45
9.12063E-01 1.00000E-45
9.14519E-01 1.00000E-45
9.16943E-01 1.00000E-45
9.19335E-01 1.00000E-45
9.21696E-01 1.00000E-45
9.24024E-01 1.00000E-45
9.26320E-01 1.00000E-45
9.28584E-01 1.00000E-45
9.30815E-01 1.00000E-45
9.33013E-01 1.00000E-45
9.35178E-01 1.00000E-45
9.37310E-01 1.00000E-45
9.39409E-01 1.00000E-45
9.41474E-01 1.00000E-45
9.43505E-01 1.00000E-45
9.45503E-01 1.00000E-45
9.47467E-01 1.00000E-45
9.49397E-01 1.00000E-45
9.51293E-01 1.00000E-45
9.53154E-01 1.00000E-45
9.54981E-01 1.00000E-45
9.56773E-01 1.00000E-45
9.58530E-01 1.00000E-45
9.60252E-01 1.00000E-45
9.61940E-01 1.00000E-45
9.63592E-01 1.00000E-45
9.65209E-01 1.00000E-45
9.66790E-01 1.00000E-45
9.68336E-01 1.00000E-45
9.69846E-01 1.00000E-45
9.71321E-01 1.00000E-45
9.72759E-01 1.00000E-45
9.74162E-01 1.00000E-45
9.75528E-01 1.00000E-45
9.76858E-01 1.00000E-45
9.78152E-01 1.00000E-45
9.79410E-01 1.00000E-45
9.80631E-01 1.00000E-45
9.81815E-01 1.00000E-45
9.82963E-01 1.00000E-45
9.84074E-01 1.00000E-45
9.85148E-01 1.00000E-45
9.86185E-01 1.00000E-45
9.87185E-01 1.00000E-45
9.88148E-01 1.00000E-45
9.89074E-01 1.00000E-45
9.89962E-01 1.00000E-45
9.90814E-01 1.00000E-45
9.91627E-01 1.00000E-45
9.92404E-01 1.00000E-45
9.93143E-01 1.00000E-45
9.93844E-01 1.00000E-45
9.94508E-01 1.00000E-45
9.95134E-01 1.00000E-45
9.95722E-01 1.00000E-45
9.96273E-01 1.00000E-45
9.96786E-01 1.00000E-45
9.97261E-01 1.00000E-45
9.97698E-01 1.00000E-45
9.98097E-01 1.00000E-45
9.98459E-01 1.00000E-45
9.98782E-01 1.00000E-45
9.99067E-01 1.00000E-45
9.99315E-01 1.00000E-45
9.99524E-01 1.00000E-45
9.99695E-01 1.00000E-45
9.99829E-01 1.00000E-45
9.99924E-01 1.00000E-45
9.99981E-01 1.00000E-45
1.00000E+00 1.00000E-45
