 #
 # Subroutine ELSEPA. Elastic scattering of electrons and positrons
 #                    by neutral atoms and positive ions
 #
 # Projectile: electron
 # Kinetic energy = 2.00000E+07 eV = 7.34987E+05 a.u.
 #
 # WARNING: High-energy factorization with free-atom DF screening.
 #          Absorption, polarization and exchange corrections are
 #          switched off.
 #          Phase shifts are calculated for the bare nucleus.
 #          Scattering amplitudes are not evaluated.
 #
 # Element: Ni,  Z =  28,  atomic weight = 5.86934E+01 g/mol
 #
 # Nuclear model: Fermi distribution
 #                Average radius = 4.15828E-13 cm
 #                Skin thickness = 5.46000E-14 cm
 #
 # Number of electrons = 28
 #
 # Total elastic cross section = 1.97145E-18 cm**2 = 7.04018E-02 a0**2
 # 1st transport cross section = 3.50194E-24 cm**2 = 1.25057E-07 a0**2
 # 2nd transport cross section = 1.00792E-23 cm**2 = 3.59933E-07 a0**2
 #
 #
 # Differential cross section:                       MU=(1-COS(THETA))/2
 #
 #  THETA        MU          DCS          DCS        Sherman      error
 #  (deg)                 (cm**2/sr)   (a0**2/sr)    function
 #----------------------------------------------------------------------
0.00000E+00 6.86592E-12
7.61557E-13 6.86515E-12
1.18994E-12 6.86473E-12
1.71346E-12 6.86421E-12
2.33225E-12 6.86359E-12
3.04617E-12 6.86288E-12
3.85530E-12 6.86208E-12
4.75964E-12 6.86118E-12
5.75917E-12 6.86019E-12
6.85391E-12 6.85911E-12
8.04379E-12 6.85793E-12
9.32893E-12 6.85666E-12
1.07092E-11 6.85529E-12
1.21847E-11 6.85383E-12
1.37554E-11 6.85228E-12
1.54213E-11 6.85063E-12
1.71823E-11 6.84889E-12
1.90386E-11 6.84706E-12
2.09900E-11 6.84513E-12
2.30367E-11 6.84311E-12
2.51785E-11 6.84100E-12
2.74156E-11 6.83880E-12
2.97478E-11 6.83650E-12
3.21752E-11 6.83411E-12
3.46979E-11 6.83163E-12
3.73157E-11 6.82906E-12
4.00286E-11 6.82639E-12
4.28368E-11 6.82364E-12
4.57402E-11 6.82079E-12
4.87388E-11 6.81785E-12
5.18325E-11 6.81482E-12
5.50215E-11 6.81170E-12
5.83057E-11 6.80849E-12
6.16850E-11 6.80519E-12
6.51595E-11 6.80179E-12
6.87293E-11 6.79831E-12
7.23943E-11 6.79474E-12
7.61544E-11 6.79108E-12
1.18991E-10 6.74960E-12
1.71347E-10 6.69947E-12
2.33223E-10 6.64103E-12
3.04617E-10 6.57464E-12
3.85531E-10 6.50071E-12
4.75965E-10 6.41971E-12
5.75917E-10 6.33190E-12
6.85389E-10 6.23784E-12
8.04380E-10 6.13894E-12
9.32891E-10 6.03448E-12
1.07092E-09 5.92559E-12
1.21847E-09 5.81375E-12
1.37554E-09 5.69702E-12
1.54213E-09 5.57839E-12
1.71823E-09 5.45775E-12
1.90386E-09 5.33426E-12
2.09900E-09 5.21065E-12
2.30367E-09 5.08549E-12
2.51785E-09 4.95983E-12
2.74156E-09 4.83540E-12
2.97478E-09 4.70959E-12
3.21752E-09 4.58546E-12
3.46978E-09 4.46280E-12
3.73156E-09 4.34027E-12
4.00286E-09 4.22048E-12
4.28368E-09 4.10195E-12
4.57402E-09 3.98527E-12
4.87388E-09 3.87182E-12
5.18326E-09 3.75931E-12
5.50215E-09 3.64997E-12
5.83057E-09 3.54359E-12
6.16850E-09 3.43884E-12
6.51596E-09 3.33766E-12
6.87293E-09 3.23887E-12
7.23942E-09 3.14265E-12
7.61544E-09 3.04994E-12
1.18991E-08 2.26469E-12
1.71347E-08 1.70903E-12
2.33223E-08 1.31777E-12
3.04617E-08 1.03702E-12
3.85531E-08 8.30047E-13
4.75965E-08 6.73433E-13
5.75917E-08 5.48910E-13
6.85389E-08 4.49723E-13
8.04380E-08 3.76879E-13
9.32891E-08 3.14605E-13
1.07092E-07 2.63553E-13
1.21847E-07 2.24414E-13
1.37554E-07 1.88631E-13
1.54213E-07 1.60412E-13
1.71823E-07 1.37305E-13
1.90386E-07 1.17018E-13
2.09900E-07 1.00726E-13
2.30367E-07 8.67726E-14
2.51785E-07 7.49410E-14
2.74156E-07 6.52196E-14
2.97478E-07 5.66870E-14
3.21752E-07 4.95515E-14
3.46978E-07 4.35173E-14
3.73156E-07 3.82670E-14
4.00286E-07 3.38247E-14
4.28368E-07 2.99869E-14
4.57402E-07 2.66658E-14
4.87388E-07 2.38134E-14
5.18325E-07 2.13141E-14
5.50215E-07 1.91446E-14
5.83057E-07 1.72529E-14
6.16850E-07 1.55858E-14
6.51596E-07 1.41248E-14
6.87293E-07 1.28340E-14
7.23942E-07 1.16903E-14
7.61543E-07 1.06777E-14
1.18991E-06 4.82146E-15
1.71347E-06 2.51896E-15
2.33223E-06 1.44274E-15
3.04617E-06 8.80629E-16
3.85531E-06 5.64744E-16
4.75964E-06 3.77344E-16
5.75916E-06 2.60935E-16
6.85388E-06 1.86045E-16
8.04378E-06 1.36136E-16
9.32888E-06 1.01891E-16
1.07092E-05 7.77862E-17
1.21846E-05 6.04208E-17
1.37553E-05 4.76573E-17
1.54212E-05 3.81041E-17
1.71822E-05 3.08367E-17
1.90385E-05 2.52260E-17
2.09899E-05 2.08420E-17
2.30365E-05 1.73720E-17
2.51783E-05 1.45957E-17
2.74153E-05 1.23526E-17
2.97475E-05 1.05245E-17
3.21749E-05 9.02259E-18
3.46974E-05 7.77948E-18
3.73152E-05 6.74349E-18
4.00281E-05 5.87444E-18
4.28362E-05 5.14099E-18
4.57395E-05 4.51840E-18
4.87380E-05 3.98711E-18
5.18317E-05 3.53153E-18
5.50205E-05 3.13909E-18
5.83045E-05 2.79959E-18
6.16838E-05 2.50473E-18
6.51582E-05 2.24766E-18
6.87277E-05 2.02273E-18
7.23925E-05 1.82522E-18
7.61524E-05 1.65123E-18
9.21439E-05 1.13193E-18
1.09658E-04 8.01483E-19
1.28695E-04 5.83234E-19
1.49255E-04 4.34418E-19
1.71338E-04 3.30172E-19
1.94942E-04 2.55391E-19
2.20070E-04 2.00631E-19
2.46720E-04 1.59794E-19
2.74892E-04 1.28838E-19
3.04586E-04 1.05031E-19
3.35803E-04 8.64791E-20
3.68542E-04 7.18503E-20
4.02802E-04 6.01896E-20
4.38585E-04 5.08027E-20
4.75889E-04 4.31779E-20
5.14715E-04 3.69323E-20
5.55063E-04 3.17773E-20
5.96931E-04 2.74919E-20
6.40321E-04 2.39058E-20
6.85233E-04 2.08865E-20
7.31665E-04 1.83297E-20
7.79618E-04 1.61529E-20
8.29092E-04 1.42902E-20
8.80086E-04 1.26888E-20
9.32601E-04 1.13059E-20
9.86636E-04 1.01066E-20
1.04219E-03 9.06240E-21
1.09927E-03 8.14986E-21
1.15786E-03 7.34952E-21
1.21797E-03 6.64521E-21
1.27961E-03 6.02343E-21
1.34276E-03 5.47282E-21
1.40743E-03 4.98382E-21
1.47362E-03 4.54834E-21
1.54133E-03 4.15948E-21
1.61056E-03 3.81139E-21
1.68131E-03 3.49903E-21
1.75357E-03 3.21809E-21
1.82735E-03 2.96484E-21
1.90265E-03 2.73608E-21
1.97947E-03 2.52900E-21
2.05780E-03 2.34120E-21
2.13765E-03 2.17054E-21
2.21902E-03 2.01519E-21
2.30190E-03 1.87352E-21
2.38630E-03 1.74412E-21
2.47222E-03 1.62572E-21
2.55965E-03 1.51723E-21
2.64859E-03 1.41766E-21
2.73905E-03 1.32614E-21
2.83103E-03 1.24192E-21
2.92452E-03 1.16429E-21
3.01952E-03 1.09264E-21
3.11604E-03 1.02644E-21
3.21407E-03 9.65193E-22
3.31362E-03 9.08458E-22
3.41468E-03 8.55841E-22
3.51725E-03 8.06991E-22
3.62133E-03 7.61586E-22
3.72692E-03 7.19339E-22
3.83403E-03 6.79990E-22
3.94265E-03 6.43302E-22
4.05278E-03 6.09063E-22
4.16442E-03 5.77079E-22
4.27757E-03 5.47173E-22
4.39223E-03 5.19186E-22
4.50840E-03 4.92970E-22
4.62608E-03 4.68394E-22
4.74527E-03 4.45335E-22
4.86597E-03 4.23682E-22
4.98817E-03 4.03334E-22
5.11188E-03 3.84196E-22
5.23711E-03 3.66184E-22
5.36383E-03 3.49219E-22
5.49207E-03 3.33228E-22
5.62181E-03 3.18144E-22
5.75306E-03 3.03908E-22
5.88581E-03 2.90462E-22
6.02007E-03 2.77753E-22
6.15583E-03 2.65735E-22
6.29310E-03 2.54362E-22
6.43187E-03 2.43593E-22
6.57214E-03 2.33389E-22
6.71392E-03 2.23717E-22
6.85720E-03 2.14542E-22
7.00198E-03 2.05834E-22
7.14827E-03 1.97565E-22
7.29605E-03 1.89709E-22
7.44534E-03 1.82241E-22
7.59612E-03 1.75137E-22
7.97965E-03 1.58842E-22
8.37255E-03 1.44404E-22
8.77480E-03 1.31576E-22
9.18641E-03 1.20146E-22
9.60736E-03 1.09935E-22
1.00376E-02 1.00789E-22
1.04773E-02 9.25791E-23
1.09262E-02 8.51909E-23
1.13844E-02 7.85278E-23
1.18520E-02 7.25059E-23
1.23288E-02 6.70525E-23
1.28150E-02 6.21041E-23
1.33104E-02 5.76054E-23
1.38150E-02 5.35084E-23
1.43290E-02 4.97705E-23
1.48521E-02 4.63545E-23
1.53845E-02 4.32276E-23
1.59262E-02 4.03611E-23
1.64770E-02 3.77290E-23
1.70371E-02 3.53088E-23
1.76063E-02 3.30803E-23
1.81848E-02 3.10255E-23
1.87724E-02 2.91283E-23
1.93692E-02 2.73745E-23
1.99751E-02 2.57512E-23
2.05901E-02 2.42468E-23
2.12143E-02 2.28510E-23
2.18476E-02 2.15547E-23
2.24900E-02 2.03492E-23
2.31415E-02 1.92271E-23
2.38021E-02 1.81816E-23
2.44717E-02 1.72063E-23
2.51504E-02 1.62958E-23
2.58382E-02 1.54449E-23
2.65349E-02 1.46490E-23
2.72407E-02 1.39039E-23
2.79555E-02 1.32057E-23
2.86793E-02 1.25508E-23
2.94120E-02 1.19362E-23
3.01537E-02 1.13588E-23
3.09043E-02 1.08161E-23
3.16639E-02 1.03054E-23
3.24324E-02 9.82458E-24
3.32098E-02 9.37155E-24
3.39961E-02 8.94439E-24
3.47912E-02 8.54134E-24
3.55952E-02 8.16078E-24
3.64081E-02 7.80122E-24
3.72297E-02 7.46129E-24
3.80602E-02 7.13970E-24
3.88995E-02 6.83527E-24
3.97476E-02 6.54693E-24
4.06044E-02 6.27364E-24
4.14700E-02 6.01449E-24
4.23443E-02 5.76859E-24
4.32273E-02 5.53515E-24
4.41190E-02 5.31340E-24
4.50194E-02 5.10266E-24
4.59284E-02 4.90227E-24
4.68461E-02 4.71162E-24
4.87074E-02 4.35734E-24
5.06030E-02 4.03574E-24
5.25328E-02 3.74326E-24
5.44967E-02 3.47678E-24
5.64946E-02 3.23358E-24
5.85262E-02 3.01126E-24
6.05914E-02 2.80768E-24
6.26901E-02 2.62099E-24
6.48222E-02 2.44953E-24
6.69873E-02 2.29182E-24
6.91854E-02 2.14657E-24
7.14163E-02 2.01260E-24
7.36799E-02 1.88889E-24
7.59760E-02 1.77449E-24
7.83043E-02 1.66859E-24
8.06647E-02 1.57043E-24
8.30571E-02 1.47935E-24
8.54812E-02 1.39474E-24
8.79369E-02 1.31605E-24
9.04240E-02 1.24279E-24
9.29422E-02 1.17453E-24
9.54915E-02 1.11085E-24
9.80716E-02 1.05140E-24
1.00682E-01 9.95834E-25
1.03323E-01 9.43858E-25
1.05995E-01 8.95197E-25
1.08696E-01 8.49599E-25
1.11427E-01 8.06837E-25
1.14188E-01 7.66701E-25
1.16978E-01 7.29000E-25
1.19797E-01 6.93559E-25
1.22645E-01 6.60218E-25
1.25522E-01 6.28830E-25
1.28428E-01 5.99258E-25
1.31361E-01 5.71379E-25
1.34323E-01 5.45077E-25
1.37313E-01 5.20248E-25
1.40330E-01 4.96792E-25
1.43375E-01 4.74621E-25
1.46447E-01 4.53651E-25
1.49545E-01 4.33805E-25
1.52671E-01 4.15011E-25
1.55823E-01 3.97204E-25
1.59001E-01 3.80322E-25
1.62205E-01 3.64309E-25
1.65435E-01 3.49111E-25
1.68690E-01 3.34680E-25
1.71970E-01 3.20969E-25
1.75276E-01 3.07936E-25
1.78606E-01 2.95541E-25
1.81961E-01 2.83748E-25
1.85340E-01 2.72522E-25
1.88743E-01 2.61831E-25
1.92169E-01 2.51644E-25
1.95619E-01 2.41934E-25
1.99092E-01 2.32674E-25
2.02589E-01 2.23839E-25
2.06107E-01 2.15406E-25
2.09649E-01 2.07355E-25
2.13212E-01 1.99664E-25
2.16797E-01 1.92314E-25
2.20404E-01 1.85288E-25
2.24032E-01 1.78568E-25
2.27680E-01 1.72140E-25
2.31350E-01 1.65987E-25
2.35040E-01 1.60097E-25
2.38751E-01 1.54455E-25
2.42481E-01 1.49050E-25
2.46231E-01 1.43870E-25
2.50000E-01 1.38904E-25
2.53788E-01 1.34141E-25
2.57595E-01 1.29571E-25
2.61421E-01 1.25187E-25
2.65264E-01 1.20977E-25
2.69126E-01 1.16935E-25
2.73005E-01 1.13053E-25
2.76901E-01 1.09322E-25
2.80814E-01 1.05737E-25
2.84744E-01 1.02290E-25
2.88691E-01 9.89756E-26
2.92653E-01 9.57872E-26
2.96632E-01 9.27194E-26
3.00625E-01 8.97668E-26
3.04634E-01 8.69244E-26
3.08658E-01 8.41873E-26
3.12697E-01 8.15509E-26
3.16749E-01 7.90110E-26
3.20816E-01 7.65634E-26
3.24896E-01 7.42041E-26
3.28990E-01 7.19294E-26
3.33097E-01 6.97358E-26
3.37216E-01 6.76198E-26
3.41348E-01 6.55783E-26
3.45492E-01 6.36083E-26
3.49647E-01 6.17067E-26
3.53814E-01 5.98708E-26
3.57992E-01 5.80979E-26
3.62181E-01 5.63856E-26
3.66381E-01 5.47314E-26
3.70590E-01 5.31330E-26
3.74810E-01 5.15882E-26
3.79039E-01 5.00949E-26
3.83277E-01 4.86511E-26
3.87524E-01 4.72549E-26
3.91780E-01 4.59045E-26
3.96044E-01 4.45981E-26
4.00316E-01 4.33340E-26
4.04596E-01 4.21108E-26
4.08882E-01 4.09267E-26
4.13176E-01 3.97804E-26
4.17476E-01 3.86705E-26
4.21783E-01 3.75956E-26
4.26095E-01 3.65545E-26
4.30413E-01 3.55458E-26
4.34737E-01 3.45685E-26
4.39065E-01 3.36214E-26
4.43398E-01 3.27035E-26
4.47736E-01 3.18136E-26
4.52077E-01 3.09508E-26
4.56422E-01 3.01142E-26
4.60770E-01 2.93028E-26
4.65122E-01 2.85157E-26
4.69476E-01 2.77521E-26
4.73832E-01 2.70112E-26
4.78190E-01 2.62923E-26
4.82550E-01 2.55945E-26
4.86912E-01 2.49171E-26
4.91274E-01 2.42595E-26
4.95637E-01 2.36210E-26
5.00000E-01 2.30009E-26
5.04363E-01 2.23987E-26
5.08726E-01 2.18137E-26
5.13088E-01 2.12454E-26
5.17450E-01 2.06933E-26
5.21810E-01 2.01567E-26
5.26168E-01 1.96352E-26
5.30524E-01 1.91284E-26
5.34878E-01 1.86357E-26
5.39230E-01 1.81567E-26
5.43578E-01 1.76910E-26
5.47923E-01 1.72381E-26
5.52264E-01 1.67976E-26
5.56602E-01 1.63692E-26
5.60935E-01 1.59524E-26
5.65263E-01 1.55469E-26
5.69587E-01 1.51524E-26
5.73905E-01 1.47685E-26
5.78217E-01 1.43949E-26
5.82524E-01 1.40313E-26
5.86824E-01 1.36773E-26
5.91118E-01 1.33327E-26
5.95404E-01 1.29973E-26
5.99684E-01 1.26706E-26
6.03956E-01 1.23525E-26
6.08220E-01 1.20427E-26
6.12476E-01 1.17410E-26
6.16723E-01 1.14471E-26
6.20961E-01 1.11608E-26
6.25190E-01 1.08819E-26
6.29410E-01 1.06101E-26
6.33619E-01 1.03452E-26
6.37819E-01 1.00872E-26
6.42008E-01 9.83565E-27
6.46186E-01 9.59050E-27
6.50353E-01 9.35154E-27
6.54508E-01 9.11859E-27
6.58652E-01 8.89148E-27
6.62784E-01 8.67005E-27
6.66903E-01 8.45413E-27
6.71010E-01 8.24359E-27
6.75104E-01 8.03825E-27
6.79184E-01 7.83799E-27
6.83251E-01 7.64266E-27
6.87303E-01 7.45212E-27
6.91342E-01 7.26625E-27
6.95366E-01 7.08492E-27
6.99375E-01 6.90800E-27
7.03368E-01 6.73538E-27
7.07347E-01 6.56694E-27
7.11309E-01 6.40257E-27
7.15256E-01 6.24215E-27
7.19186E-01 6.08559E-27
7.23099E-01 5.93278E-27
7.26995E-01 5.78362E-27
7.30874E-01 5.63802E-27
7.34736E-01 5.49588E-27
7.38579E-01 5.35712E-27
7.42405E-01 5.22164E-27
7.46212E-01 5.08936E-27
7.50000E-01 4.96020E-27
7.53769E-01 4.83408E-27
7.57519E-01 4.71092E-27
7.61249E-01 4.59064E-27
7.64960E-01 4.47318E-27
7.68650E-01 4.35846E-27
7.72320E-01 4.24640E-27
7.75968E-01 4.13696E-27
7.79596E-01 4.03005E-27
7.83203E-01 3.92562E-27
7.86788E-01 3.82360E-27
7.90351E-01 3.72394E-27
7.93893E-01 3.62658E-27
7.97411E-01 3.53145E-27
8.00908E-01 3.43852E-27
8.04381E-01 3.34772E-27
8.07831E-01 3.25900E-27
8.11257E-01 3.17231E-27
8.14660E-01 3.08760E-27
8.18039E-01 3.00483E-27
8.21394E-01 2.92395E-27
8.24724E-01 2.84492E-27
8.28030E-01 2.76769E-27
8.31310E-01 2.69221E-27
8.34565E-01 2.61845E-27
8.37795E-01 2.54637E-27
8.40999E-01 2.47593E-27
8.44177E-01 2.40709E-27
8.47329E-01 2.33982E-27
8.50455E-01 2.27407E-27
8.53553E-01 2.20982E-27
8.56625E-01 2.14703E-27
8.59670E-01 2.08566E-27
8.62687E-01 2.02569E-27
8.65677E-01 1.96709E-27
8.68639E-01 1.90981E-27
8.71572E-01 1.85384E-27
8.74478E-01 1.79915E-27
8.77355E-01 1.74570E-27
8.80203E-01 1.69348E-27
8.83022E-01 1.64245E-27
8.85812E-01 1.59258E-27
8.88573E-01 1.54386E-27
8.91304E-01 1.49626E-27
8.94005E-01 1.44975E-27
8.96677E-01 1.40432E-27
8.99318E-01 1.35993E-27
9.01928E-01 1.31658E-27
9.04508E-01 1.27423E-27
9.07058E-01 1.23286E-27
9.09576E-01 1.19247E-27
9.12063E-01 1.15301E-27
9.14519E-01 1.11449E-27
9.16943E-01 1.07687E-27
9.19335E-01 1.04015E-27
9.21696E-01 1.00430E-27
9.24024E-01 9.69304E-28
9.26320E-01 9.35148E-28
9.28584E-01 9.01817E-28
9.30815E-01 8.69293E-28
9.33013E-01 8.37563E-28
9.35178E-01 8.06610E-28
9.37310E-01 7.76420E-28
9.39409E-01 7.46981E-28
9.41474E-01 7.18277E-28
9.43505E-01 6.90295E-28
9.45503E-01 6.63024E-28
9.47467E-01 6.36449E-28
9.49397E-01 6.10560E-28
9.51293E-01 5.85344E-28
9.53154E-01 5.60790E-28
9.54981E-01 5.36887E-28
9.56773E-01 5.13624E-28
9.58530E-01 4.90990E-28
9.60252E-01 4.68975E-28
9.61940E-01 4.47570E-28
9.63592E-01 4.26765E-28
9.65209E-01 4.06550E-28
9.66790E-01 3.86916E-28
9.68336E-01 3.67856E-28
9.69846E-01 3.49360E-28
9.71321E-01 3.31420E-28
9.72759E-01 3.14029E-28
9.74162E-01 2.97178E-28
9.75528E-01 2.80860E-28
9.76858E-01 2.65069E-28
9.78152E-01 2.49797E-28
9.79410E-01 2.35037E-28
9.80631E-01 2.20784E-28
9.81815E-01 2.07030E-28
9.82963E-01 1.93771E-28
9.84074E-01 1.80999E-28
9.85148E-01 1.68711E-28
9.86185E-01 1.56899E-28
9.87185E-01 1.45560E-28
9.88148E-01 1.34689E-28
9.89074E-01 1.24280E-28
9.89962E-01 1.14329E-28
9.90814E-01 1.04833E-28
9.91627E-01 9.57861E-29
9.92404E-01 8.71856E-29
9.93143E-01 7.90275E-29
9.93844E-01 7.13084E-29
9.94508E-01 6.40249E-29
9.95134E-01 5.71739E-29
9.95722E-01 5.07526E-29
9.96273E-01 4.47581E-29
9.96786E-01 3.91881E-29
9.97261E-01 3.40400E-29
9.97698E-01 2.93118E-29
9.98097E-01 2.50013E-29
9.98459E-01 2.11069E-29
9.98782E-01 1.76268E-29
9.99067E-01 1.45596E-29
9.99315E-01 1.19039E-29
9.99524E-01 9.65872E-30
9.99695E-01 7.82303E-30
9.99829E-01 6.39609E-30
9.99924E-01 5.37726E-30
9.99981E-01 4.76615E-30
1.00000E+00 4.56240E-30
