 #
 # Subroutine ELSEPA. Elastic scattering of electrons and positrons
 #                    by neutral atoms and positive ions
 #
 # Projectile: electron
 # Kinetic energy = 5.00000E+08 eV = 1.83747E+07 a.u.
 #
 # WARNING: High-energy factorization with free-atom DF screening.
 #          Absorption, polarization and exchange corrections are
 #          switched off.
 #          Phase shifts are calculated for the bare nucleus.
 #          Scattering amplitudes are not evaluated.
 #
 # Element: Ni,  Z =  28,  atomic weight = 5.86934E+01 g/mol
 #
 # Nuclear model: Fermi distribution
 #                Average radius = 4.15828E-13 cm
 #                Skin thickness = 5.46000E-14 cm
 #
 # Number of electrons = 28
 #
 # Total elastic cross section = 1.96688E-18 cm**2 = 7.02385E-02 a0**2
 # 1st transport cross section = 6.46878E-27 cm**2 = 2.31004E-10 a0**2
 # 2nd transport cross section = 1.93970E-26 cm**2 = 6.92678E-10 a0**2
 #
 #
 # Differential cross section:                       MU=(1-COS(THETA))/2
 #
 #  THETA        MU          DCS          DCS        Sherman      error
 #  (deg)                 (cm**2/sr)   (a0**2/sr)    function
 #----------------------------------------------------------------------
0.00000E+00 4.08839E-09
7.61557E-13 3.83440E-09
1.18994E-12 3.70249E-09
1.71346E-12 3.55159E-09
2.33225E-12 3.38619E-09
3.04617E-12 3.21103E-09
3.85530E-12 3.03049E-09
4.75964E-12 2.84849E-09
5.75917E-12 2.66837E-09
6.85391E-12 2.49257E-09
8.04379E-12 2.32331E-09
9.32893E-12 2.16224E-09
1.07092E-11 2.01034E-09
1.21847E-11 1.86813E-09
1.37554E-11 1.73577E-09
1.54213E-11 1.61316E-09
1.71823E-11 1.50000E-09
1.90386E-11 1.39583E-09
2.09900E-11 1.30013E-09
2.30367E-11 1.21230E-09
2.51785E-11 1.13173E-09
2.74156E-11 1.05776E-09
2.97478E-11 9.89908E-10
3.21752E-11 9.27637E-10
3.46979E-11 8.70428E-10
3.73157E-11 8.17807E-10
4.00286E-11 7.69340E-10
4.28368E-11 7.24632E-10
4.57402E-11 6.83326E-10
4.87388E-11 6.45099E-10
5.18325E-11 6.09664E-10
5.50215E-11 5.76760E-10
5.83057E-11 5.46103E-10
6.16850E-11 5.17535E-10
6.51595E-11 4.90881E-10
6.87293E-11 4.65971E-10
7.23943E-11 4.42659E-10
7.61544E-11 4.20811E-10
1.18991E-10 2.57787E-10
1.71347E-10 1.66738E-10
2.33223E-10 1.10676E-10
3.04617E-10 7.50307E-11
3.85531E-10 5.19010E-11
4.75965E-10 3.66446E-11
5.75917E-10 2.64195E-11
6.85389E-10 1.94410E-11
8.04380E-10 1.46043E-11
9.32891E-10 1.11892E-11
1.07092E-09 8.72916E-12
1.21847E-09 6.92261E-12
1.37554E-09 5.57135E-12
1.54213E-09 4.54301E-12
1.71823E-09 3.74772E-12
1.90386E-09 3.12348E-12
2.09900E-09 2.62689E-12
2.30367E-09 2.22705E-12
2.51785E-09 1.90112E-12
2.74156E-09 1.63301E-12
2.97478E-09 1.41075E-12
3.21752E-09 1.22506E-12
3.46978E-09 1.06883E-12
3.73156E-09 9.36536E-13
4.00286E-09 8.23861E-13
4.28368E-09 7.27396E-13
4.57402E-09 6.44421E-13
4.87388E-09 5.72747E-13
5.18326E-09 5.10595E-13
5.50215E-09 4.56507E-13
5.83057E-09 4.09250E-13
6.16850E-09 3.67857E-13
6.51596E-09 3.31493E-13
6.87293E-09 2.99449E-13
7.23942E-09 2.71131E-13
7.61544E-09 2.46039E-13
1.18991E-08 1.03552E-13
1.71347E-08 5.07680E-14
2.33223E-08 2.77638E-14
3.04617E-08 1.64576E-14
3.85531E-08 1.03743E-14
4.75965E-08 6.86291E-15
5.75917E-08 4.71984E-15
6.85389E-08 3.35146E-15
8.04380E-08 2.44468E-15
9.32891E-08 1.82460E-15
1.07092E-07 1.38897E-15
1.21847E-07 1.07577E-15
1.37554E-07 8.45964E-16
1.54213E-07 6.74295E-16
1.71823E-07 5.43983E-16
1.90386E-07 4.43646E-16
2.09900E-07 3.65387E-16
2.30367E-07 3.03628E-16
2.51785E-07 2.54369E-16
2.74156E-07 2.14698E-16
2.97478E-07 1.82461E-16
3.21752E-07 1.56048E-16
3.46978E-07 1.34242E-16
3.73156E-07 1.16114E-16
4.00286E-07 1.00942E-16
4.28368E-07 8.81685E-17
4.57402E-07 7.73517E-17
4.87388E-07 6.81432E-17
5.18325E-07 6.02644E-17
5.50215E-07 5.34916E-17
5.83057E-07 4.76438E-17
6.16850E-07 4.25734E-17
6.51596E-07 3.81596E-17
6.87293E-07 3.43032E-17
7.23942E-07 3.09217E-17
7.61543E-07 2.79466E-17
1.18991E-06 1.14556E-17
1.71347E-06 5.52680E-18
2.33223E-06 2.98407E-18
3.04617E-06 1.74959E-18
3.85531E-06 1.09246E-18
4.75964E-06 7.16881E-19
5.75916E-06 4.89714E-19
6.85388E-06 3.45820E-19
8.04378E-06 2.51109E-19
9.32888E-06 1.86716E-19
1.07092E-05 1.41705E-19
1.21846E-05 1.09478E-19
1.37553E-05 8.59148E-20
1.54212E-05 6.83642E-20
1.71822E-05 5.50756E-20
1.90385E-05 4.48625E-20
2.09899E-05 3.69173E-20
2.30365E-05 3.06552E-20
2.51783E-05 2.56653E-20
2.74153E-05 2.16498E-20
2.97475E-05 1.83894E-20
3.21749E-05 1.57205E-20
3.46974E-05 1.35190E-20
3.73152E-05 1.16901E-20
4.00281E-05 1.01607E-20
4.28362E-05 8.87362E-21
4.57395E-05 7.78409E-21
4.87380E-05 6.85673E-21
5.18317E-05 6.06338E-21
5.50205E-05 5.38149E-21
5.83045E-05 4.79282E-21
6.16838E-05 4.28252E-21
6.51582E-05 3.83842E-21
6.87277E-05 3.45050E-21
7.23925E-05 3.11041E-21
7.61524E-05 2.79741E-21
9.21439E-05 1.90890E-21
1.09658E-04 1.34628E-21
1.28695E-04 9.76156E-22
1.49255E-04 7.24620E-22
1.71338E-04 5.48922E-22
1.94942E-04 4.23207E-22
2.20070E-04 3.31365E-22
2.46720E-04 2.63023E-22
2.74892E-04 2.11327E-22
3.04586E-04 1.71652E-22
3.35803E-04 1.40798E-22
3.68542E-04 1.16519E-22
4.02802E-04 9.72074E-23
4.38585E-04 8.16949E-23
4.75889E-04 6.91223E-23
5.14715E-04 5.88477E-23
5.55063E-04 5.03873E-23
5.96931E-04 4.33714E-23
6.40321E-04 3.75155E-23
6.85233E-04 3.25981E-23
7.31665E-04 2.84454E-23
7.79618E-04 2.49200E-23
8.29092E-04 2.19122E-23
8.80086E-04 1.93343E-23
9.32601E-04 1.71152E-23
9.86636E-04 1.51970E-23
1.04219E-03 1.35327E-23
1.09927E-03 1.20833E-23
1.15786E-03 1.08168E-23
1.21797E-03 9.70644E-24
1.27961E-03 8.72999E-24
1.34276E-03 7.86878E-24
1.40743E-03 7.10711E-24
1.47362E-03 6.43169E-24
1.54133E-03 5.83123E-24
1.61056E-03 5.29615E-24
1.68131E-03 4.81823E-24
1.75357E-03 4.39044E-24
1.82735E-03 4.00671E-24
1.90265E-03 3.66183E-24
1.97947E-03 3.35127E-24
2.05780E-03 3.07110E-24
2.13765E-03 2.81791E-24
2.21902E-03 2.58871E-24
2.30190E-03 2.38091E-24
2.38630E-03 2.19220E-24
2.47222E-03 2.02059E-24
2.55965E-03 1.86430E-24
2.64859E-03 1.72177E-24
2.73905E-03 1.59161E-24
2.83103E-03 1.47261E-24
2.92452E-03 1.36367E-24
3.01952E-03 1.26382E-24
3.11604E-03 1.17221E-24
3.21407E-03 1.08806E-24
3.31362E-03 1.01069E-24
3.41468E-03 9.39468E-25
3.51725E-03 8.73852E-25
3.62133E-03 8.13340E-25
3.72692E-03 7.57486E-25
3.83403E-03 7.05886E-25
3.94265E-03 6.58175E-25
4.05278E-03 6.14024E-25
4.16442E-03 5.73136E-25
4.27757E-03 5.35240E-25
4.39223E-03 5.00092E-25
4.50840E-03 4.67470E-25
4.62608E-03 4.37170E-25
4.74527E-03 4.09010E-25
4.86597E-03 3.82821E-25
4.98817E-03 3.58450E-25
5.11188E-03 3.35758E-25
5.23711E-03 3.14616E-25
5.36383E-03 2.94908E-25
5.49207E-03 2.76527E-25
5.62181E-03 2.59374E-25
5.75306E-03 2.43360E-25
5.88581E-03 2.28401E-25
6.02007E-03 2.14421E-25
6.15583E-03 2.01351E-25
6.29310E-03 1.89125E-25
6.43187E-03 1.77685E-25
6.57214E-03 1.66976E-25
6.71392E-03 1.56946E-25
6.85720E-03 1.47550E-25
7.00198E-03 1.38744E-25
7.14827E-03 1.30488E-25
7.29605E-03 1.22745E-25
7.44534E-03 1.15481E-25
7.59612E-03 1.08664E-25
7.97965E-03 9.33891E-26
8.37255E-03 8.03251E-26
8.77480E-03 6.91339E-26
9.18641E-03 5.95333E-26
9.60736E-03 5.12866E-26
1.00376E-02 4.41949E-26
1.04773E-02 3.80903E-26
1.09262E-02 3.28310E-26
1.13844E-02 2.82965E-26
1.18520E-02 2.43847E-26
1.23288E-02 2.10083E-26
1.28150E-02 1.80930E-26
1.33104E-02 1.55751E-26
1.38150E-02 1.34002E-26
1.43290E-02 1.15215E-26
1.48521E-02 9.89866E-27
1.53845E-02 8.49719E-27
1.59262E-02 7.28719E-27
1.64770E-02 6.24291E-27
1.70371E-02 5.34210E-27
1.76063E-02 4.56551E-27
1.81848E-02 3.89648E-27
1.87724E-02 3.32060E-27
1.93692E-02 2.82536E-27
1.99751E-02 2.39991E-27
2.05901E-02 2.03484E-27
2.12143E-02 1.72200E-27
2.18476E-02 1.45429E-27
2.24900E-02 1.22556E-27
2.31415E-02 1.03047E-27
2.38021E-02 8.64393E-28
2.44717E-02 7.23291E-28
2.51504E-02 6.03677E-28
2.58382E-02 5.02521E-28
2.65349E-02 4.17200E-28
2.72407E-02 3.45438E-28
2.79555E-02 2.85267E-28
2.86793E-02 2.34983E-28
2.94120E-02 1.93115E-28
3.01537E-02 1.58394E-28
3.09043E-02 1.29725E-28
3.16639E-02 1.06166E-28
3.24324E-02 8.69070E-29
3.32098E-02 7.12546E-29
3.39961E-02 5.86143E-29
3.47912E-02 4.84784E-29
3.55952E-02 4.04145E-29
3.64081E-02 3.40552E-29
3.72297E-02 2.90891E-29
3.80602E-02 2.52535E-29
3.88995E-02 2.23274E-29
3.97476E-02 2.01255E-29
4.06044E-02 1.84938E-29
4.14700E-02 1.73041E-29
4.23443E-02 1.64512E-29
4.32273E-02 1.58489E-29
4.41190E-02 1.54272E-29
4.50194E-02 1.51300E-29
4.59284E-02 1.49128E-29
4.68461E-02 1.47407E-29
4.87074E-02 1.44317E-29
5.06030E-02 1.40629E-29
5.25328E-02 1.35675E-29
5.44967E-02 1.29266E-29
5.64946E-02 1.21498E-29
5.85262E-02 1.12632E-29
6.05914E-02 1.03000E-29
6.26901E-02 9.29476E-30
6.48222E-02 8.27980E-30
6.69873E-02 7.28322E-30
6.91854E-02 6.32784E-30
7.14163E-02 5.43103E-30
7.36799E-02 4.60490E-30
7.59760E-02 3.85689E-30
7.83043E-02 3.19039E-30
8.06647E-02 2.60549E-30
8.30571E-02 2.09973E-30
8.54812E-02 1.66869E-30
8.79369E-02 1.30664E-30
9.04240E-02 1.00704E-30
9.29422E-02 7.62947E-31
9.54915E-02 5.67332E-31
9.80716E-02 4.13368E-31
1.00682E-01 2.94602E-31
1.03323E-01 2.05083E-31
1.05995E-01 1.39439E-31
1.08696E-01 9.29183E-32
1.11427E-01 6.13945E-32
1.14188E-01 4.13474E-32
1.16978E-01 2.98296E-32
1.19797E-01 2.44193E-32
1.22645E-01 2.31674E-32
1.25522E-01 2.45405E-32
1.28428E-01 2.73645E-32
1.31361E-01 3.07689E-32
1.34323E-01 3.41356E-32
1.37313E-01 3.70516E-32
1.40330E-01 3.92667E-32
1.43375E-01 4.06563E-32
1.46447E-01 4.11897E-32
1.49545E-01 4.09037E-32
1.52671E-01 3.98802E-32
1.55823E-01 3.82286E-32
1.59001E-01 3.60721E-32
1.62205E-01 3.35370E-32
1.65435E-01 3.07448E-32
1.68690E-01 2.78076E-32
1.71970E-01 2.48240E-32
1.75276E-01 2.18775E-32
1.78606E-01 1.90361E-32
1.81961E-01 1.63526E-32
1.85340E-01 1.38652E-32
1.88743E-01 1.15992E-32
1.92169E-01 9.56871E-33
1.95619E-01 7.77798E-33
1.99092E-01 6.22354E-33
2.02589E-01 4.89574E-33
2.06107E-01 3.78031E-33
2.09649E-01 2.85978E-33
2.13212E-01 2.11469E-33
2.16797E-01 1.52462E-33
2.20404E-01 1.06904E-33
2.24032E-01 7.27978E-34
2.27680E-01 4.82534E-34
2.31350E-01 3.15227E-34
2.35040E-01 2.10243E-34
2.38751E-01 1.53563E-34
2.42481E-01 1.33011E-34
2.46231E-01 1.38216E-34
2.50000E-01 1.60544E-34
2.53788E-01 1.92970E-34
2.57595E-01 2.29936E-34
2.61421E-01 2.67190E-34
2.65264E-01 3.01618E-34
2.69126E-01 3.31078E-34
2.73005E-01 3.54236E-34
2.76901E-01 3.70419E-34
2.80814E-01 3.79473E-34
2.84744E-01 3.81641E-34
2.88691E-01 3.77456E-34
2.92653E-01 3.67644E-34
2.96632E-01 3.53052E-34
3.00625E-01 3.34580E-34
3.04634E-01 3.13130E-34
3.08658E-01 2.89573E-34
3.12697E-01 2.64715E-34
3.16749E-01 2.39280E-34
3.20816E-01 2.13901E-34
3.24896E-01 1.89109E-34
3.28990E-01 1.65337E-34
3.33097E-01 1.42923E-34
3.37216E-01 1.22113E-34
3.41348E-01 1.03074E-34
3.45492E-01 8.58977E-35
3.49647E-01 7.06169E-35
3.53814E-01 5.72104E-35
3.57992E-01 4.56157E-35
3.62181E-01 3.57372E-35
3.66381E-01 2.74550E-35
3.70590E-01 2.06329E-35
3.74810E-01 1.51247E-35
3.79039E-01 1.07801E-35
3.83277E-01 7.44949E-36
3.87524E-01 4.98763E-36
3.91780E-01 3.25668E-36
3.96044E-01 2.12848E-36
4.00316E-01 1.48594E-36
4.04596E-01 1.22389E-36
4.08882E-01 1.24965E-36
4.13176E-01 1.48279E-36
4.17476E-01 1.85495E-36
4.21783E-01 2.30911E-36
4.26095E-01 2.79886E-36
4.30413E-01 3.28739E-36
4.34737E-01 3.74658E-36
4.39065E-01 4.15586E-36
4.43398E-01 4.50126E-36
4.47736E-01 4.77433E-36
4.52077E-01 4.97125E-36
4.56422E-01 5.09190E-36
4.60770E-01 5.13907E-36
4.65122E-01 5.11775E-36
4.69476E-01 5.03449E-36
4.73832E-01 4.89687E-36
4.78190E-01 4.71301E-36
4.82550E-01 4.49122E-36
4.86912E-01 4.23970E-36
4.91274E-01 3.96630E-36
4.95637E-01 3.67831E-36
5.00000E-01 3.38239E-36
5.04363E-01 3.08444E-36
5.08726E-01 2.78963E-36
5.13088E-01 2.50230E-36
5.17450E-01 2.22603E-36
5.21810E-01 1.96368E-36
5.26168E-01 1.71739E-36
5.30524E-01 1.48871E-36
5.34878E-01 1.27858E-36
5.39230E-01 1.08749E-36
5.43578E-01 9.15461E-37
5.47923E-01 7.62167E-37
5.52264E-01 6.26991E-37
5.56602E-01 5.09079E-37
5.60935E-01 4.07397E-37
5.65263E-01 3.20791E-37
5.69587E-01 2.48007E-37
5.73905E-01 1.87769E-37
5.78217E-01 1.38770E-37
5.82524E-01 9.97434E-38
5.86824E-01 6.94417E-38
5.91118E-01 4.66868E-38
5.95404E-01 3.03709E-38
5.99684E-01 1.94670E-38
6.03956E-01 1.30308E-38
6.08220E-01 1.02125E-38
6.12476E-01 1.02493E-38
6.16723E-01 1.24704E-38
6.20961E-01 1.62898E-38
6.25190E-01 2.12036E-38
6.29410E-01 2.67842E-38
6.33619E-01 3.26757E-38
6.37819E-01 3.85873E-38
6.42008E-01 4.42869E-38
6.46186E-01 4.95952E-38
6.50353E-01 5.43785E-38
6.54508E-01 5.85439E-38
6.58652E-01 6.20325E-38
6.62784E-01 6.48175E-38
6.66903E-01 6.68913E-38
6.71010E-01 6.82699E-38
6.75104E-01 6.89832E-38
6.79184E-01 6.90740E-38
6.83251E-01 6.85911E-38
6.87303E-01 6.75937E-38
6.91342E-01 6.61385E-38
6.95366E-01 6.42876E-38
6.99375E-01 6.21015E-38
7.03368E-01 5.96398E-38
7.07347E-01 5.69562E-38
7.11309E-01 5.41060E-38
7.15256E-01 5.11362E-38
7.19186E-01 4.80914E-38
7.23099E-01 4.50139E-38
7.26995E-01 4.19378E-38
7.30874E-01 3.88942E-38
7.34736E-01 3.59100E-38
7.38579E-01 3.30091E-38
7.42405E-01 3.02108E-38
7.46212E-01 2.75285E-38
7.50000E-01 2.49753E-38
7.53769E-01 2.25621E-38
7.57519E-01 2.02914E-38
7.61249E-01 1.81690E-38
7.64960E-01 1.61952E-38
7.68650E-01 1.43695E-38
7.72320E-01 1.26894E-38
7.75968E-01 1.11507E-38
7.79596E-01 9.74921E-39
7.83203E-01 8.47815E-39
7.86788E-01 7.33164E-39
7.90351E-01 6.30244E-39
7.93893E-01 5.38294E-39
7.97411E-01 4.56647E-39
8.00908E-01 3.84481E-39
8.04381E-01 3.21108E-39
8.07831E-01 2.65762E-39
8.11257E-01 2.17776E-39
8.14660E-01 1.76454E-39
8.18039E-01 1.41176E-39
8.21394E-01 1.11314E-39
8.24724E-01 8.63203E-40
8.28030E-01 1.00000E-45
8.31310E-01 1.00000E-45
8.34565E-01 1.00000E-45
8.37795E-01 1.00000E-45
8.40999E-01 1.00000E-45
8.44177E-01 1.00000E-45
8.47329E-01 1.00000E-45
8.50455E-01 1.00000E-45
8.53553E-01 1.00000E-45
8.56625E-01 1.00000E-45
8.59670E-01 1.00000E-45
8.62687E-01 1.00000E-45
8.65677E-01 1.00000E-45
8.68639E-01 1.00000E-45
8.71572E-01 1.00000E-45
8.74478E-01 1.00000E-45
8.77355E-01 1.00000E-45
8.80203E-01 1.00000E-45
8.83022E-01 1.00000E-45
8.85812E-01 1.00000E-45
8.88573E-01 1.00000E-45
8.91304E-01 1.00000E-45
8.94005E-01 1.00000E-45
8.96677E-01 1.00000E-45
8.99318E-01 1.00000E-45
9.01928E-01 1.00000E-45
9.04508E-01 1.00000E-45
9.07058E-01 1.00000E-45
9.09576E-01 1.00000E-45
9.12063E-01 1.00000E-45
9.14519E-01 1.00000E-45
9.16943E-01 1.00000E-45
9.19335E-01 1.00000E-45
9.21696E-01 1.00000E-45
9.24024E-01 1.00000E-45
9.26320E-01 1.00000E-45
9.28584E-01 1.00000E-45
9.30815E-01 1.00000E-45
9.33013E-01 1.00000E-45
9.35178E-01 1.00000E-45
9.37310E-01 1.00000E-45
9.39409E-01 1.00000E-45
9.41474E-01 1.00000E-45
9.43505E-01 1.00000E-45
9.45503E-01 1.00000E-45
9.47467E-01 1.00000E-45
9.49397E-01 1.00000E-45
9.51293E-01 1.00000E-45
9.53154E-01 1.00000E-45
9.54981E-01 1.00000E-45
9.56773E-01 1.00000E-45
9.58530E-01 1.00000E-45
9.60252E-01 1.00000E-45
9.61940E-01 1.00000E-45
9.63592E-01 1.00000E-45
9.65209E-01 1.00000E-45
9.66790E-01 1.00000E-45
9.68336E-01 1.00000E-45
9.69846E-01 1.00000E-45
9.71321E-01 1.00000E-45
9.72759E-01 1.00000E-45
9.74162E-01 1.00000E-45
9.75528E-01 1.00000E-45
9.76858E-01 1.00000E-45
9.78152E-01 1.00000E-45
9.79410E-01 1.00000E-45
9.80631E-01 1.00000E-45
9.81815E-01 1.00000E-45
9.82963E-01 1.00000E-45
9.84074E-01 1.00000E-45
9.85148E-01 1.00000E-45
9.86185E-01 1.00000E-45
9.87185E-01 1.00000E-45
9.88148E-01 1.00000E-45
9.89074E-01 1.00000E-45
9.89962E-01 1.00000E-45
9.90814E-01 1.00000E-45
9.91627E-01 1.00000E-45
9.92404E-01 1.00000E-45
9.93143E-01 1.00000E-45
9.93844E-01 1.00000E-45
9.94508E-01 1.00000E-45
9.95134E-01 1.00000E-45
9.95722E-01 1.00000E-45
9.96273E-01 1.00000E-45
9.96786E-01 1.00000E-45
9.97261E-01 1.00000E-45
9.97698E-01 1.00000E-45
9.98097E-01 1.00000E-45
9.98459E-01 1.00000E-45
9.98782E-01 1.00000E-45
9.99067E-01 1.00000E-45
9.99315E-01 1.00000E-45
9.99524E-01 1.00000E-45
9.99695E-01 1.00000E-45
9.99829E-01 1.00000E-45
9.99924E-01 1.00000E-45
9.99981E-01 1.00000E-45
1.00000E+00 1.00000E-45
