 #
 # Subroutine ELSEPA. Elastic scattering of electrons and positrons
 #                    by neutral atoms and positive ions
 #
 # Projectile: electron
 # Kinetic energy = 3.50000E+07 eV = 1.28623E+06 a.u.
 #
 # WARNING: High-energy factorization with free-atom DF screening.
 #          Absorption, polarization and exchange corrections are
 #          switched off.
 #          Phase shifts are calculated for the bare nucleus.
 #          Scattering amplitudes are not evaluated.
 #
 # Element: Ni,  Z =  28,  atomic weight = 5.86934E+01 g/mol
 #
 # Nuclear model: Fermi distribution
 #                Average radius = 4.15828E-13 cm
 #                Skin thickness = 5.46000E-14 cm
 #
 # Number of electrons = 28
 #
 # Total elastic cross section = 1.97018E-18 cm**2 = 7.03563E-02 a0**2
 # 1st transport cross section = 1.23091E-24 cm**2 = 4.39565E-08 a0**2
 # 2nd transport cross section = 3.57529E-24 cm**2 = 1.27676E-07 a0**2
 #
 #
 # Differential cross section:                       MU=(1-COS(THETA))/2
 #
 #  THETA        MU          DCS          DCS        Sherman      error
 #  (deg)                 (cm**2/sr)   (a0**2/sr)    function
 #----------------------------------------------------------------------
0.00000E+00 2.05803E-11
7.61557E-13 2.05734E-11
1.18994E-12 2.05696E-11
1.71346E-12 2.05649E-11
2.33225E-12 2.05594E-11
3.04617E-12 2.05531E-11
3.85530E-12 2.05459E-11
4.75964E-12 2.05378E-11
5.75917E-12 2.05289E-11
6.85391E-12 2.05192E-11
8.04379E-12 2.05087E-11
9.32893E-12 2.04973E-11
1.07092E-11 2.04851E-11
1.21847E-11 2.04720E-11
1.37554E-11 2.04582E-11
1.54213E-11 2.04435E-11
1.71823E-11 2.04280E-11
1.90386E-11 2.04116E-11
2.09900E-11 2.03945E-11
2.30367E-11 2.03765E-11
2.51785E-11 2.03578E-11
2.74156E-11 2.03382E-11
2.97478E-11 2.03179E-11
3.21752E-11 2.02967E-11
3.46979E-11 2.02748E-11
3.73157E-11 2.02520E-11
4.00286E-11 2.02285E-11
4.28368E-11 2.02042E-11
4.57402E-11 2.01792E-11
4.87388E-11 2.01534E-11
5.18325E-11 2.01268E-11
5.50215E-11 2.00994E-11
5.83057E-11 2.00713E-11
6.16850E-11 2.00425E-11
6.51595E-11 2.00129E-11
6.87293E-11 1.99826E-11
7.23943E-11 1.99515E-11
7.61544E-11 1.99198E-11
1.18991E-10 1.95636E-11
1.71347E-10 1.91426E-11
2.33223E-10 1.86622E-11
3.04617E-10 1.81349E-11
3.85531E-10 1.75664E-11
4.75965E-10 1.69643E-11
5.75917E-10 1.63413E-11
6.85389E-10 1.56999E-11
8.04380E-10 1.50502E-11
9.32891E-10 1.44020E-11
1.07092E-09 1.37537E-11
1.21847E-09 1.31164E-11
1.37554E-09 1.24958E-11
1.54213E-09 1.18869E-11
1.71823E-09 1.13009E-11
1.90386E-09 1.07382E-11
2.09900E-09 1.01956E-11
2.30367E-09 9.67978E-12
2.51785E-09 9.18879E-12
2.74156E-09 8.72107E-12
2.97478E-09 8.27980E-12
3.21752E-09 7.86192E-12
3.46978E-09 7.46692E-12
3.73156E-09 7.09587E-12
4.00286E-09 6.74528E-12
4.28368E-09 6.41540E-12
4.57402E-09 6.10612E-12
4.87388E-09 5.81388E-12
5.18326E-09 5.53957E-12
5.50215E-09 5.28244E-12
5.83057E-09 5.03905E-12
6.16850E-09 4.81082E-12
6.51596E-09 4.59635E-12
6.87293E-09 4.39336E-12
7.23942E-09 4.20273E-12
7.61544E-09 4.02297E-12
1.18991E-08 2.67992E-12
1.71347E-08 1.86600E-12
2.33223E-08 1.31774E-12
3.04617E-08 9.69184E-13
3.85531E-08 7.17676E-13
4.75965E-08 5.36337E-13
5.75917E-08 4.08255E-13
6.85389E-08 3.11755E-13
8.04380E-08 2.41032E-13
9.32891E-08 1.88902E-13
1.07092E-07 1.48996E-13
1.21847E-07 1.19028E-13
1.37554E-07 9.61827E-14
1.54213E-07 7.83703E-14
1.71823E-07 6.45670E-14
1.90386E-07 5.37026E-14
2.09900E-07 4.50439E-14
2.30367E-07 3.81110E-14
2.51785E-07 3.24944E-14
2.74156E-07 2.78992E-14
2.97478E-07 2.41168E-14
3.21752E-07 2.09715E-14
3.46978E-07 1.83355E-14
3.73156E-07 1.61155E-14
4.00286E-07 1.42270E-14
4.28368E-07 1.26133E-14
4.57402E-07 1.12289E-14
4.87388E-07 1.00276E-14
5.18325E-07 8.98555E-15
5.50215E-07 8.07842E-15
5.83057E-07 7.28008E-15
6.16850E-07 6.57964E-15
6.51596E-07 5.96199E-15
6.87293E-07 5.41300E-15
7.23942E-07 4.92636E-15
7.61543E-07 4.49261E-15
1.18991E-06 1.95953E-15
1.71347E-06 9.75368E-16
2.33223E-06 5.35780E-16
3.04617E-06 3.18028E-16
3.85531E-06 2.00552E-16
4.75964E-06 1.32775E-16
5.75916E-06 9.14266E-17
6.85388E-06 6.50288E-17
8.04378E-06 4.75273E-17
9.32888E-06 3.55412E-17
1.07092E-05 2.71102E-17
1.21846E-05 2.10378E-17
1.37553E-05 1.65733E-17
1.54212E-05 1.32324E-17
1.71822E-05 1.06915E-17
1.90385E-05 8.73110E-18
2.09899E-05 7.20093E-18
2.30365E-05 5.99101E-18
2.51783E-05 5.02437E-18
2.74153E-05 4.24459E-18
2.97475E-05 3.61008E-18
3.21749E-05 3.08969E-18
3.46974E-05 2.65970E-18
3.73152E-05 2.30197E-18
4.00281E-05 2.00240E-18
4.28362E-05 1.74999E-18
4.57395E-05 1.53610E-18
4.87380E-05 1.35386E-18
5.18317E-05 1.19782E-18
5.50205E-05 1.06360E-18
5.83045E-05 9.47642E-19
6.16838E-05 8.47059E-19
6.51582E-05 7.59475E-19
6.87277E-05 6.82926E-19
7.23925E-05 6.15787E-19
7.61524E-05 5.56706E-19
9.21439E-05 3.80739E-19
1.09658E-04 2.69114E-19
1.28695E-04 1.95569E-19
1.49255E-04 1.45516E-19
1.71338E-04 1.10506E-19
1.94942E-04 8.54224E-20
2.20070E-04 6.70719E-20
2.46720E-04 5.33973E-20
2.74892E-04 4.30383E-20
3.04586E-04 3.50757E-20
3.35803E-04 2.88733E-20
3.68542E-04 2.39843E-20
4.02802E-04 2.00884E-20
4.38585E-04 1.69530E-20
4.75889E-04 1.44068E-20
5.14715E-04 1.23215E-20
5.55063E-04 1.06006E-20
5.96931E-04 9.17024E-21
6.40321E-04 7.97345E-21
6.85233E-04 6.96590E-21
7.31665E-04 6.11277E-21
7.79618E-04 5.38650E-21
8.29092E-04 4.76508E-21
8.80086E-04 4.23087E-21
9.32601E-04 3.76957E-21
9.86636E-04 3.36954E-21
1.04219E-03 3.02127E-21
1.09927E-03 2.71692E-21
1.15786E-03 2.45001E-21
1.21797E-03 2.21513E-21
1.27961E-03 2.00778E-21
1.34276E-03 1.82418E-21
1.40743E-03 1.66112E-21
1.47362E-03 1.51591E-21
1.54133E-03 1.38626E-21
1.61056E-03 1.27020E-21
1.68131E-03 1.16605E-21
1.75357E-03 1.07239E-21
1.82735E-03 9.87956E-22
1.90265E-03 9.11689E-22
1.97947E-03 8.42656E-22
2.05780E-03 7.80047E-22
2.13765E-03 7.23157E-22
2.21902E-03 6.71372E-22
2.30190E-03 6.24148E-22
2.38630E-03 5.81013E-22
2.47222E-03 5.41549E-22
2.55965E-03 5.05386E-22
2.64859E-03 4.72198E-22
2.73905E-03 4.41696E-22
2.83103E-03 4.13623E-22
2.92452E-03 3.87750E-22
3.01952E-03 3.63873E-22
3.11604E-03 3.41810E-22
3.21407E-03 3.21398E-22
3.31362E-03 3.02491E-22
3.41468E-03 2.84956E-22
3.51725E-03 2.68678E-22
3.62133E-03 2.53547E-22
3.72692E-03 2.39470E-22
3.83403E-03 2.26358E-22
3.94265E-03 2.14133E-22
4.05278E-03 2.02725E-22
4.16442E-03 1.92068E-22
4.27757E-03 1.82104E-22
4.39223E-03 1.72779E-22
4.50840E-03 1.64045E-22
4.62608E-03 1.55858E-22
4.74527E-03 1.48176E-22
4.86597E-03 1.40963E-22
4.98817E-03 1.34184E-22
5.11188E-03 1.27809E-22
5.23711E-03 1.21809E-22
5.36383E-03 1.16158E-22
5.49207E-03 1.10831E-22
5.62181E-03 1.05807E-22
5.75306E-03 1.01066E-22
5.88581E-03 9.65874E-23
6.02007E-03 9.23550E-23
6.15583E-03 8.83524E-23
6.29310E-03 8.45648E-23
6.43187E-03 8.09785E-23
6.57214E-03 7.75809E-23
6.71392E-03 7.43599E-23
6.85720E-03 7.13048E-23
7.00198E-03 6.84053E-23
7.14827E-03 6.56522E-23
7.29605E-03 6.30365E-23
7.44534E-03 6.05500E-23
7.59612E-03 5.81852E-23
7.97965E-03 5.27603E-23
8.37255E-03 4.79545E-23
8.77480E-03 4.36847E-23
9.18641E-03 3.98807E-23
9.60736E-03 3.64827E-23
1.00376E-02 3.34398E-23
1.04773E-02 3.07082E-23
1.09262E-02 2.82504E-23
1.13844E-02 2.60341E-23
1.18520E-02 2.40313E-23
1.23288E-02 2.22178E-23
1.28150E-02 2.05725E-23
1.33104E-02 1.90769E-23
1.38150E-02 1.77149E-23
1.43290E-02 1.64725E-23
1.48521E-02 1.53373E-23
1.53845E-02 1.42984E-23
1.59262E-02 1.33460E-23
1.64770E-02 1.24717E-23
1.70371E-02 1.16679E-23
1.76063E-02 1.09278E-23
1.81848E-02 1.02456E-23
1.87724E-02 9.61575E-24
1.93692E-02 9.03361E-24
1.99751E-02 8.49488E-24
2.05901E-02 7.99571E-24
2.12143E-02 7.53267E-24
2.18476E-02 7.10267E-24
2.24900E-02 6.70289E-24
2.31415E-02 6.33084E-24
2.38021E-02 5.98423E-24
2.44717E-02 5.66100E-24
2.51504E-02 5.35927E-24
2.58382E-02 5.07736E-24
2.65349E-02 4.81372E-24
2.72407E-02 4.56694E-24
2.79555E-02 4.33574E-24
2.86793E-02 4.11896E-24
2.94120E-02 3.91554E-24
3.01537E-02 3.72448E-24
3.09043E-02 3.54491E-24
3.16639E-02 3.37600E-24
3.24324E-02 3.21700E-24
3.32098E-02 3.06723E-24
3.39961E-02 2.92604E-24
3.47912E-02 2.79285E-24
3.55952E-02 2.66712E-24
3.64081E-02 2.54836E-24
3.72297E-02 2.43610E-24
3.80602E-02 2.32994E-24
3.88995E-02 2.22946E-24
3.97476E-02 2.13432E-24
4.06044E-02 2.04417E-24
4.14700E-02 1.95870E-24
4.23443E-02 1.87762E-24
4.32273E-02 1.80068E-24
4.41190E-02 1.72761E-24
4.50194E-02 1.65818E-24
4.59284E-02 1.59218E-24
4.68461E-02 1.52941E-24
4.87074E-02 1.41281E-24
5.06030E-02 1.30703E-24
5.25328E-02 1.21088E-24
5.44967E-02 1.12334E-24
5.64946E-02 1.04350E-24
5.85262E-02 9.70548E-25
6.05914E-02 9.03798E-25
6.26901E-02 8.42624E-25
6.48222E-02 7.86478E-25
6.69873E-02 7.34873E-25
6.91854E-02 6.87376E-25
7.14163E-02 6.43602E-25
7.36799E-02 6.03207E-25
7.59760E-02 5.65884E-25
7.83043E-02 5.31357E-25
8.06647E-02 4.99381E-25
8.30571E-02 4.69732E-25
8.54812E-02 4.42211E-25
8.79369E-02 4.16639E-25
9.04240E-02 3.92852E-25
9.29422E-02 3.70705E-25
9.54915E-02 3.50063E-25
9.80716E-02 3.30807E-25
1.00682E-01 3.12827E-25
1.03323E-01 2.96023E-25
1.05995E-01 2.80306E-25
1.08696E-01 2.65591E-25
1.11427E-01 2.51805E-25
1.14188E-01 2.38877E-25
1.16978E-01 2.26746E-25
1.19797E-01 2.15353E-25
1.22645E-01 2.04646E-25
1.25522E-01 1.94577E-25
1.28428E-01 1.85100E-25
1.31361E-01 1.76174E-25
1.34323E-01 1.67763E-25
1.37313E-01 1.59830E-25
1.40330E-01 1.52345E-25
1.43375E-01 1.45278E-25
1.46447E-01 1.38601E-25
1.49545E-01 1.32288E-25
1.52671E-01 1.26318E-25
1.55823E-01 1.20667E-25
1.59001E-01 1.15316E-25
1.62205E-01 1.10247E-25
1.65435E-01 1.05441E-25
1.68690E-01 1.00884E-25
1.71970E-01 9.65589E-26
1.75276E-01 9.24531E-26
1.78606E-01 8.85533E-26
1.81961E-01 8.48474E-26
1.85340E-01 8.13243E-26
1.88743E-01 7.79733E-26
1.92169E-01 7.47847E-26
1.95619E-01 7.17492E-26
1.99092E-01 6.88584E-26
2.02589E-01 6.61041E-26
2.06107E-01 6.34789E-26
2.09649E-01 6.09757E-26
2.13212E-01 5.85878E-26
2.16797E-01 5.63093E-26
2.20404E-01 5.41341E-26
2.24032E-01 5.20569E-26
2.27680E-01 5.00725E-26
2.31350E-01 4.81761E-26
2.35040E-01 4.63632E-26
2.38751E-01 4.46295E-26
2.42481E-01 4.29710E-26
2.46231E-01 4.13840E-26
2.50000E-01 3.98648E-26
2.53788E-01 3.84101E-26
2.57595E-01 3.70168E-26
2.61421E-01 3.56818E-26
2.65264E-01 3.44023E-26
2.69126E-01 3.31756E-26
2.73005E-01 3.19993E-26
2.76901E-01 3.08709E-26
2.80814E-01 2.97882E-26
2.84744E-01 2.87491E-26
2.88691E-01 2.77515E-26
2.92653E-01 2.67935E-26
2.96632E-01 2.58734E-26
3.00625E-01 2.49893E-26
3.04634E-01 2.41398E-26
3.08658E-01 2.33231E-26
3.12697E-01 2.25379E-26
3.16749E-01 2.17828E-26
3.20816E-01 2.10564E-26
3.24896E-01 2.03575E-26
3.28990E-01 1.96849E-26
3.33097E-01 1.90375E-26
3.37216E-01 1.84141E-26
3.41348E-01 1.78139E-26
3.45492E-01 1.72357E-26
3.49647E-01 1.66787E-26
3.53814E-01 1.61419E-26
3.57992E-01 1.56246E-26
3.62181E-01 1.51259E-26
3.66381E-01 1.46451E-26
3.70590E-01 1.41814E-26
3.74810E-01 1.37341E-26
3.79039E-01 1.33027E-26
3.83277E-01 1.28864E-26
3.87524E-01 1.24846E-26
3.91780E-01 1.20968E-26
3.96044E-01 1.17224E-26
4.00316E-01 1.13609E-26
4.04596E-01 1.10117E-26
4.08882E-01 1.06745E-26
4.13176E-01 1.03487E-26
4.17476E-01 1.00340E-26
4.21783E-01 9.72976E-27
4.26095E-01 9.43576E-27
4.30413E-01 9.15155E-27
4.34737E-01 8.87676E-27
4.39065E-01 8.61106E-27
4.43398E-01 8.35409E-27
4.47736E-01 8.10554E-27
4.52077E-01 7.86509E-27
4.56422E-01 7.63245E-27
4.60770E-01 7.40733E-27
4.65122E-01 7.18946E-27
4.69476E-01 6.97858E-27
4.73832E-01 6.77443E-27
4.78190E-01 6.57678E-27
4.82550E-01 6.38539E-27
4.86912E-01 6.20004E-27
4.91274E-01 6.02051E-27
4.95637E-01 5.84661E-27
5.00000E-01 5.67813E-27
5.04363E-01 5.51489E-27
5.08726E-01 5.35670E-27
5.13088E-01 5.20340E-27
5.17450E-01 5.05480E-27
5.21810E-01 4.91076E-27
5.26168E-01 4.77111E-27
5.30524E-01 4.63570E-27
5.34878E-01 4.50440E-27
5.39230E-01 4.37707E-27
5.43578E-01 4.25356E-27
5.47923E-01 4.13376E-27
5.52264E-01 4.01754E-27
5.56602E-01 3.90478E-27
5.60935E-01 3.79537E-27
5.65263E-01 3.68919E-27
5.69587E-01 3.58615E-27
5.73905E-01 3.48613E-27
5.78217E-01 3.38905E-27
5.82524E-01 3.29480E-27
5.86824E-01 3.20330E-27
5.91118E-01 3.11445E-27
5.95404E-01 3.02818E-27
5.99684E-01 2.94439E-27
6.03956E-01 2.86302E-27
6.08220E-01 2.78398E-27
6.12476E-01 2.70720E-27
6.16723E-01 2.63261E-27
6.20961E-01 2.56014E-27
6.25190E-01 2.48972E-27
6.29410E-01 2.42130E-27
6.33619E-01 2.35481E-27
6.37819E-01 2.29018E-27
6.42008E-01 2.22737E-27
6.46186E-01 2.16632E-27
6.50353E-01 2.10697E-27
6.54508E-01 2.04927E-27
6.58652E-01 1.99317E-27
6.62784E-01 1.93862E-27
6.66903E-01 1.88558E-27
6.71010E-01 1.83400E-27
6.75104E-01 1.78384E-27
6.79184E-01 1.73506E-27
6.83251E-01 1.68760E-27
6.87303E-01 1.64144E-27
6.91342E-01 1.59654E-27
6.95366E-01 1.55286E-27
6.99375E-01 1.51036E-27
7.03368E-01 1.46900E-27
7.07347E-01 1.42877E-27
7.11309E-01 1.38961E-27
7.15256E-01 1.35151E-27
7.19186E-01 1.31443E-27
7.23099E-01 1.27834E-27
7.26995E-01 1.24321E-27
7.30874E-01 1.20902E-27
7.34736E-01 1.17573E-27
7.38579E-01 1.14333E-27
7.42405E-01 1.11179E-27
7.46212E-01 1.08108E-27
7.50000E-01 1.05118E-27
7.53769E-01 1.02206E-27
7.57519E-01 9.93714E-28
7.61249E-01 9.66109E-28
7.64960E-01 9.39227E-28
7.68650E-01 9.13047E-28
7.72320E-01 8.87551E-28
7.75968E-01 8.62719E-28
7.79596E-01 8.38533E-28
7.83203E-01 8.14976E-28
7.86788E-01 7.92029E-28
7.90351E-01 7.69677E-28
7.93893E-01 7.47902E-28
7.97411E-01 7.26691E-28
8.00908E-01 7.06026E-28
8.04381E-01 6.85894E-28
8.07831E-01 6.66280E-28
8.11257E-01 6.47170E-28
8.14660E-01 6.28550E-28
8.18039E-01 6.10409E-28
8.21394E-01 5.92732E-28
8.24724E-01 5.75507E-28
8.28030E-01 5.58724E-28
8.31310E-01 5.42369E-28
8.34565E-01 5.26432E-28
8.37795E-01 5.10901E-28
8.40999E-01 4.95767E-28
8.44177E-01 4.81018E-28
8.47329E-01 4.66645E-28
8.50455E-01 4.52638E-28
8.53553E-01 4.38988E-28
8.56625E-01 4.25685E-28
8.59670E-01 4.12721E-28
8.62687E-01 4.00087E-28
8.65677E-01 3.87774E-28
8.68639E-01 3.75775E-28
8.71572E-01 3.64081E-28
8.74478E-01 3.52684E-28
8.77355E-01 3.41578E-28
8.80203E-01 3.30756E-28
8.83022E-01 3.20209E-28
8.85812E-01 3.09931E-28
8.88573E-01 2.99916E-28
8.91304E-01 2.90156E-28
8.94005E-01 2.80647E-28
8.96677E-01 2.71381E-28
8.99318E-01 2.62354E-28
9.01928E-01 2.53558E-28
9.04508E-01 2.44988E-28
9.07058E-01 2.36640E-28
9.09576E-01 2.28507E-28
9.12063E-01 2.20585E-28
9.14519E-01 2.12869E-28
9.16943E-01 2.05354E-28
9.19335E-01 1.98035E-28
9.21696E-01 1.90907E-28
9.24024E-01 1.83967E-28
9.26320E-01 1.77209E-28
9.28584E-01 1.70631E-28
9.30815E-01 1.64227E-28
9.33013E-01 1.57993E-28
9.35178E-01 1.51927E-28
9.37310E-01 1.46024E-28
9.39409E-01 1.40281E-28
9.41474E-01 1.34694E-28
9.43505E-01 1.29259E-28
9.45503E-01 1.23974E-28
9.47467E-01 1.18836E-28
9.49397E-01 1.13841E-28
9.51293E-01 1.08985E-28
9.53154E-01 1.04268E-28
9.54981E-01 9.96843E-29
9.56773E-01 9.52327E-29
9.58530E-01 9.09103E-29
9.60252E-01 8.67144E-29
9.61940E-01 8.26425E-29
9.63592E-01 7.86923E-29
9.65209E-01 7.48613E-29
9.66790E-01 7.11475E-29
9.68336E-01 6.75485E-29
9.69846E-01 6.40622E-29
9.71321E-01 6.06867E-29
9.72759E-01 5.74199E-29
9.74162E-01 5.42599E-29
9.75528E-01 5.12049E-29
9.76858E-01 4.82531E-29
9.78152E-01 4.54028E-29
9.79410E-01 4.26523E-29
9.80631E-01 4.00000E-29
9.81815E-01 3.74445E-29
9.82963E-01 3.49842E-29
9.84074E-01 3.26176E-29
9.85148E-01 3.03435E-29
9.86185E-01 2.81606E-29
9.87185E-01 2.60675E-29
9.88148E-01 2.40631E-29
9.89074E-01 2.21462E-29
9.89962E-01 2.03158E-29
9.90814E-01 1.85707E-29
9.91627E-01 1.69100E-29
9.92404E-01 1.53327E-29
9.93143E-01 1.38380E-29
9.93844E-01 1.24249E-29
9.94508E-01 1.10928E-29
9.95134E-01 9.84068E-30
9.95722E-01 8.66802E-30
9.96273E-01 7.57408E-30
9.96786E-01 6.55827E-30
9.97261E-01 5.61998E-30
9.97698E-01 4.75871E-30
9.98097E-01 3.97395E-30
9.98459E-01 3.26527E-30
9.98782E-01 2.63225E-30
9.99067E-01 2.07455E-30
9.99315E-01 1.59184E-30
9.99524E-01 1.18386E-30
9.99695E-01 8.50371E-31
9.99829E-01 5.91186E-31
9.99924E-01 4.06158E-31
9.99981E-01 2.95185E-31
1.00000E+00 2.58190E-31
