 #
 # Subroutine ELSEPA. Elastic scattering of electrons and positrons
 #                    by neutral atoms and positive ions
 #
 # Projectile: electron
 # Kinetic energy = 8.00000E+06 eV = 2.93995E+05 a.u.
 #
 # WARNING: High-energy factorization with free-atom DF screening.
 #          Absorption, polarization and exchange corrections are
 #          switched off.
 #          Phase shifts are calculated for the bare nucleus.
 #          Scattering amplitudes are not evaluated.
 #
 # Element: Ni,  Z =  28,  atomic weight = 5.86934E+01 g/mol
 #
 # Nuclear model: Fermi distribution
 #                Average radius = 4.15828E-13 cm
 #                Skin thickness = 5.46000E-14 cm
 #
 # Number of electrons = 28
 #
 # Total elastic cross section = 1.97740E-18 cm**2 = 7.06144E-02 a0**2
 # 1st transport cross section = 1.81858E-23 cm**2 = 6.49426E-07 a0**2
 # 2nd transport cross section = 5.18208E-23 cm**2 = 1.85055E-06 a0**2
 #
 #
 # Differential cross section:                       MU=(1-COS(THETA))/2
 #
 #  THETA        MU          DCS          DCS        Sherman      error
 #  (deg)                 (cm**2/sr)   (a0**2/sr)    function
 #----------------------------------------------------------------------
0.00000E+00 1.18219E-12
7.61557E-13 1.18216E-12
1.18994E-12 1.18215E-12
1.71346E-12 1.18214E-12
2.33225E-12 1.18212E-12
3.04617E-12 1.18210E-12
3.85530E-12 1.18207E-12
4.75964E-12 1.18205E-12
5.75917E-12 1.18202E-12
6.85391E-12 1.18198E-12
8.04379E-12 1.18195E-12
9.32893E-12 1.18191E-12
1.07092E-11 1.18187E-12
1.21847E-11 1.18183E-12
1.37554E-11 1.18178E-12
1.54213E-11 1.18173E-12
1.71823E-11 1.18168E-12
1.90386E-11 1.18163E-12
2.09900E-11 1.18157E-12
2.30367E-11 1.18151E-12
2.51785E-11 1.18145E-12
2.74156E-11 1.18138E-12
2.97478E-11 1.18131E-12
3.21752E-11 1.18124E-12
3.46979E-11 1.18117E-12
3.73157E-11 1.18109E-12
4.00286E-11 1.18101E-12
4.28368E-11 1.18093E-12
4.57402E-11 1.18085E-12
4.87388E-11 1.18076E-12
5.18325E-11 1.18067E-12
5.50215E-11 1.18057E-12
5.83057E-11 1.18048E-12
6.16850E-11 1.18038E-12
6.51595E-11 1.18028E-12
6.87293E-11 1.18017E-12
7.23943E-11 1.18007E-12
7.61544E-11 1.17996E-12
1.18991E-10 1.17871E-12
1.71347E-10 1.17718E-12
2.33223E-10 1.17539E-12
3.04617E-10 1.17332E-12
3.85531E-10 1.17098E-12
4.75965E-10 1.16838E-12
5.75917E-10 1.16551E-12
6.85389E-10 1.16239E-12
8.04380E-10 1.15901E-12
9.32891E-10 1.15538E-12
1.07092E-09 1.15150E-12
1.21847E-09 1.14737E-12
1.37554E-09 1.14301E-12
1.54213E-09 1.13841E-12
1.71823E-09 1.13358E-12
1.90386E-09 1.12853E-12
2.09900E-09 1.12326E-12
2.30367E-09 1.11778E-12
2.51785E-09 1.11208E-12
2.74156E-09 1.10619E-12
2.97478E-09 1.10010E-12
3.21752E-09 1.09381E-12
3.46978E-09 1.08730E-12
3.73156E-09 1.08063E-12
4.00286E-09 1.07381E-12
4.28368E-09 1.06684E-12
4.57402E-09 1.05974E-12
4.87388E-09 1.05251E-12
5.18326E-09 1.04506E-12
5.50215E-09 1.03744E-12
5.83057E-09 1.02972E-12
6.16850E-09 1.02191E-12
6.51596E-09 1.01400E-12
6.87293E-09 1.00601E-12
7.23942E-09 9.97905E-13
7.61544E-09 9.89586E-13
1.18991E-08 9.03244E-13
1.71347E-08 8.13967E-13
2.33223E-08 7.26666E-13
3.04617E-08 6.44531E-13
3.85531E-08 5.69791E-13
4.75965E-08 5.02931E-13
5.75917E-08 4.44321E-13
6.85389E-08 3.93167E-13
8.04380E-08 3.48984E-13
9.32891E-08 3.10773E-13
1.07092E-07 2.77799E-13
1.21847E-07 2.49254E-13
1.37554E-07 2.24462E-13
1.54213E-07 2.02867E-13
1.71823E-07 1.83924E-13
1.90386E-07 1.67291E-13
2.09900E-07 1.52538E-13
2.30367E-07 1.39468E-13
2.51785E-07 1.27772E-13
2.74156E-07 1.17314E-13
2.97478E-07 1.07893E-13
3.21752E-07 9.92577E-14
3.46978E-07 9.09060E-14
3.73156E-07 8.36160E-14
4.00286E-07 7.72252E-14
4.28368E-07 7.15992E-14
4.57402E-07 6.66267E-14
4.87388E-07 6.22149E-14
5.18325E-07 5.76355E-14
5.50215E-07 5.33154E-14
5.83057E-07 4.94723E-14
6.16850E-07 4.60421E-14
6.51596E-07 4.29709E-14
6.87293E-07 4.02128E-14
7.23942E-07 3.76161E-14
7.61543E-07 3.49537E-14
1.18991E-06 1.80854E-14
1.71347E-06 9.95573E-15
2.33223E-06 5.82480E-15
3.04617E-06 3.61395E-15
3.85531E-06 2.36656E-15
4.75964E-06 1.62178E-15
5.75916E-06 1.15477E-15
6.85388E-06 8.47615E-16
8.04378E-06 6.38080E-16
9.32888E-06 4.89960E-16
1.07092E-05 3.82688E-16
1.21846E-05 3.03171E-16
1.37553E-05 2.43113E-16
1.54212E-05 1.97058E-16
1.71822E-05 1.61225E-16
1.90385E-05 1.33073E-16
2.09899E-05 1.10712E-16
2.30365E-05 9.28066E-17
2.51783E-05 7.83179E-17
2.74153E-05 6.65177E-17
2.97475E-05 5.68302E-17
3.21749E-05 4.88247E-17
3.46974E-05 4.21603E-17
3.73152E-05 3.66115E-17
4.00281E-05 3.19383E-17
4.28362E-05 2.79834E-17
4.57395E-05 2.46295E-17
4.87380E-05 2.17536E-17
5.18317E-05 1.92896E-17
5.50205E-05 1.71654E-17
5.83045E-05 1.53248E-17
6.16838E-05 1.37272E-17
6.51582E-05 1.23314E-17
6.87277E-05 1.11100E-17
7.23925E-05 1.00373E-17
7.61524E-05 9.09076E-18
9.21439E-05 6.26271E-18
1.09658E-04 4.45615E-18
1.28695E-04 3.25846E-18
1.49255E-04 2.43802E-18
1.71338E-04 1.86077E-18
1.94942E-04 1.44480E-18
2.20070E-04 1.13889E-18
2.46720E-04 9.09853E-19
2.74892E-04 7.35566E-19
3.04586E-04 6.01095E-19
3.35803E-04 4.95956E-19
3.68542E-04 4.12834E-19
4.02802E-04 3.46400E-19
4.38585E-04 2.92804E-19
4.75889E-04 2.49177E-19
5.14715E-04 2.13378E-19
5.55063E-04 1.83781E-19
5.96931E-04 1.59139E-19
6.40321E-04 1.38493E-19
6.85233E-04 1.21088E-19
7.31665E-04 1.06334E-19
7.79618E-04 9.37591E-20
8.29092E-04 8.29906E-20
8.80086E-04 7.37248E-20
9.32601E-04 6.57175E-20
9.86636E-04 5.87689E-20
1.04219E-03 5.27155E-20
1.09927E-03 4.74223E-20
1.15786E-03 4.27777E-20
1.21797E-03 3.86886E-20
1.27961E-03 3.50771E-20
1.34276E-03 3.18778E-20
1.40743E-03 2.90355E-20
1.47362E-03 2.65034E-20
1.54133E-03 2.42418E-20
1.61056E-03 2.22168E-20
1.68131E-03 2.03991E-20
1.75357E-03 1.87639E-20
1.82735E-03 1.72896E-20
1.90265E-03 1.59575E-20
1.97947E-03 1.47515E-20
2.05780E-03 1.36576E-20
2.13765E-03 1.26633E-20
2.21902E-03 1.17581E-20
2.30190E-03 1.09326E-20
2.38630E-03 1.01784E-20
2.47222E-03 9.48822E-21
2.55965E-03 8.85573E-21
2.64859E-03 8.27519E-21
2.73905E-03 7.74157E-21
2.83103E-03 7.25038E-21
2.92452E-03 6.79763E-21
3.01952E-03 6.37977E-21
3.11604E-03 5.99361E-21
3.21407E-03 5.63630E-21
3.31362E-03 5.30531E-21
3.41468E-03 4.99832E-21
3.51725E-03 4.71328E-21
3.62133E-03 4.44833E-21
3.72692E-03 4.20180E-21
3.83403E-03 3.97216E-21
3.94265E-03 3.75804E-21
4.05278E-03 3.55820E-21
4.16442E-03 3.37152E-21
4.27757E-03 3.19695E-21
4.39223E-03 3.03357E-21
4.50840E-03 2.88053E-21
4.62608E-03 2.73706E-21
4.74527E-03 2.60243E-21
4.86597E-03 2.47601E-21
4.98817E-03 2.35720E-21
5.11188E-03 2.24546E-21
5.23711E-03 2.14028E-21
5.36383E-03 2.04121E-21
5.49207E-03 1.94783E-21
5.62181E-03 1.85974E-21
5.75306E-03 1.77660E-21
5.88581E-03 1.69807E-21
6.02007E-03 1.62385E-21
6.15583E-03 1.55365E-21
6.29310E-03 1.48722E-21
6.43187E-03 1.42432E-21
6.57214E-03 1.36472E-21
6.71392E-03 1.30822E-21
6.85720E-03 1.25462E-21
7.00198E-03 1.20375E-21
7.14827E-03 1.15544E-21
7.29605E-03 1.10955E-21
7.44534E-03 1.06591E-21
7.59612E-03 1.02441E-21
7.97965E-03 9.29201E-22
8.37255E-03 8.44839E-22
8.77480E-03 7.69876E-22
9.18641E-03 7.03078E-22
9.60736E-03 6.43400E-22
1.00376E-02 5.89948E-22
1.04773E-02 5.41957E-22
1.09262E-02 4.98768E-22
1.13844E-02 4.59816E-22
1.18520E-02 4.24610E-22
1.23288E-02 3.92725E-22
1.28150E-02 3.63790E-22
1.33104E-02 3.37484E-22
1.38150E-02 3.13525E-22
1.43290E-02 2.91664E-22
1.48521E-02 2.71684E-22
1.53845E-02 2.53395E-22
1.59262E-02 2.36626E-22
1.64770E-02 2.21229E-22
1.70371E-02 2.07069E-22
1.76063E-02 1.94030E-22
1.81848E-02 1.82007E-22
1.87724E-02 1.70905E-22
1.93692E-02 1.60641E-22
1.99751E-02 1.51140E-22
2.05901E-02 1.42334E-22
2.12143E-02 1.34164E-22
2.18476E-02 1.26574E-22
2.24900E-02 1.19517E-22
2.31415E-02 1.12947E-22
2.38021E-02 1.06824E-22
2.44717E-02 1.01113E-22
2.51504E-02 9.57804E-23
2.58382E-02 9.07965E-23
2.65349E-02 8.61342E-23
2.72407E-02 8.17689E-23
2.79555E-02 7.76780E-23
2.86793E-02 7.38410E-23
2.94120E-02 7.02392E-23
3.01537E-02 6.68555E-23
3.09043E-02 6.36741E-23
3.16639E-02 6.06806E-23
3.24324E-02 5.78618E-23
3.32098E-02 5.52056E-23
3.39961E-02 5.27009E-23
3.47912E-02 5.03372E-23
3.55952E-02 4.81052E-23
3.64081E-02 4.59962E-23
3.72297E-02 4.40020E-23
3.80602E-02 4.21152E-23
3.88995E-02 4.03290E-23
3.97476E-02 3.86368E-23
4.06044E-02 3.70329E-23
4.14700E-02 3.55118E-23
4.23443E-02 3.40682E-23
4.32273E-02 3.26976E-23
4.41190E-02 3.13955E-23
4.50194E-02 3.01579E-23
4.59284E-02 2.89809E-23
4.68461E-02 2.78610E-23
4.87074E-02 2.57795E-23
5.06030E-02 2.38895E-23
5.25328E-02 2.21702E-23
5.44967E-02 2.06033E-23
5.64946E-02 1.91728E-23
5.85262E-02 1.78648E-23
6.05914E-02 1.66667E-23
6.26901E-02 1.55676E-23
6.48222E-02 1.45579E-23
6.69873E-02 1.36289E-23
6.91854E-02 1.27730E-23
7.14163E-02 1.19834E-23
7.36799E-02 1.12539E-23
7.59760E-02 1.05792E-23
7.83043E-02 9.95429E-24
8.06647E-02 9.37492E-24
8.30571E-02 8.83711E-24
8.54812E-02 8.33731E-24
8.79369E-02 7.87235E-24
9.04240E-02 7.43935E-24
9.29422E-02 7.03568E-24
9.54915E-02 6.65899E-24
9.80716E-02 6.30714E-24
1.00682E-01 5.97818E-24
1.03323E-01 5.67035E-24
1.05995E-01 5.38202E-24
1.08696E-01 5.11173E-24
1.11427E-01 4.85815E-24
1.14188E-01 4.62004E-24
1.16978E-01 4.39628E-24
1.19797E-01 4.18583E-24
1.22645E-01 3.98777E-24
1.25522E-01 3.80123E-24
1.28428E-01 3.62540E-24
1.31361E-01 3.45955E-24
1.34323E-01 3.30302E-24
1.37313E-01 3.15518E-24
1.40330E-01 3.01545E-24
1.43375E-01 2.88331E-24
1.46447E-01 2.75826E-24
1.49545E-01 2.63985E-24
1.52671E-01 2.52767E-24
1.55823E-01 2.42133E-24
1.59001E-01 2.32045E-24
1.62205E-01 2.22472E-24
1.65435E-01 2.13381E-24
1.68690E-01 2.04744E-24
1.71970E-01 1.96534E-24
1.75276E-01 1.88725E-24
1.78606E-01 1.81295E-24
1.81961E-01 1.74222E-24
1.85340E-01 1.67484E-24
1.88743E-01 1.61064E-24
1.92169E-01 1.54944E-24
1.95619E-01 1.49106E-24
1.99092E-01 1.43535E-24
2.02589E-01 1.38217E-24
2.06107E-01 1.33139E-24
2.09649E-01 1.28287E-24
2.13212E-01 1.23649E-24
2.16797E-01 1.19214E-24
2.20404E-01 1.14972E-24
2.24032E-01 1.10912E-24
2.27680E-01 1.07025E-24
2.31350E-01 1.03303E-24
2.35040E-01 9.97378E-25
2.38751E-01 9.63205E-25
2.42481E-01 9.30442E-25
2.46231E-01 8.99022E-25
2.50000E-01 8.68878E-25
2.53788E-01 8.39949E-25
2.57595E-01 8.12177E-25
2.61421E-01 7.85506E-25
2.65264E-01 7.59886E-25
2.69126E-01 7.35267E-25
2.73005E-01 7.11602E-25
2.76901E-01 6.88848E-25
2.80814E-01 6.66963E-25
2.84744E-01 6.45907E-25
2.88691E-01 6.25644E-25
2.92653E-01 6.06139E-25
2.96632E-01 5.87356E-25
3.00625E-01 5.69266E-25
3.04634E-01 5.51837E-25
3.08658E-01 5.35041E-25
3.12697E-01 5.18851E-25
3.16749E-01 5.03240E-25
3.20816E-01 4.88185E-25
3.24896E-01 4.73662E-25
3.28990E-01 4.59648E-25
3.33097E-01 4.46123E-25
3.37216E-01 4.33066E-25
3.41348E-01 4.20458E-25
3.45492E-01 4.08281E-25
3.49647E-01 3.96518E-25
3.53814E-01 3.85151E-25
3.57992E-01 3.74166E-25
3.62181E-01 3.63546E-25
3.66381E-01 3.53278E-25
3.70590E-01 3.43348E-25
3.74810E-01 3.33743E-25
3.79039E-01 3.24449E-25
3.83277E-01 3.15456E-25
3.87524E-01 3.06752E-25
3.91780E-01 2.98326E-25
3.96044E-01 2.90166E-25
4.00316E-01 2.82265E-25
4.04596E-01 2.74611E-25
4.08882E-01 2.67195E-25
4.13176E-01 2.60010E-25
4.17476E-01 2.53046E-25
4.21783E-01 2.46296E-25
4.26095E-01 2.39751E-25
4.30413E-01 2.33405E-25
4.34737E-01 2.27250E-25
4.39065E-01 2.21280E-25
4.43398E-01 2.15487E-25
4.47736E-01 2.09867E-25
4.52077E-01 2.04412E-25
4.56422E-01 1.99117E-25
4.60770E-01 1.93977E-25
4.65122E-01 1.88986E-25
4.69476E-01 1.84139E-25
4.73832E-01 1.79432E-25
4.78190E-01 1.74859E-25
4.82550E-01 1.70417E-25
4.86912E-01 1.66100E-25
4.91274E-01 1.61905E-25
4.95637E-01 1.57827E-25
5.00000E-01 1.53863E-25
5.04363E-01 1.50009E-25
5.08726E-01 1.46262E-25
5.13088E-01 1.42617E-25
5.17450E-01 1.39073E-25
5.21810E-01 1.35624E-25
5.26168E-01 1.32270E-25
5.30524E-01 1.29006E-25
5.34878E-01 1.25829E-25
5.39230E-01 1.22738E-25
5.43578E-01 1.19728E-25
5.47923E-01 1.16799E-25
5.52264E-01 1.13947E-25
5.56602E-01 1.11169E-25
5.60935E-01 1.08465E-25
5.65263E-01 1.05831E-25
5.69587E-01 1.03265E-25
5.73905E-01 1.00765E-25
5.78217E-01 9.83296E-26
5.82524E-01 9.59566E-26
5.86824E-01 9.36440E-26
5.91118E-01 9.13902E-26
5.95404E-01 8.91934E-26
5.99684E-01 8.70520E-26
6.03956E-01 8.49642E-26
6.08220E-01 8.29287E-26
6.12476E-01 8.09438E-26
6.16723E-01 7.90081E-26
6.20961E-01 7.71202E-26
6.25190E-01 7.52789E-26
6.29410E-01 7.34826E-26
6.33619E-01 7.17302E-26
6.37819E-01 7.00205E-26
6.42008E-01 6.83523E-26
6.46186E-01 6.67243E-26
6.50353E-01 6.51356E-26
6.54508E-01 6.35849E-26
6.58652E-01 6.20714E-26
6.62784E-01 6.05939E-26
6.66903E-01 5.91515E-26
6.71010E-01 5.77432E-26
6.75104E-01 5.63682E-26
6.79184E-01 5.50255E-26
6.83251E-01 5.37143E-26
6.87303E-01 5.24337E-26
6.91342E-01 5.11829E-26
6.95366E-01 4.99612E-26
6.99375E-01 4.87677E-26
7.03368E-01 4.76018E-26
7.07347E-01 4.64628E-26
7.11309E-01 4.53498E-26
7.15256E-01 4.42624E-26
7.19186E-01 4.31997E-26
7.23099E-01 4.21613E-26
7.26995E-01 4.11464E-26
7.30874E-01 4.01545E-26
7.34736E-01 3.91850E-26
7.38579E-01 3.82373E-26
7.42405E-01 3.73109E-26
7.46212E-01 3.64052E-26
7.50000E-01 3.55198E-26
7.53769E-01 3.46542E-26
7.57519E-01 3.38078E-26
7.61249E-01 3.29802E-26
7.64960E-01 3.21710E-26
7.68650E-01 3.13797E-26
7.72320E-01 3.06058E-26
7.75968E-01 2.98490E-26
7.79596E-01 2.91088E-26
7.83203E-01 2.83848E-26
7.86788E-01 2.76767E-26
7.90351E-01 2.69842E-26
7.93893E-01 2.63067E-26
7.97411E-01 2.56440E-26
8.00908E-01 2.49957E-26
8.04381E-01 2.43616E-26
8.07831E-01 2.37412E-26
8.11257E-01 2.31343E-26
8.14660E-01 2.25405E-26
8.18039E-01 2.19595E-26
8.21394E-01 2.13912E-26
8.24724E-01 2.08351E-26
8.28030E-01 2.02910E-26
8.31310E-01 1.97587E-26
8.34565E-01 1.92379E-26
8.37795E-01 1.87283E-26
8.40999E-01 1.82296E-26
8.44177E-01 1.77418E-26
8.47329E-01 1.72644E-26
8.50455E-01 1.67973E-26
8.53553E-01 1.63403E-26
8.56625E-01 1.58931E-26
8.59670E-01 1.54556E-26
8.62687E-01 1.50275E-26
8.65677E-01 1.46087E-26
8.68639E-01 1.41989E-26
8.71572E-01 1.37980E-26
8.74478E-01 1.34057E-26
8.77355E-01 1.30220E-26
8.80203E-01 1.26466E-26
8.83022E-01 1.22793E-26
8.85812E-01 1.19201E-26
8.88573E-01 1.15687E-26
8.91304E-01 1.12250E-26
8.94005E-01 1.08888E-26
8.96677E-01 1.05600E-26
8.99318E-01 1.02384E-26
9.01928E-01 9.92394E-27
9.04508E-01 9.61644E-27
9.07058E-01 9.31579E-27
9.09576E-01 9.02183E-27
9.12063E-01 8.73446E-27
9.14519E-01 8.45355E-27
9.16943E-01 8.17898E-27
9.19335E-01 7.91064E-27
9.21696E-01 7.64841E-27
9.24024E-01 7.39218E-27
9.26320E-01 7.14185E-27
9.28584E-01 6.89731E-27
9.30815E-01 6.65846E-27
9.33013E-01 6.42521E-27
9.35178E-01 6.19746E-27
9.37310E-01 5.97511E-27
9.39409E-01 5.75808E-27
9.41474E-01 5.54627E-27
9.43505E-01 5.33961E-27
9.45503E-01 5.13801E-27
9.47467E-01 4.94139E-27
9.49397E-01 4.74966E-27
9.51293E-01 4.56276E-27
9.53154E-01 4.38061E-27
9.54981E-01 4.20313E-27
9.56773E-01 4.03027E-27
9.58530E-01 3.86194E-27
9.60252E-01 3.69808E-27
9.61940E-01 3.53864E-27
9.63592E-01 3.38354E-27
9.65209E-01 3.23273E-27
9.66790E-01 3.08615E-27
9.68336E-01 2.94374E-27
9.69846E-01 2.80545E-27
9.71321E-01 2.67122E-27
9.72759E-01 2.54100E-27
9.74162E-01 2.41475E-27
9.75528E-01 2.29241E-27
9.76858E-01 2.17394E-27
9.78152E-01 2.05929E-27
9.79410E-01 1.94842E-27
9.80631E-01 1.84129E-27
9.81815E-01 1.73786E-27
9.82963E-01 1.63809E-27
9.84074E-01 1.54193E-27
9.85148E-01 1.44936E-27
9.86185E-01 1.36035E-27
9.87185E-01 1.27485E-27
9.88148E-01 1.19283E-27
9.89074E-01 1.11427E-27
9.89962E-01 1.03913E-27
9.90814E-01 9.67394E-28
9.91627E-01 8.99027E-28
9.92404E-01 8.34005E-28
9.93143E-01 7.72305E-28
9.93844E-01 7.13904E-28
9.94508E-01 6.58780E-28
9.95134E-01 6.06913E-28
9.95722E-01 5.58284E-28
9.96273E-01 5.12875E-28
9.96786E-01 4.70670E-28
9.97261E-01 4.31652E-28
9.97698E-01 3.95808E-28
9.98097E-01 3.63125E-28
9.98459E-01 3.33590E-28
9.98782E-01 3.07194E-28
9.99067E-01 2.83925E-28
9.99315E-01 2.63776E-28
9.99524E-01 2.46739E-28
9.99695E-01 2.32808E-28
9.99829E-01 2.21978E-28
9.99924E-01 2.14245E-28
9.99981E-01 2.09607E-28
1.00000E+00 2.08060E-28
