 #
 # Subroutine ELSEPA. Elastic scattering of electrons and positrons
 #                    by neutral atoms and positive ions
 #
 # Projectile: electron
 # Kinetic energy = 7.00000E+08 eV = 2.57245E+07 a.u.
 #
 # WARNING: High-energy factorization with free-atom DF screening.
 #          Absorption, polarization and exchange corrections are
 #          switched off.
 #          Phase shifts are calculated for the bare nucleus.
 #          Scattering amplitudes are not evaluated.
 #
 # Element: Ni,  Z =  28,  atomic weight = 5.86934E+01 g/mol
 #
 # Nuclear model: Fermi distribution
 #                Average radius = 4.15828E-13 cm
 #                Skin thickness = 5.46000E-14 cm
 #
 # Number of electrons = 28
 #
 # Total elastic cross section = 1.96505E-18 cm**2 = 7.01731E-02 a0**2
 # 1st transport cross section = 3.30232E-27 cm**2 = 1.17928E-10 a0**2
 # 2nd transport cross section = 9.90449E-27 cm**2 = 3.53696E-10 a0**2
 #
 #
 # Differential cross section:                       MU=(1-COS(THETA))/2
 #
 #  THETA        MU          DCS          DCS        Sherman      error
 #  (deg)                 (cm**2/sr)   (a0**2/sr)    function
 #----------------------------------------------------------------------
0.00000E+00 8.00857E-09
7.61557E-13 7.08023E-09
1.18994E-12 6.63374E-09
1.71346E-12 6.15003E-09
2.33225E-12 5.65230E-09
3.04617E-12 5.15772E-09
3.85530E-12 4.68240E-09
4.75964E-12 4.23677E-09
5.75917E-12 3.82612E-09
6.85391E-12 3.45177E-09
8.04379E-12 3.11537E-09
9.32893E-12 2.81513E-09
1.07092E-11 2.54786E-09
1.21847E-11 2.31068E-09
1.37554E-11 2.10078E-09
1.54213E-11 1.91495E-09
1.71823E-11 1.74964E-09
1.90386E-11 1.60277E-09
2.09900E-11 1.47199E-09
2.30367E-11 1.35504E-09
2.51785E-11 1.24995E-09
2.74156E-11 1.15549E-09
2.97478E-11 1.07032E-09
3.21752E-11 9.93021E-10
3.46979E-11 9.22777E-10
3.73157E-11 8.58854E-10
4.00286E-11 8.00495E-10
4.28368E-11 7.46848E-10
4.57402E-11 6.97653E-10
4.87388E-11 6.49451E-10
5.18325E-11 6.04695E-10
5.50215E-11 5.64654E-10
5.83057E-11 5.28727E-10
6.16850E-11 4.96400E-10
6.51595E-11 4.67231E-10
6.87293E-11 4.40843E-10
7.23943E-11 4.16908E-10
7.61544E-11 3.90846E-10
1.18991E-10 2.16980E-10
1.71347E-10 1.26489E-10
2.33223E-10 7.69395E-11
3.04617E-10 4.86014E-11
3.85531E-10 3.20157E-11
4.75965E-10 2.19409E-11
5.75917E-10 1.55748E-11
6.85389E-10 1.13975E-11
8.04380E-10 8.56438E-12
9.32891E-10 6.58080E-12
1.07092E-09 5.15101E-12
1.21847E-09 4.09498E-12
1.37554E-09 3.29899E-12
1.54213E-09 2.68867E-12
1.71823E-09 2.21232E-12
1.90386E-09 1.83647E-12
2.09900E-09 1.53649E-12
2.30367E-09 1.29444E-12
2.51785E-09 1.09731E-12
2.74156E-09 9.35796E-13
2.97478E-09 8.02533E-13
3.21752E-09 6.91747E-13
3.46978E-09 5.99165E-13
3.73156E-09 5.21383E-13
4.00286E-09 4.55673E-13
4.28368E-09 3.99842E-13
4.57402E-09 3.52232E-13
4.87388E-09 3.11354E-13
5.18326E-09 2.76239E-13
5.50215E-09 2.46007E-13
5.83057E-09 2.19745E-13
6.16850E-09 1.96852E-13
6.51596E-09 1.76899E-13
6.87293E-09 1.59405E-13
7.23942E-09 1.43994E-13
7.61544E-09 1.30422E-13
1.18991E-08 5.44459E-14
1.71347E-08 2.66604E-14
2.33223E-08 1.45686E-14
3.04617E-08 8.62245E-15
3.85531E-08 5.42289E-15
4.75965E-08 3.57807E-15
5.75917E-08 2.45437E-15
6.85389E-08 1.73865E-15
8.04380E-08 1.26553E-15
9.32891E-08 9.42752E-16
1.07092E-07 7.16520E-16
1.21847E-07 5.54189E-16
1.37554E-07 4.35291E-16
1.54213E-07 3.46611E-16
1.71823E-07 2.79390E-16
1.90386E-07 2.27693E-16
2.09900E-07 1.87411E-16
2.30367E-07 1.55651E-16
2.51785E-07 1.30340E-16
2.74156E-07 1.09969E-16
2.97478E-07 9.34248E-17
3.21752E-07 7.98771E-17
3.46978E-07 6.86977E-17
3.73156E-07 5.94068E-17
4.00286E-07 5.16345E-17
4.28368E-07 4.50924E-17
4.57402E-07 3.95541E-17
4.87388E-07 3.48405E-17
5.18325E-07 3.08084E-17
5.50215E-07 2.73430E-17
5.83057E-07 2.43514E-17
6.16850E-07 2.17579E-17
6.51596E-07 1.95006E-17
6.87293E-07 1.75286E-17
7.23942E-07 1.57996E-17
7.61543E-07 1.42787E-17
1.18991E-06 5.85077E-18
1.71347E-06 2.82225E-18
2.33223E-06 1.52367E-18
3.04617E-06 8.93293E-19
3.85531E-06 5.57762E-19
4.75964E-06 3.65999E-19
5.75916E-06 2.50016E-19
6.85388E-06 1.76551E-19
8.04378E-06 1.28197E-19
9.32888E-06 9.53225E-20
1.07092E-05 7.23432E-20
1.21846E-05 5.58904E-20
1.37553E-05 4.38608E-20
1.54212E-05 3.49009E-20
1.71822E-05 2.81168E-20
1.90385E-05 2.29028E-20
2.09899E-05 1.88467E-20
2.30365E-05 1.56497E-20
2.51783E-05 1.31023E-20
2.74153E-05 1.10524E-20
2.97475E-05 9.38790E-21
3.21749E-05 8.02535E-21
3.46974E-05 6.90147E-21
3.73152E-05 5.96784E-21
4.00281E-05 5.18706E-21
4.28362E-05 4.53000E-21
4.57395E-05 3.97379E-21
4.87380E-05 3.50037E-21
5.18317E-05 3.09537E-21
5.50205E-05 2.74726E-21
5.83045E-05 2.44674E-21
6.16838E-05 2.18623E-21
6.51582E-05 1.95952E-21
6.87277E-05 1.76148E-21
7.23925E-05 1.58787E-21
7.61524E-05 1.41863E-21
9.21439E-05 9.66419E-22
1.09658E-04 6.80295E-22
1.28695E-04 4.92240E-22
1.49255E-04 3.64566E-22
1.71338E-04 2.75485E-22
1.94942E-04 2.11824E-22
2.20070E-04 1.65377E-22
2.46720E-04 1.30864E-22
2.74892E-04 1.04799E-22
3.04586E-04 8.48273E-23
3.35803E-04 6.93237E-23
3.68542E-04 5.71472E-23
4.02802E-04 4.74812E-23
4.38585E-04 3.97333E-23
4.75889E-04 3.34680E-23
5.14715E-04 2.83599E-23
5.55063E-04 2.41642E-23
5.96931E-04 2.06941E-23
6.40321E-04 1.78056E-23
6.85233E-04 1.53870E-23
7.31665E-04 1.33506E-23
7.79618E-04 1.16273E-23
8.29092E-04 1.01618E-23
8.80086E-04 8.91002E-24
9.32601E-04 7.83627E-24
9.86636E-04 6.91158E-24
1.04219E-03 6.11230E-24
1.09927E-03 5.41901E-24
1.15786E-03 4.81567E-24
1.21797E-03 4.28897E-24
1.27961E-03 3.82783E-24
1.34276E-03 3.42297E-24
1.40743E-03 3.06658E-24
1.47362E-03 2.75209E-24
1.54133E-03 2.47390E-24
1.61056E-03 2.22729E-24
1.68131E-03 2.00819E-24
1.75357E-03 1.81316E-24
1.82735E-03 1.63920E-24
1.90265E-03 1.48377E-24
1.97947E-03 1.34464E-24
2.05780E-03 1.21991E-24
2.13765E-03 1.10790E-24
2.21902E-03 1.00717E-24
2.30190E-03 9.16449E-25
2.38630E-03 8.34638E-25
2.47222E-03 7.60762E-25
2.55965E-03 6.93971E-25
2.64859E-03 6.33514E-25
2.73905E-03 5.78728E-25
2.83103E-03 5.29029E-25
2.92452E-03 4.83898E-25
3.01952E-03 4.42875E-25
3.11604E-03 4.05553E-25
3.21407E-03 3.71567E-25
3.31362E-03 3.40593E-25
3.41468E-03 3.12342E-25
3.51725E-03 2.86555E-25
3.62133E-03 2.62999E-25
3.72692E-03 2.41468E-25
3.83403E-03 2.21774E-25
3.94265E-03 2.03749E-25
4.05278E-03 1.87242E-25
4.16442E-03 1.72117E-25
4.27757E-03 1.58251E-25
4.39223E-03 1.45533E-25
4.50840E-03 1.33863E-25
4.62608E-03 1.23148E-25
4.74527E-03 1.13308E-25
4.86597E-03 1.04267E-25
4.98817E-03 9.59579E-26
5.11188E-03 8.83180E-26
5.23711E-03 8.12915E-26
5.36383E-03 7.48273E-26
5.49207E-03 6.88789E-26
5.62181E-03 6.34037E-26
5.75306E-03 5.83630E-26
5.88581E-03 5.37214E-26
6.02007E-03 4.94465E-26
6.15583E-03 4.55088E-26
6.29310E-03 4.18811E-26
6.43187E-03 3.85386E-26
6.57214E-03 3.54587E-26
6.71392E-03 3.26204E-26
6.85720E-03 3.00046E-26
7.00198E-03 2.75939E-26
7.14827E-03 2.53721E-26
7.29605E-03 2.33243E-26
7.44534E-03 2.14371E-26
7.59612E-03 1.96977E-26
7.97965E-03 1.59235E-26
8.37255E-03 1.28482E-26
8.77480E-03 1.03444E-26
9.18641E-03 8.30822E-27
9.60736E-03 6.65465E-27
1.00376E-02 5.31407E-27
1.04773E-02 4.22946E-27
1.09262E-02 3.35400E-27
1.13844E-02 2.64927E-27
1.18520E-02 2.08373E-27
1.23288E-02 1.63146E-27
1.28150E-02 1.27120E-27
1.33104E-02 9.85499E-28
1.38150E-02 7.60037E-28
1.43290E-02 5.83104E-28
1.48521E-02 4.45118E-28
1.53845E-02 3.38261E-28
1.59262E-02 2.56163E-28
1.64770E-02 1.93653E-28
1.70371E-02 1.46543E-28
1.76063E-02 1.11452E-28
1.81848E-02 8.56634E-29
1.87724E-02 6.70053E-29
1.93692E-02 5.37490E-29
1.99751E-02 4.45282E-29
2.05901E-02 3.82708E-29
2.12143E-02 3.41428E-29
2.18476E-02 3.15023E-29
2.24900E-02 2.98611E-29
2.31415E-02 2.88537E-29
2.38021E-02 2.82119E-29
2.44717E-02 2.77435E-29
2.51504E-02 2.73157E-29
2.58382E-02 2.68414E-29
2.65349E-02 2.62677E-29
2.72407E-02 2.55678E-29
2.79555E-02 2.47330E-29
2.86793E-02 2.37681E-29
2.94120E-02 2.26865E-29
3.01537E-02 2.15069E-29
3.09043E-02 2.02510E-29
3.16639E-02 1.89414E-29
3.24324E-02 1.76006E-29
3.32098E-02 1.62495E-29
3.39961E-02 1.49073E-29
3.47912E-02 1.35906E-29
3.55952E-02 1.23138E-29
3.64081E-02 1.10887E-29
3.72297E-02 9.92451E-30
3.80602E-02 8.82829E-30
3.88995E-02 7.80486E-30
3.97476E-02 6.85715E-30
4.06044E-02 5.98642E-30
4.14700E-02 5.19247E-30
4.23443E-02 4.47391E-30
4.32273E-02 3.82835E-30
4.41190E-02 3.25260E-30
4.50194E-02 2.74289E-30
4.59284E-02 2.29501E-30
4.68461E-02 1.90449E-30
4.87074E-02 1.27689E-30
5.06030E-02 8.22946E-31
5.25328E-02 5.07335E-31
5.44967E-02 2.98197E-31
5.64946E-02 1.68051E-31
5.85262E-02 9.41040E-32
6.05914E-02 5.81412E-32
6.26901E-02 4.61492E-32
6.48222E-02 4.77818E-32
6.69873E-02 5.57615E-32
6.91854E-02 6.52765E-32
7.14163E-02 7.34184E-32
7.36799E-02 7.86839E-32
7.59760E-02 8.05538E-32
7.83043E-02 7.91517E-32
8.06647E-02 7.49788E-32
8.30571E-02 6.87169E-32
8.54812E-02 6.10906E-32
8.79369E-02 5.27768E-32
9.04240E-02 4.43521E-32
9.29422E-02 3.62688E-32
9.54915E-02 2.88504E-32
9.80716E-02 2.23003E-32
1.00682E-01 1.67187E-32
1.03323E-01 1.21230E-32
1.05995E-01 8.46845E-33
1.08696E-01 5.66821E-33
1.11427E-01 3.61024E-33
1.14188E-01 2.17157E-33
1.16978E-01 1.22909E-33
1.19797E-01 6.67377E-34
1.22645E-01 3.83652E-34
1.25522E-01 2.90563E-34
1.28428E-01 3.17085E-34
1.31361E-01 4.08104E-34
1.34323E-01 5.23079E-34
1.37313E-01 6.34137E-34
1.40330E-01 7.23916E-34
1.43375E-01 7.83360E-34
1.46447E-01 8.09634E-34
1.49545E-01 8.04263E-34
1.52671E-01 7.71553E-34
1.55823E-01 7.17314E-34
1.59001E-01 6.47879E-34
1.62205E-01 5.69397E-34
1.65435E-01 4.87367E-34
1.68690E-01 4.06360E-34
1.71970E-01 3.29913E-34
1.75276E-01 2.60522E-34
1.78606E-01 1.99723E-34
1.81961E-01 1.48226E-34
1.85340E-01 1.06068E-34
1.88743E-01 7.27767E-35
1.92169E-01 4.75215E-35
1.95619E-01 2.92563E-35
1.99092E-01 1.68337E-35
2.02589E-01 9.09822E-36
2.06107E-01 4.95588E-36
2.09649E-01 3.42122E-36
2.13212E-01 3.64561E-36
2.16797E-01 4.92968E-36
2.20404E-01 6.72332E-36
2.24032E-01 8.61662E-36
2.27680E-01 1.03249E-35
2.31350E-01 1.16701E-35
2.35040E-01 1.25608E-35
2.38751E-01 1.29728E-35
2.42481E-01 1.29305E-35
2.46231E-01 1.24908E-35
2.50000E-01 1.17295E-35
2.53788E-01 1.07303E-35
2.57595E-01 9.57634E-36
2.61421E-01 8.34424E-36
2.65264E-01 7.10040E-36
2.69126E-01 5.89878E-36
2.73005E-01 4.78032E-36
2.76901E-01 3.77331E-36
2.80814E-01 2.89456E-36
2.84744E-01 2.15098E-36
2.88691E-01 1.54143E-36
2.92653E-01 1.05862E-36
2.96632E-01 6.90908E-37
3.00625E-01 4.23923E-37
3.04634E-01 2.41960E-37
3.08658E-01 1.29106E-37
3.12697E-01 7.01166E-38
3.16749E-01 5.10325E-38
3.20816E-01 5.95843E-38
3.24896E-01 8.54108E-38
3.28990E-01 1.20107E-37
3.33097E-01 1.57171E-37
3.37216E-01 1.91861E-37
3.41348E-01 2.20982E-37
3.45492E-01 2.42658E-37
3.49647E-01 2.56079E-37
3.53814E-01 2.61261E-37
3.57992E-01 2.58820E-37
3.62181E-01 2.49767E-37
3.66381E-01 2.35344E-37
3.70590E-01 2.16880E-37
3.74810E-01 1.95692E-37
3.79039E-01 1.72997E-37
3.83277E-01 1.49869E-37
3.87524E-01 1.27209E-37
3.91780E-01 1.05727E-37
3.96044E-01 8.59515E-38
4.00316E-01 6.82373E-38
4.04596E-01 5.27805E-38
4.08882E-01 3.96499E-38
4.13176E-01 2.88000E-38
4.17476E-01 2.01054E-38
4.21783E-01 1.33775E-38
4.26095E-01 8.38968E-39
4.30413E-01 1.00000E-45
4.34737E-01 1.00000E-45
4.39065E-01 1.00000E-45
4.43398E-01 1.00000E-45
4.47736E-01 1.00000E-45
4.52077E-01 1.00000E-45
4.56422E-01 1.00000E-45
4.60770E-01 1.00000E-45
4.65122E-01 1.00000E-45
4.69476E-01 1.00000E-45
4.73832E-01 1.00000E-45
4.78190E-01 1.00000E-45
4.82550E-01 1.00000E-45
4.86912E-01 1.00000E-45
4.91274E-01 1.00000E-45
4.95637E-01 1.00000E-45
5.00000E-01 1.00000E-45
5.04363E-01 1.00000E-45
5.08726E-01 1.00000E-45
5.13088E-01 1.00000E-45
5.17450E-01 1.00000E-45
5.21810E-01 1.00000E-45
5.26168E-01 1.00000E-45
5.30524E-01 1.00000E-45
5.34878E-01 1.00000E-45
5.39230E-01 1.00000E-45
5.43578E-01 1.00000E-45
5.47923E-01 1.00000E-45
5.52264E-01 1.00000E-45
5.56602E-01 1.00000E-45
5.60935E-01 1.00000E-45
5.65263E-01 1.00000E-45
5.69587E-01 1.00000E-45
5.73905E-01 1.00000E-45
5.78217E-01 1.00000E-45
5.82524E-01 1.00000E-45
5.86824E-01 1.00000E-45
5.91118E-01 1.00000E-45
5.95404E-01 1.00000E-45
5.99684E-01 1.00000E-45
6.03956E-01 1.00000E-45
6.08220E-01 1.00000E-45
6.12476E-01 1.00000E-45
6.16723E-01 1.00000E-45
6.20961E-01 1.00000E-45
6.25190E-01 1.00000E-45
6.29410E-01 1.00000E-45
6.33619E-01 1.00000E-45
6.37819E-01 1.00000E-45
6.42008E-01 1.00000E-45
6.46186E-01 1.00000E-45
6.50353E-01 1.00000E-45
6.54508E-01 1.00000E-45
6.58652E-01 1.00000E-45
6.62784E-01 1.00000E-45
6.66903E-01 1.00000E-45
6.71010E-01 1.00000E-45
6.75104E-01 1.00000E-45
6.79184E-01 1.00000E-45
6.83251E-01 1.00000E-45
6.87303E-01 1.00000E-45
6.91342E-01 1.00000E-45
6.95366E-01 1.00000E-45
6.99375E-01 1.00000E-45
7.03368E-01 1.00000E-45
7.07347E-01 1.00000E-45
7.11309E-01 1.00000E-45
7.15256E-01 1.00000E-45
7.19186E-01 1.00000E-45
7.23099E-01 1.00000E-45
7.26995E-01 1.00000E-45
7.30874E-01 1.00000E-45
7.34736E-01 1.00000E-45
7.38579E-01 1.00000E-45
7.42405E-01 1.00000E-45
7.46212E-01 1.00000E-45
7.50000E-01 1.00000E-45
7.53769E-01 1.00000E-45
7.57519E-01 1.00000E-45
7.61249E-01 1.00000E-45
7.64960E-01 1.00000E-45
7.68650E-01 1.00000E-45
7.72320E-01 1.00000E-45
7.75968E-01 1.00000E-45
7.79596E-01 1.00000E-45
7.83203E-01 1.00000E-45
7.86788E-01 1.00000E-45
7.90351E-01 1.00000E-45
7.93893E-01 1.00000E-45
7.97411E-01 1.00000E-45
8.00908E-01 1.00000E-45
8.04381E-01 1.00000E-45
8.07831E-01 1.00000E-45
8.11257E-01 1.00000E-45
8.14660E-01 1.00000E-45
8.18039E-01 1.00000E-45
8.21394E-01 1.00000E-45
8.24724E-01 1.00000E-45
8.28030E-01 1.00000E-45
8.31310E-01 1.00000E-45
8.34565E-01 1.00000E-45
8.37795E-01 1.00000E-45
8.40999E-01 1.00000E-45
8.44177E-01 1.00000E-45
8.47329E-01 1.00000E-45
8.50455E-01 1.00000E-45
8.53553E-01 1.00000E-45
8.56625E-01 1.00000E-45
8.59670E-01 1.00000E-45
8.62687E-01 1.00000E-45
8.65677E-01 1.00000E-45
8.68639E-01 1.00000E-45
8.71572E-01 1.00000E-45
8.74478E-01 1.00000E-45
8.77355E-01 1.00000E-45
8.80203E-01 1.00000E-45
8.83022E-01 1.00000E-45
8.85812E-01 1.00000E-45
8.88573E-01 1.00000E-45
8.91304E-01 1.00000E-45
8.94005E-01 1.00000E-45
8.96677E-01 1.00000E-45
8.99318E-01 1.00000E-45
9.01928E-01 1.00000E-45
9.04508E-01 1.00000E-45
9.07058E-01 1.00000E-45
9.09576E-01 1.00000E-45
9.12063E-01 1.00000E-45
9.14519E-01 1.00000E-45
9.16943E-01 1.00000E-45
9.19335E-01 1.00000E-45
9.21696E-01 1.00000E-45
9.24024E-01 1.00000E-45
9.26320E-01 1.00000E-45
9.28584E-01 1.00000E-45
9.30815E-01 1.00000E-45
9.33013E-01 1.00000E-45
9.35178E-01 1.00000E-45
9.37310E-01 1.00000E-45
9.39409E-01 1.00000E-45
9.41474E-01 1.00000E-45
9.43505E-01 1.00000E-45
9.45503E-01 1.00000E-45
9.47467E-01 1.00000E-45
9.49397E-01 1.00000E-45
9.51293E-01 1.00000E-45
9.53154E-01 1.00000E-45
9.54981E-01 1.00000E-45
9.56773E-01 1.00000E-45
9.58530E-01 1.00000E-45
9.60252E-01 1.00000E-45
9.61940E-01 1.00000E-45
9.63592E-01 1.00000E-45
9.65209E-01 1.00000E-45
9.66790E-01 1.00000E-45
9.68336E-01 1.00000E-45
9.69846E-01 1.00000E-45
9.71321E-01 1.00000E-45
9.72759E-01 1.00000E-45
9.74162E-01 1.00000E-45
9.75528E-01 1.00000E-45
9.76858E-01 1.00000E-45
9.78152E-01 1.00000E-45
9.79410E-01 1.00000E-45
9.80631E-01 1.00000E-45
9.81815E-01 1.00000E-45
9.82963E-01 1.00000E-45
9.84074E-01 1.00000E-45
9.85148E-01 1.00000E-45
9.86185E-01 1.00000E-45
9.87185E-01 1.00000E-45
9.88148E-01 1.00000E-45
9.89074E-01 1.00000E-45
9.89962E-01 1.00000E-45
9.90814E-01 1.00000E-45
9.91627E-01 1.00000E-45
9.92404E-01 1.00000E-45
9.93143E-01 1.00000E-45
9.93844E-01 1.00000E-45
9.94508E-01 1.00000E-45
9.95134E-01 1.00000E-45
9.95722E-01 1.00000E-45
9.96273E-01 1.00000E-45
9.96786E-01 1.00000E-45
9.97261E-01 1.00000E-45
9.97698E-01 1.00000E-45
9.98097E-01 1.00000E-45
9.98459E-01 1.00000E-45
9.98782E-01 1.00000E-45
9.99067E-01 1.00000E-45
9.99315E-01 1.00000E-45
9.99524E-01 1.00000E-45
9.99695E-01 1.00000E-45
9.99829E-01 1.00000E-45
9.99924E-01 1.00000E-45
9.99981E-01 1.00000E-45
1.00000E+00 1.00000E-45
