 #
 # Subroutine ELSEPA. Elastic scattering of electrons and positrons
 #                    by neutral atoms and positive ions
 #
 # Projectile: electron
 # Kinetic energy = 6.00000E+08 eV = 2.20496E+07 a.u.
 #
 # WARNING: High-energy factorization with free-atom DF screening.
 #          Absorption, polarization and exchange corrections are
 #          switched off.
 #          Phase shifts are calculated for the bare nucleus.
 #          Scattering amplitudes are not evaluated.
 #
 # Element: Ni,  Z =  28,  atomic weight = 5.86934E+01 g/mol
 #
 # Nuclear model: Fermi distribution
 #                Average radius = 4.15828E-13 cm
 #                Skin thickness = 5.46000E-14 cm
 #
 # Number of electrons = 28
 #
 # Total elastic cross section = 1.96562E-18 cm**2 = 7.01936E-02 a0**2
 # 1st transport cross section = 4.49339E-27 cm**2 = 1.60462E-10 a0**2
 # 2nd transport cross section = 1.34756E-26 cm**2 = 4.81223E-10 a0**2
 #
 #
 # Differential cross section:                       MU=(1-COS(THETA))/2
 #
 #  THETA        MU          DCS          DCS        Sherman      error
 #  (deg)                 (cm**2/sr)   (a0**2/sr)    function
 #----------------------------------------------------------------------
0.00000E+00 5.88528E-09
7.61557E-13 5.37028E-09
1.18994E-12 5.11277E-09
1.71346E-12 4.82523E-09
2.33225E-12 4.51921E-09
3.04617E-12 4.20539E-09
3.85530E-12 3.89278E-09
4.75964E-12 3.58859E-09
5.75917E-12 3.29789E-09
6.85391E-12 3.02423E-09
8.04379E-12 2.77006E-09
9.32893E-12 2.53623E-09
1.07092E-11 2.32268E-09
1.21847E-11 2.12870E-09
1.37554E-11 1.95316E-09
1.54213E-11 1.79469E-09
1.71823E-11 1.65183E-09
1.90386E-11 1.52306E-09
2.09900E-11 1.40697E-09
2.30367E-11 1.30206E-09
2.51785E-11 1.20722E-09
2.74156E-11 1.12135E-09
2.97478E-11 1.04343E-09
3.21752E-11 9.72571E-10
3.46979E-11 9.07975E-10
3.73157E-11 8.48949E-10
4.00286E-11 7.94881E-10
4.28368E-11 7.45238E-10
4.57402E-11 6.99551E-10
4.87388E-11 6.57395E-10
5.18325E-11 6.18371E-10
5.50215E-11 5.82231E-10
5.83057E-11 5.48701E-10
6.16850E-11 5.17536E-10
6.51595E-11 4.87230E-10
6.87293E-11 4.57888E-10
7.23943E-11 4.31246E-10
7.61544E-11 4.07003E-10
1.18991E-10 2.40125E-10
1.71347E-10 1.47119E-10
2.33223E-10 9.29186E-11
3.04617E-10 6.04468E-11
3.85531E-10 4.05250E-11
4.75965E-10 2.80021E-11
5.75917E-10 1.99202E-11
6.85389E-10 1.45651E-11
8.04380E-10 1.09208E-11
9.32891E-10 8.37211E-12
1.07092E-09 6.54365E-12
1.21847E-09 5.20074E-12
1.37554E-09 4.19333E-12
1.54213E-09 3.42333E-12
1.71823E-09 2.82448E-12
1.90386E-09 2.35214E-12
2.09900E-09 1.97498E-12
2.30367E-09 1.67019E-12
2.51785E-09 1.42163E-12
2.74156E-09 1.21720E-12
2.97478E-09 1.04774E-12
3.21752E-09 9.06332E-13
3.46978E-09 7.87605E-13
3.73156E-09 6.87381E-13
4.00286E-09 6.02351E-13
4.28368E-09 5.29871E-13
4.57402E-09 4.67814E-13
4.87388E-09 4.14448E-13
5.18326E-09 3.68361E-13
5.50215E-09 3.28426E-13
5.83057E-09 2.93697E-13
6.16850E-09 2.63393E-13
6.51596E-09 2.36824E-13
6.87293E-09 2.13482E-13
7.23942E-09 1.92987E-13
7.61544E-09 1.74929E-13
1.18991E-08 7.31288E-14
1.71347E-08 3.58131E-14
2.33223E-08 1.95829E-14
3.04617E-08 1.16030E-14
3.85531E-08 7.30691E-15
4.75965E-08 4.82758E-15
5.75917E-08 3.31561E-15
6.85389E-08 2.35129E-15
8.04380E-08 1.71302E-15
9.32891E-08 1.27710E-15
1.07092E-07 9.71274E-16
1.21847E-07 7.51633E-16
1.37554E-07 5.90643E-16
1.54213E-07 4.70493E-16
1.71823E-07 3.79369E-16
1.90386E-07 3.09254E-16
2.09900E-07 2.54601E-16
2.30367E-07 2.11496E-16
2.51785E-07 1.77133E-16
2.74156E-07 1.49469E-16
2.97478E-07 1.26998E-16
3.21752E-07 1.08593E-16
3.46978E-07 9.34034E-17
3.73156E-07 8.07778E-17
4.00286E-07 7.02143E-17
4.28368E-07 6.13220E-17
4.57402E-07 5.37933E-17
4.87388E-07 4.73850E-17
5.18325E-07 4.19030E-17
5.50215E-07 3.71911E-17
5.83057E-07 3.31231E-17
6.16850E-07 2.95963E-17
6.51596E-07 2.65265E-17
6.87293E-07 2.38446E-17
7.23942E-07 2.14932E-17
7.61543E-07 1.94245E-17
1.18991E-06 7.96033E-18
1.71347E-06 3.84007E-18
2.33223E-06 2.07324E-18
3.04617E-06 1.21551E-18
3.85531E-06 7.58962E-19
4.75964E-06 4.98029E-19
5.75916E-06 3.40209E-19
6.85388E-06 2.40243E-19
8.04378E-06 1.74445E-19
9.32888E-06 1.29711E-19
1.07092E-05 9.84420E-20
1.21846E-05 7.60538E-20
1.37553E-05 5.96843E-20
1.54212E-05 4.74920E-20
1.71822E-05 3.82605E-20
1.90385E-05 3.11655E-20
2.09899E-05 2.56460E-20
2.30365E-05 2.12958E-20
2.51783E-05 1.78294E-20
2.74153E-05 1.50398E-20
2.97475E-05 1.27749E-20
3.21749E-05 1.09207E-20
3.46974E-05 9.39138E-21
3.73152E-05 8.12092E-21
4.00281E-05 7.05845E-21
4.28362E-05 6.16433E-21
4.57395E-05 5.40746E-21
4.87380E-05 4.76323E-21
5.18317E-05 4.21211E-21
5.50205E-05 3.73842E-21
5.83045E-05 3.32948E-21
6.16838E-05 2.97498E-21
6.51582E-05 2.66648E-21
6.87277E-05 2.39699E-21
7.23925E-05 2.16074E-21
7.61524E-05 1.93759E-21
9.21439E-05 1.32118E-21
1.09658E-04 9.30983E-22
1.28695E-04 6.74401E-22
1.49255E-04 5.00105E-22
1.71338E-04 3.78419E-22
1.94942E-04 2.91399E-22
2.20070E-04 2.27862E-22
2.46720E-04 1.80614E-22
2.74892E-04 1.44899E-22
3.04586E-04 1.17509E-22
3.35803E-04 9.62252E-23
3.68542E-04 7.94917E-23
4.02802E-04 6.61935E-23
4.38585E-04 5.55217E-23
4.75889E-04 4.68812E-23
5.14715E-04 3.98273E-23
5.55063E-04 3.40255E-23
5.96931E-04 2.92200E-23
6.40321E-04 2.52139E-23
6.85233E-04 2.18541E-23
7.31665E-04 1.90206E-23
7.79618E-04 1.66185E-23
8.29092E-04 1.45722E-23
8.80086E-04 1.28209E-23
9.32601E-04 1.13158E-23
9.86636E-04 1.00169E-23
1.04219E-03 8.89184E-24
1.09927E-03 7.91380E-24
1.15786E-03 7.06071E-24
1.21797E-03 6.31422E-24
1.27961E-03 5.65906E-24
1.34276E-03 5.08239E-24
1.40743E-03 4.57343E-24
1.47362E-03 4.12308E-24
1.54133E-03 3.72361E-24
1.61056E-03 3.36845E-24
1.68131E-03 3.05199E-24
1.75357E-03 2.76940E-24
1.82735E-03 2.51656E-24
1.90265E-03 2.28990E-24
1.97947E-03 2.08635E-24
2.05780E-03 1.90321E-24
2.13765E-03 1.73817E-24
2.21902E-03 1.58921E-24
2.30190E-03 1.45455E-24
2.38630E-03 1.33263E-24
2.47222E-03 1.22211E-24
2.55965E-03 1.12177E-24
2.64859E-03 1.03057E-24
2.73905E-03 9.47572E-25
2.83103E-03 8.71944E-25
2.92452E-03 8.02955E-25
3.01952E-03 7.39956E-25
3.11604E-03 6.82365E-25
3.21407E-03 6.29667E-25
3.31362E-03 5.81398E-25
3.41468E-03 5.37146E-25
3.51725E-03 4.96541E-25
3.62133E-03 4.59251E-25
3.72692E-03 4.24977E-25
3.83403E-03 3.93450E-25
3.94265E-03 3.64430E-25
4.05278E-03 3.37696E-25
4.16442E-03 3.13053E-25
4.27757E-03 2.90321E-25
4.39223E-03 2.69339E-25
4.50840E-03 2.49961E-25
4.62608E-03 2.32053E-25
4.74527E-03 2.15495E-25
4.86597E-03 2.00176E-25
4.98817E-03 1.85998E-25
5.11188E-03 1.72868E-25
5.23711E-03 1.60703E-25
5.36383E-03 1.49428E-25
5.49207E-03 1.38972E-25
5.62181E-03 1.29273E-25
5.75306E-03 1.20272E-25
5.88581E-03 1.11915E-25
6.02007E-03 1.04155E-25
6.15583E-03 9.69451E-26
6.29310E-03 9.02452E-26
6.43187E-03 8.40171E-26
6.57214E-03 7.82259E-26
6.71392E-03 7.28397E-26
6.85720E-03 6.78287E-26
7.00198E-03 6.31658E-26
7.14827E-03 5.88259E-26
7.29605E-03 5.47856E-26
7.44534E-03 5.10237E-26
7.59612E-03 4.75203E-26
7.97965E-03 3.97760E-26
8.37255E-03 3.32862E-26
8.77480E-03 2.78440E-26
9.18641E-03 2.32781E-26
9.60736E-03 1.94464E-26
1.00376E-02 1.62304E-26
1.04773E-02 1.35315E-26
1.09262E-02 1.12672E-26
1.13844E-02 9.36835E-27
1.18520E-02 7.77697E-27
1.23288E-02 6.44439E-27
1.28150E-02 5.32963E-27
1.33104E-02 4.39822E-27
1.38150E-02 3.62109E-27
1.43290E-02 2.97371E-27
1.48521E-02 2.43541E-27
1.53845E-02 1.98872E-27
1.59262E-02 1.61889E-27
1.64770E-02 1.31347E-27
1.70371E-02 1.06196E-27
1.76063E-02 8.55473E-28
1.81848E-02 6.86538E-28
1.87724E-02 5.48847E-28
1.93692E-02 4.37090E-28
1.99751E-02 3.46801E-28
2.05901E-02 2.74228E-28
2.12143E-02 2.16226E-28
2.18476E-02 1.70160E-28
2.24900E-02 1.33833E-28
2.31415E-02 1.05409E-28
2.38021E-02 8.33669E-29
2.44717E-02 6.64438E-29
2.51504E-02 5.35979E-29
2.58382E-02 4.39725E-29
2.65349E-02 3.68663E-29
2.72407E-02 3.17082E-29
2.79555E-02 2.80356E-29
2.86793E-02 2.54767E-29
2.94120E-02 2.37348E-29
3.01537E-02 2.25752E-29
3.09043E-02 2.18148E-29
3.16639E-02 2.13121E-29
3.24324E-02 2.09599E-29
3.32098E-02 2.06786E-29
3.39961E-02 2.04109E-29
3.47912E-02 2.01171E-29
3.55952E-02 1.97715E-29
3.64081E-02 1.93591E-29
3.72297E-02 1.88731E-29
3.80602E-02 1.83131E-29
3.88995E-02 1.76828E-29
3.97476E-02 1.69894E-29
4.06044E-02 1.62417E-29
4.14700E-02 1.54499E-29
4.23443E-02 1.46247E-29
4.32273E-02 1.37767E-29
4.41190E-02 1.29162E-29
4.50194E-02 1.20527E-29
4.59284E-02 1.11950E-29
4.68461E-02 1.03511E-29
4.87074E-02 8.73034E-30
5.06030E-02 7.23305E-30
5.25328E-02 5.88640E-30
5.44967E-02 4.70436E-30
5.64946E-02 3.69006E-30
5.85262E-02 2.83836E-30
6.05914E-02 2.13830E-30
6.26901E-02 1.57514E-30
6.48222E-02 1.13215E-30
6.69873E-02 7.91941E-31
6.91854E-02 5.37497E-31
7.14163E-02 3.52898E-31
7.36799E-02 2.23765E-31
7.59760E-02 1.37506E-31
7.83043E-02 8.33997E-32
8.06647E-02 5.25628E-32
8.30571E-02 3.78297E-32
8.54812E-02 3.35844E-32
8.79369E-02 3.55629E-32
9.04240E-02 4.06467E-32
9.29422E-02 4.66603E-32
9.54915E-02 5.21815E-32
9.80716E-02 5.63720E-32
1.00682E-01 5.88287E-32
1.03323E-01 5.94594E-32
1.05995E-01 5.83807E-32
1.08696E-01 5.58363E-32
1.11427E-01 5.21359E-32
1.14188E-01 4.76087E-32
1.16978E-01 4.25722E-32
1.19797E-01 3.73110E-32
1.22645E-01 3.20658E-32
1.25522E-01 2.70277E-32
1.28428E-01 2.23387E-32
1.31361E-01 1.80947E-32
1.34323E-01 1.43509E-32
1.37313E-01 1.11288E-32
1.40330E-01 8.42208E-33
1.43375E-01 6.20429E-33
1.46447E-01 4.43445E-33
1.49545E-01 3.06258E-33
1.52671E-01 2.03426E-33
1.55823E-01 1.29420E-33
1.59001E-01 7.89041E-34
1.62205E-01 4.69315E-34
1.65435E-01 2.90732E-34
1.68690E-01 2.14886E-34
1.71970E-01 2.09503E-34
1.75276E-01 2.48320E-34
1.78606E-01 3.10713E-34
1.81961E-01 3.81146E-34
1.85340E-01 4.48524E-34
1.88743E-01 5.05496E-34
1.92169E-01 5.47766E-34
1.95619E-01 5.73439E-34
1.99092E-01 5.82424E-34
2.02589E-01 5.75910E-34
2.06107E-01 5.55923E-34
2.09649E-01 5.24959E-34
2.13212E-01 4.85696E-34
2.16797E-01 4.40781E-34
2.20404E-01 3.92669E-34
2.24032E-01 3.43525E-34
2.27680E-01 2.95165E-34
2.31350E-01 2.49037E-34
2.35040E-01 2.06219E-34
2.38751E-01 1.67450E-34
2.42481E-01 1.33162E-34
2.46231E-01 1.03527E-34
2.50000E-01 7.85027E-35
2.53788E-01 5.78796E-35
2.57595E-01 4.13272E-35
2.61421E-01 2.84335E-35
2.65264E-01 1.87402E-35
2.69126E-01 1.17717E-35
2.73005E-01 7.05915E-36
2.76901E-01 4.15778E-36
2.80814E-01 2.65988E-36
2.84744E-01 2.20285E-36
2.88691E-01 2.47363E-36
2.92653E-01 3.20991E-36
2.96632E-01 4.19882E-36
3.00625E-01 5.27389E-36
3.04634E-01 6.31070E-36
3.08658E-01 7.22182E-36
3.12697E-01 7.95128E-36
3.16749E-01 8.46913E-36
3.20816E-01 8.76607E-36
3.24896E-01 8.84864E-36
3.28990E-01 8.73474E-36
3.33097E-01 8.44986E-36
3.37216E-01 8.02384E-36
3.41348E-01 7.48826E-36
3.45492E-01 6.87440E-36
3.49647E-01 6.21170E-36
3.53814E-01 5.52669E-36
3.57992E-01 4.84235E-36
3.62181E-01 4.17772E-36
3.66381E-01 3.54791E-36
3.70590E-01 2.96414E-36
3.74810E-01 2.43408E-36
3.79039E-01 1.96224E-36
3.83277E-01 1.55038E-36
3.87524E-01 1.19796E-36
3.91780E-01 9.02694E-37
3.96044E-01 6.60861E-37
4.00316E-01 4.67798E-37
4.04596E-01 3.18248E-37
4.08882E-01 2.06624E-37
4.13176E-01 1.27318E-37
4.17476E-01 7.48580E-38
4.21783E-01 4.40935E-38
4.26095E-01 3.02922E-38
4.30413E-01 2.92310E-38
4.34737E-01 3.72090E-38
4.39065E-01 5.10869E-38
4.43398E-01 6.82601E-38
4.47736E-01 8.66391E-38
4.52077E-01 1.04607E-37
4.56422E-01 1.20971E-37
4.60770E-01 1.34909E-37
4.65122E-01 1.45916E-37
4.69476E-01 1.53748E-37
4.73832E-01 1.58368E-37
4.78190E-01 1.59905E-37
4.82550E-01 1.58601E-37
4.86912E-01 1.54781E-37
4.91274E-01 1.48819E-37
4.95637E-01 1.41114E-37
5.00000E-01 1.32062E-37
5.04363E-01 1.22050E-37
5.08726E-01 1.11433E-37
5.13088E-01 1.00534E-37
5.17450E-01 8.96381E-38
5.21810E-01 7.89817E-38
5.26168E-01 6.87633E-38
5.30524E-01 5.91331E-38
5.34878E-01 5.02075E-38
5.39230E-01 4.20593E-38
5.43578E-01 3.47330E-38
5.47923E-01 2.82433E-38
5.52264E-01 2.25806E-38
5.56602E-01 1.77160E-38
5.60935E-01 1.36057E-38
5.65263E-01 1.01940E-38
5.69587E-01 7.42008E-39
5.73905E-01 5.21638E-39
5.78217E-01 3.51632E-39
5.82524E-01 1.00000E-45
5.86824E-01 1.00000E-45
5.91118E-01 1.00000E-45
5.95404E-01 1.00000E-45
5.99684E-01 1.00000E-45
6.03956E-01 1.00000E-45
6.08220E-01 1.00000E-45
6.12476E-01 1.00000E-45
6.16723E-01 1.00000E-45
6.20961E-01 1.00000E-45
6.25190E-01 1.00000E-45
6.29410E-01 1.00000E-45
6.33619E-01 1.00000E-45
6.37819E-01 1.00000E-45
6.42008E-01 1.00000E-45
6.46186E-01 1.00000E-45
6.50353E-01 1.00000E-45
6.54508E-01 1.00000E-45
6.58652E-01 1.00000E-45
6.62784E-01 1.00000E-45
6.66903E-01 1.00000E-45
6.71010E-01 1.00000E-45
6.75104E-01 1.00000E-45
6.79184E-01 1.00000E-45
6.83251E-01 1.00000E-45
6.87303E-01 1.00000E-45
6.91342E-01 1.00000E-45
6.95366E-01 1.00000E-45
6.99375E-01 1.00000E-45
7.03368E-01 1.00000E-45
7.07347E-01 1.00000E-45
7.11309E-01 1.00000E-45
7.15256E-01 1.00000E-45
7.19186E-01 1.00000E-45
7.23099E-01 1.00000E-45
7.26995E-01 1.00000E-45
7.30874E-01 1.00000E-45
7.34736E-01 1.00000E-45
7.38579E-01 1.00000E-45
7.42405E-01 1.00000E-45
7.46212E-01 1.00000E-45
7.50000E-01 1.00000E-45
7.53769E-01 1.00000E-45
7.57519E-01 1.00000E-45
7.61249E-01 1.00000E-45
7.64960E-01 1.00000E-45
7.68650E-01 1.00000E-45
7.72320E-01 1.00000E-45
7.75968E-01 1.00000E-45
7.79596E-01 1.00000E-45
7.83203E-01 1.00000E-45
7.86788E-01 1.00000E-45
7.90351E-01 1.00000E-45
7.93893E-01 1.00000E-45
7.97411E-01 1.00000E-45
8.00908E-01 1.00000E-45
8.04381E-01 1.00000E-45
8.07831E-01 1.00000E-45
8.11257E-01 1.00000E-45
8.14660E-01 1.00000E-45
8.18039E-01 1.00000E-45
8.21394E-01 1.00000E-45
8.24724E-01 1.00000E-45
8.28030E-01 1.00000E-45
8.31310E-01 1.00000E-45
8.34565E-01 1.00000E-45
8.37795E-01 1.00000E-45
8.40999E-01 1.00000E-45
8.44177E-01 1.00000E-45
8.47329E-01 1.00000E-45
8.50455E-01 1.00000E-45
8.53553E-01 1.00000E-45
8.56625E-01 1.00000E-45
8.59670E-01 1.00000E-45
8.62687E-01 1.00000E-45
8.65677E-01 1.00000E-45
8.68639E-01 1.00000E-45
8.71572E-01 1.00000E-45
8.74478E-01 1.00000E-45
8.77355E-01 1.00000E-45
8.80203E-01 1.00000E-45
8.83022E-01 1.00000E-45
8.85812E-01 1.00000E-45
8.88573E-01 1.00000E-45
8.91304E-01 1.00000E-45
8.94005E-01 1.00000E-45
8.96677E-01 1.00000E-45
8.99318E-01 1.00000E-45
9.01928E-01 1.00000E-45
9.04508E-01 1.00000E-45
9.07058E-01 1.00000E-45
9.09576E-01 1.00000E-45
9.12063E-01 1.00000E-45
9.14519E-01 1.00000E-45
9.16943E-01 1.00000E-45
9.19335E-01 1.00000E-45
9.21696E-01 1.00000E-45
9.24024E-01 1.00000E-45
9.26320E-01 1.00000E-45
9.28584E-01 1.00000E-45
9.30815E-01 1.00000E-45
9.33013E-01 1.00000E-45
9.35178E-01 1.00000E-45
9.37310E-01 1.00000E-45
9.39409E-01 1.00000E-45
9.41474E-01 1.00000E-45
9.43505E-01 1.00000E-45
9.45503E-01 1.00000E-45
9.47467E-01 1.00000E-45
9.49397E-01 1.00000E-45
9.51293E-01 1.00000E-45
9.53154E-01 1.00000E-45
9.54981E-01 1.00000E-45
9.56773E-01 1.00000E-45
9.58530E-01 1.00000E-45
9.60252E-01 1.00000E-45
9.61940E-01 1.00000E-45
9.63592E-01 1.00000E-45
9.65209E-01 1.00000E-45
9.66790E-01 1.00000E-45
9.68336E-01 1.00000E-45
9.69846E-01 1.00000E-45
9.71321E-01 1.00000E-45
9.72759E-01 1.00000E-45
9.74162E-01 1.00000E-45
9.75528E-01 1.00000E-45
9.76858E-01 1.00000E-45
9.78152E-01 1.00000E-45
9.79410E-01 1.00000E-45
9.80631E-01 1.00000E-45
9.81815E-01 1.00000E-45
9.82963E-01 1.00000E-45
9.84074E-01 1.00000E-45
9.85148E-01 1.00000E-45
9.86185E-01 1.00000E-45
9.87185E-01 1.00000E-45
9.88148E-01 1.00000E-45
9.89074E-01 1.00000E-45
9.89962E-01 1.00000E-45
9.90814E-01 1.00000E-45
9.91627E-01 1.00000E-45
9.92404E-01 1.00000E-45
9.93143E-01 1.00000E-45
9.93844E-01 1.00000E-45
9.94508E-01 1.00000E-45
9.95134E-01 1.00000E-45
9.95722E-01 1.00000E-45
9.96273E-01 1.00000E-45
9.96786E-01 1.00000E-45
9.97261E-01 1.00000E-45
9.97698E-01 1.00000E-45
9.98097E-01 1.00000E-45
9.98459E-01 1.00000E-45
9.98782E-01 1.00000E-45
9.99067E-01 1.00000E-45
9.99315E-01 1.00000E-45
9.99524E-01 1.00000E-45
9.99695E-01 1.00000E-45
9.99829E-01 1.00000E-45
9.99924E-01 1.00000E-45
9.99981E-01 1.00000E-45
1.00000E+00 1.00000E-45
