 #
 # Subroutine ELSEPA. Elastic scattering of electrons and positrons
 #                    by neutral atoms and positive ions
 #
 # Projectile: electron
 # Kinetic energy = 4.50000E+07 eV = 1.65372E+06 a.u.
 #
 # WARNING: High-energy factorization with free-atom DF screening.
 #          Absorption, polarization and exchange corrections are
 #          switched off.
 #          Phase shifts are calculated for the bare nucleus.
 #          Scattering amplitudes are not evaluated.
 #
 # Element: Ni,  Z =  28,  atomic weight = 5.86934E+01 g/mol
 #
 # Nuclear model: Fermi distribution
 #                Average radius = 4.15828E-13 cm
 #                Skin thickness = 5.46000E-14 cm
 #
 # Number of electrons = 28
 #
 # Total elastic cross section = 1.97020E-18 cm**2 = 7.03570E-02 a0**2
 # 1st transport cross section = 7.61956E-25 cm**2 = 2.72099E-08 a0**2
 # 2nd transport cross section = 2.22503E-24 cm**2 = 7.94572E-08 a0**2
 #
 #
 # Differential cross section:                       MU=(1-COS(THETA))/2
 #
 #  THETA        MU          DCS          DCS        Sherman      error
 #  (deg)                 (cm**2/sr)   (a0**2/sr)    function
 #----------------------------------------------------------------------
0.00000E+00 3.38032E-11
7.61557E-13 3.37848E-11
1.18994E-12 3.37745E-11
1.71346E-12 3.37619E-11
2.33225E-12 3.37470E-11
3.04617E-12 3.37299E-11
3.85530E-12 3.37105E-11
4.75964E-12 3.36889E-11
5.75917E-12 3.36650E-11
6.85391E-12 3.36389E-11
8.04379E-12 3.36105E-11
9.32893E-12 3.35799E-11
1.07092E-11 3.35471E-11
1.21847E-11 3.35121E-11
1.37554E-11 3.34749E-11
1.54213E-11 3.34356E-11
1.71823E-11 3.33940E-11
1.90386E-11 3.33504E-11
2.09900E-11 3.33045E-11
2.30367E-11 3.32566E-11
2.51785E-11 3.32066E-11
2.74156E-11 3.31544E-11
2.97478E-11 3.31002E-11
3.21752E-11 3.30439E-11
3.46979E-11 3.29856E-11
3.73157E-11 3.29253E-11
4.00286E-11 3.28630E-11
4.28368E-11 3.27987E-11
4.57402E-11 3.27324E-11
4.87388E-11 3.26642E-11
5.18325E-11 3.25941E-11
5.50215E-11 3.25221E-11
5.83057E-11 3.24482E-11
6.16850E-11 3.23724E-11
6.51595E-11 3.22949E-11
6.87293E-11 3.22155E-11
7.23943E-11 3.21343E-11
7.61544E-11 3.20514E-11
1.18991E-10 3.11300E-11
1.71347E-10 3.00652E-11
2.33223E-10 2.88799E-11
3.04617E-10 2.76075E-11
3.85531E-10 2.62774E-11
4.75965E-10 2.49167E-11
5.75917E-10 2.35495E-11
6.85389E-10 2.21941E-11
8.04380E-10 2.08647E-11
9.32891E-10 1.95798E-11
1.07092E-09 1.83495E-11
1.21847E-09 1.71804E-11
1.37554E-09 1.60766E-11
1.54213E-09 1.50382E-11
1.71823E-09 1.40653E-11
1.90386E-09 1.31595E-11
2.09900E-09 1.23182E-11
2.30367E-09 1.15385E-11
2.51785E-09 1.08170E-11
2.74156E-09 1.01486E-11
2.97478E-09 9.53014E-12
3.21752E-09 8.95891E-12
3.46978E-09 8.43118E-12
3.73156E-09 7.94340E-12
4.00286E-09 7.49222E-12
4.28368E-09 7.07346E-12
4.57402E-09 6.68499E-12
4.87388E-09 6.32461E-12
5.18326E-09 5.98986E-12
5.50215E-09 5.67853E-12
5.83057E-09 5.38856E-12
6.16850E-09 5.11717E-12
6.51596E-09 4.86356E-12
6.87293E-09 4.62640E-12
7.23942E-09 4.40433E-12
7.61544E-09 4.19609E-12
1.18991E-08 2.64767E-12
1.71347E-08 1.76191E-12
2.33223E-08 1.18806E-12
3.04617E-08 8.20662E-13
3.85531E-08 5.78306E-13
4.75965E-08 4.14907E-13
5.75917E-08 3.02853E-13
6.85389E-08 2.24711E-13
8.04380E-08 1.69508E-13
9.32891E-08 1.30179E-13
1.07092E-07 1.01647E-13
1.21847E-07 8.05957E-14
1.37554E-07 6.48142E-14
1.54213E-07 5.27944E-14
1.71823E-07 4.35043E-14
1.90386E-07 3.62284E-14
2.09900E-07 3.04545E-14
2.30367E-07 2.58171E-14
2.51785E-07 2.20511E-14
2.74156E-07 1.89586E-14
2.97478E-07 1.63936E-14
3.21752E-07 1.42529E-14
3.46978E-07 1.24532E-14
3.73156E-07 1.09301E-14
4.00286E-07 9.63286E-15
4.28368E-07 8.51991E-15
4.57402E-07 7.56135E-15
4.87388E-07 6.73256E-15
5.18325E-07 6.01287E-15
5.50215E-07 5.38545E-15
5.83057E-07 4.83648E-15
6.16850E-07 4.35383E-15
6.51596E-07 3.92893E-15
6.87293E-07 3.55388E-15
7.23942E-07 3.22189E-15
7.61543E-07 2.92723E-15
1.18991E-06 1.24062E-15
1.71347E-06 6.09507E-16
2.33223E-06 3.33431E-16
3.04617E-06 1.97685E-16
3.85531E-06 1.24654E-16
4.75964E-06 8.25035E-17
5.75916E-06 5.67770E-17
6.85388E-06 4.03463E-17
8.04378E-06 2.94518E-17
9.32888E-06 2.19965E-17
1.07092E-05 1.67558E-17
1.21846E-05 1.29854E-17
1.37553E-05 1.02171E-17
1.54212E-05 8.14782E-18
1.71822E-05 6.57624E-18
1.90385E-05 5.36518E-18
2.09899E-05 4.42092E-18
2.30365E-05 3.67522E-18
2.51783E-05 3.08001E-18
2.74153E-05 2.60033E-18
2.97475E-05 2.21035E-18
3.21749E-05 1.89075E-18
3.46974E-05 1.62687E-18
3.73152E-05 1.40747E-18
4.00281E-05 1.22386E-18
4.28362E-05 1.06923E-18
4.57395E-05 9.38262E-19
4.87380E-05 8.26728E-19
5.18317E-05 7.31267E-19
5.50205E-05 6.49182E-19
5.83045E-05 5.78292E-19
6.16838E-05 5.16820E-19
6.51582E-05 4.63306E-19
6.87277E-05 4.16547E-19
7.23925E-05 3.75545E-19
7.61524E-05 3.39474E-19
9.21439E-05 2.32079E-19
1.09658E-04 1.63991E-19
1.28695E-04 1.19149E-19
1.49255E-04 8.86410E-20
1.71338E-04 6.73068E-20
1.94942E-04 5.20239E-20
2.20070E-04 4.08449E-20
2.46720E-04 3.25155E-20
2.74892E-04 2.62061E-20
3.04586E-04 2.13567E-20
3.35803E-04 1.75795E-20
3.68542E-04 1.46024E-20
4.02802E-04 1.22301E-20
4.38585E-04 1.03209E-20
4.75889E-04 8.77056E-21
5.14715E-04 7.50090E-21
5.55063E-04 6.45314E-21
5.96931E-04 5.58228E-21
6.40321E-04 4.85364E-21
6.85233E-04 4.24023E-21
7.31665E-04 3.72084E-21
7.79618E-04 3.27869E-21
8.29092E-04 2.90038E-21
8.80086E-04 2.57516E-21
9.32601E-04 2.29434E-21
9.86636E-04 2.05082E-21
1.04219E-03 1.83881E-21
1.09927E-03 1.65354E-21
1.15786E-03 1.49106E-21
1.21797E-03 1.34808E-21
1.27961E-03 1.22186E-21
1.34276E-03 1.11010E-21
1.40743E-03 1.01084E-21
1.47362E-03 9.22456E-22
1.54133E-03 8.43536E-22
1.61056E-03 7.72892E-22
1.68131E-03 7.09502E-22
1.75357E-03 6.52490E-22
1.82735E-03 6.01101E-22
1.90265E-03 5.54681E-22
1.97947E-03 5.12664E-22
2.05780E-03 4.74558E-22
2.13765E-03 4.39933E-22
2.21902E-03 4.08416E-22
2.30190E-03 3.79675E-22
2.38630E-03 3.53423E-22
2.47222E-03 3.29405E-22
2.55965E-03 3.07397E-22
2.64859E-03 2.87200E-22
2.73905E-03 2.68638E-22
2.83103E-03 2.51554E-22
2.92452E-03 2.35809E-22
3.01952E-03 2.21279E-22
3.11604E-03 2.07854E-22
3.21407E-03 1.95433E-22
3.31362E-03 1.83928E-22
3.41468E-03 1.73258E-22
3.51725E-03 1.63353E-22
3.62133E-03 1.54147E-22
3.72692E-03 1.45581E-22
3.83403E-03 1.37603E-22
3.94265E-03 1.30166E-22
4.05278E-03 1.23225E-22
4.16442E-03 1.16741E-22
4.27757E-03 1.10679E-22
4.39223E-03 1.05006E-22
4.50840E-03 9.96929E-23
4.62608E-03 9.47118E-23
4.74527E-03 9.00386E-23
4.86597E-03 8.56507E-23
4.98817E-03 8.15272E-23
5.11188E-03 7.76493E-23
5.23711E-03 7.39997E-23
5.36383E-03 7.05623E-23
5.49207E-03 6.73226E-23
5.62181E-03 6.42669E-23
5.75306E-03 6.13830E-23
5.88581E-03 5.86593E-23
6.02007E-03 5.60852E-23
6.15583E-03 5.36510E-23
6.29310E-03 5.13476E-23
6.43187E-03 4.91667E-23
6.57214E-03 4.71006E-23
6.71392E-03 4.51420E-23
6.85720E-03 4.32843E-23
7.00198E-03 4.15213E-23
7.14827E-03 3.98473E-23
7.29605E-03 3.82569E-23
7.44534E-03 3.67451E-23
7.59612E-03 3.53074E-23
7.97965E-03 3.20095E-23
8.37255E-03 2.90881E-23
8.77480E-03 2.64929E-23
9.18641E-03 2.41809E-23
9.60736E-03 2.21159E-23
1.00376E-02 2.02669E-23
1.04773E-02 1.86072E-23
1.09262E-02 1.71140E-23
1.13844E-02 1.57677E-23
1.18520E-02 1.45512E-23
1.23288E-02 1.34498E-23
1.28150E-02 1.24507E-23
1.33104E-02 1.15426E-23
1.38150E-02 1.07157E-23
1.43290E-02 9.96154E-24
1.48521E-02 9.27251E-24
1.53845E-02 8.64197E-24
1.59262E-02 8.06406E-24
1.64770E-02 7.53359E-24
1.70371E-02 7.04597E-24
1.76063E-02 6.59709E-24
1.81848E-02 6.18332E-24
1.87724E-02 5.80142E-24
1.93692E-02 5.44848E-24
1.99751E-02 5.12190E-24
2.05901E-02 4.81936E-24
2.12143E-02 4.53875E-24
2.18476E-02 4.27821E-24
2.24900E-02 4.03603E-24
2.31415E-02 3.81067E-24
2.38021E-02 3.60077E-24
2.44717E-02 3.40505E-24
2.51504E-02 3.22239E-24
2.58382E-02 3.05175E-24
2.65349E-02 2.89221E-24
2.72407E-02 2.74289E-24
2.79555E-02 2.60303E-24
2.86793E-02 2.47192E-24
2.94120E-02 2.34891E-24
3.01537E-02 2.23340E-24
3.09043E-02 2.12485E-24
3.16639E-02 2.02278E-24
3.24324E-02 1.92671E-24
3.32098E-02 1.83623E-24
3.39961E-02 1.75095E-24
3.47912E-02 1.67053E-24
3.55952E-02 1.59463E-24
3.64081E-02 1.52295E-24
3.72297E-02 1.45522E-24
3.80602E-02 1.39117E-24
3.88995E-02 1.33057E-24
3.97476E-02 1.27319E-24
4.06044E-02 1.21885E-24
4.14700E-02 1.16733E-24
4.23443E-02 1.11848E-24
4.32273E-02 1.07213E-24
4.41190E-02 1.02812E-24
4.50194E-02 9.86317E-25
4.59284E-02 9.46589E-25
4.68461E-02 9.08813E-25
4.87074E-02 8.38673E-25
5.06030E-02 7.75074E-25
5.25328E-02 7.17300E-25
5.44967E-02 6.64726E-25
5.64946E-02 6.16801E-25
5.85262E-02 5.73043E-25
6.05914E-02 5.33027E-25
6.26901E-02 4.96376E-25
6.48222E-02 4.62759E-25
6.69873E-02 4.31880E-25
6.91854E-02 4.03479E-25
7.14163E-02 3.77321E-25
7.36799E-02 3.53199E-25
7.59760E-02 3.30926E-25
7.83043E-02 3.10337E-25
8.06647E-02 2.91283E-25
8.30571E-02 2.73628E-25
8.54812E-02 2.57253E-25
8.79369E-02 2.42049E-25
9.04240E-02 2.27918E-25
9.29422E-02 2.14770E-25
9.54915E-02 2.02527E-25
9.80716E-02 1.91114E-25
1.00682E-01 1.80467E-25
1.03323E-01 1.70525E-25
1.05995E-01 1.61233E-25
1.08696E-01 1.52542E-25
1.11427E-01 1.44406E-25
1.14188E-01 1.36784E-25
1.16978E-01 1.29637E-25
1.19797E-01 1.22932E-25
1.22645E-01 1.16637E-25
1.25522E-01 1.10722E-25
1.28428E-01 1.05160E-25
1.31361E-01 9.99274E-26
1.34323E-01 9.50008E-26
1.37313E-01 9.03596E-26
1.40330E-01 8.59845E-26
1.43375E-01 8.18577E-26
1.46447E-01 7.79630E-26
1.49545E-01 7.42850E-26
1.52671E-01 7.08098E-26
1.55823E-01 6.75245E-26
1.59001E-01 6.44169E-26
1.62205E-01 6.14759E-26
1.65435E-01 5.86913E-26
1.68690E-01 5.60532E-26
1.71970E-01 5.35529E-26
1.75276E-01 5.11820E-26
1.78606E-01 4.89327E-26
1.81961E-01 4.67978E-26
1.85340E-01 4.47707E-26
1.88743E-01 4.28450E-26
1.92169E-01 4.10148E-26
1.95619E-01 3.92748E-26
1.99092E-01 3.76198E-26
2.02589E-01 3.60450E-26
2.06107E-01 3.45459E-26
2.09649E-01 3.31184E-26
2.13212E-01 3.17585E-26
2.16797E-01 3.04625E-26
2.20404E-01 2.92270E-26
2.24032E-01 2.80488E-26
2.27680E-01 2.69248E-26
2.31350E-01 2.58522E-26
2.35040E-01 2.48282E-26
2.38751E-01 2.38504E-26
2.42481E-01 2.29164E-26
2.46231E-01 2.20238E-26
2.50000E-01 2.11707E-26
2.53788E-01 2.03550E-26
2.57595E-01 1.95749E-26
2.61421E-01 1.88286E-26
2.65264E-01 1.81144E-26
2.69126E-01 1.74308E-26
2.73005E-01 1.67762E-26
2.76901E-01 1.61493E-26
2.80814E-01 1.55487E-26
2.84744E-01 1.49733E-26
2.88691E-01 1.44217E-26
2.92653E-01 1.38929E-26
2.96632E-01 1.33857E-26
3.00625E-01 1.28993E-26
3.04634E-01 1.24327E-26
3.08658E-01 1.19849E-26
3.12697E-01 1.15550E-26
3.16749E-01 1.11423E-26
3.20816E-01 1.07461E-26
3.24896E-01 1.03654E-26
3.28990E-01 9.99978E-27
3.33097E-01 9.64843E-27
3.37216E-01 9.31076E-27
3.41348E-01 8.98616E-27
3.45492E-01 8.67407E-27
3.49647E-01 8.37395E-27
3.53814E-01 8.08528E-27
3.57992E-01 7.80758E-27
3.62181E-01 7.54038E-27
3.66381E-01 7.28324E-27
3.70590E-01 7.03573E-27
3.74810E-01 6.79745E-27
3.79039E-01 6.56801E-27
3.83277E-01 6.34706E-27
3.87524E-01 6.13424E-27
3.91780E-01 5.92922E-27
3.96044E-01 5.73168E-27
4.00316E-01 5.54131E-27
4.04596E-01 5.35784E-27
4.08882E-01 5.18098E-27
4.13176E-01 5.01046E-27
4.17476E-01 4.84604E-27
4.21783E-01 4.68748E-27
4.26095E-01 4.53453E-27
4.30413E-01 4.38700E-27
4.34737E-01 4.24465E-27
4.39065E-01 4.10730E-27
4.43398E-01 3.97474E-27
4.47736E-01 3.84679E-27
4.52077E-01 3.72329E-27
4.56422E-01 3.60405E-27
4.60770E-01 3.48891E-27
4.65122E-01 3.37772E-27
4.69476E-01 3.27034E-27
4.73832E-01 3.16661E-27
4.78190E-01 3.06641E-27
4.82550E-01 2.96959E-27
4.86912E-01 2.87604E-27
4.91274E-01 2.78564E-27
4.95637E-01 2.69826E-27
5.00000E-01 2.61381E-27
5.04363E-01 2.53216E-27
5.08726E-01 2.45322E-27
5.13088E-01 2.37690E-27
5.17450E-01 2.30309E-27
5.21810E-01 2.23171E-27
5.26168E-01 2.16267E-27
5.30524E-01 2.09589E-27
5.34878E-01 2.03128E-27
5.39230E-01 1.96877E-27
5.43578E-01 1.90829E-27
5.47923E-01 1.84976E-27
5.52264E-01 1.79312E-27
5.56602E-01 1.73829E-27
5.60935E-01 1.68523E-27
5.65263E-01 1.63386E-27
5.69587E-01 1.58412E-27
5.73905E-01 1.53597E-27
5.78217E-01 1.48935E-27
5.82524E-01 1.44420E-27
5.86824E-01 1.40047E-27
5.91118E-01 1.35812E-27
5.95404E-01 1.31709E-27
5.99684E-01 1.27736E-27
6.03956E-01 1.23886E-27
6.08220E-01 1.20156E-27
6.12476E-01 1.16542E-27
6.16723E-01 1.13040E-27
6.20961E-01 1.09647E-27
6.25190E-01 1.06358E-27
6.29410E-01 1.03170E-27
6.33619E-01 1.00080E-27
6.37819E-01 9.70854E-28
6.42008E-01 9.41820E-28
6.46186E-01 9.13672E-28
6.50353E-01 8.86381E-28
6.54508E-01 8.59920E-28
6.58652E-01 8.34260E-28
6.62784E-01 8.09378E-28
6.66903E-01 7.85246E-28
6.71010E-01 7.61842E-28
6.75104E-01 7.39141E-28
6.79184E-01 7.17122E-28
6.83251E-01 6.95762E-28
6.87303E-01 6.75041E-28
6.91342E-01 6.54939E-28
6.95366E-01 6.35435E-28
6.99375E-01 6.16510E-28
7.03368E-01 5.98148E-28
7.07347E-01 5.80329E-28
7.11309E-01 5.63037E-28
7.15256E-01 5.46255E-28
7.19186E-01 5.29968E-28
7.23099E-01 5.14160E-28
7.26995E-01 4.98816E-28
7.30874E-01 4.83922E-28
7.34736E-01 4.69464E-28
7.38579E-01 4.55428E-28
7.42405E-01 4.41801E-28
7.46212E-01 4.28571E-28
7.50000E-01 4.15726E-28
7.53769E-01 4.03254E-28
7.57519E-01 3.91144E-28
7.61249E-01 3.79384E-28
7.64960E-01 3.67964E-28
7.68650E-01 3.56874E-28
7.72320E-01 3.46103E-28
7.75968E-01 3.35643E-28
7.79596E-01 3.25483E-28
7.83203E-01 3.15615E-28
7.86788E-01 3.06030E-28
7.90351E-01 2.96719E-28
7.93893E-01 2.87675E-28
7.97411E-01 2.78889E-28
8.00908E-01 2.70353E-28
8.04381E-01 2.62061E-28
8.07831E-01 2.54006E-28
8.11257E-01 2.46179E-28
8.14660E-01 2.38575E-28
8.18039E-01 2.31186E-28
8.21394E-01 2.24007E-28
8.24724E-01 2.17032E-28
8.28030E-01 2.10254E-28
8.31310E-01 2.03668E-28
8.34565E-01 1.97268E-28
8.37795E-01 1.91048E-28
8.40999E-01 1.85005E-28
8.44177E-01 1.79132E-28
8.47329E-01 1.73424E-28
8.50455E-01 1.67877E-28
8.53553E-01 1.62487E-28
8.56625E-01 1.57248E-28
8.59670E-01 1.52157E-28
8.62687E-01 1.47209E-28
8.65677E-01 1.42400E-28
8.68639E-01 1.37726E-28
8.71572E-01 1.33184E-28
8.74478E-01 1.28770E-28
8.77355E-01 1.24480E-28
8.80203E-01 1.20310E-28
8.83022E-01 1.16258E-28
8.85812E-01 1.12320E-28
8.88573E-01 1.08493E-28
8.91304E-01 1.04773E-28
8.94005E-01 1.01159E-28
8.96677E-01 9.76461E-29
8.99318E-01 9.42327E-29
9.01928E-01 9.09158E-29
9.04508E-01 8.76928E-29
9.07058E-01 8.45610E-29
9.09576E-01 8.15181E-29
9.12063E-01 7.85616E-29
9.14519E-01 7.56892E-29
9.16943E-01 7.28987E-29
9.19335E-01 7.01879E-29
9.21696E-01 6.75547E-29
9.24024E-01 6.49970E-29
9.26320E-01 6.25129E-29
9.28584E-01 6.01004E-29
9.30815E-01 5.77577E-29
9.33013E-01 5.54830E-29
9.35178E-01 5.32745E-29
9.37310E-01 5.11305E-29
9.39409E-01 4.90494E-29
9.41474E-01 4.70295E-29
9.43505E-01 4.50694E-29
9.45503E-01 4.31676E-29
9.47467E-01 4.13226E-29
9.49397E-01 3.95330E-29
9.51293E-01 3.77974E-29
9.53154E-01 3.61146E-29
9.54981E-01 3.44832E-29
9.56773E-01 3.29021E-29
9.58530E-01 3.13701E-29
9.60252E-01 2.98859E-29
9.61940E-01 2.84486E-29
9.63592E-01 2.70570E-29
9.65209E-01 2.57100E-29
9.66790E-01 2.44067E-29
9.68336E-01 2.31461E-29
9.69846E-01 2.19273E-29
9.71321E-01 2.07493E-29
9.72759E-01 1.96114E-29
9.74162E-01 1.85125E-29
9.75528E-01 1.74520E-29
9.76858E-01 1.64291E-29
9.78152E-01 1.54429E-29
9.79410E-01 1.44928E-29
9.80631E-01 1.35781E-29
9.81815E-01 1.26980E-29
9.82963E-01 1.18520E-29
9.84074E-01 1.10395E-29
9.85148E-01 1.02598E-29
9.86185E-01 9.51230E-30
9.87185E-01 8.79655E-30
9.88148E-01 8.11200E-30
9.89074E-01 7.45815E-30
9.89962E-01 6.83451E-30
9.90814E-01 6.24064E-30
9.91627E-01 5.67610E-30
9.92404E-01 5.14048E-30
9.93143E-01 4.63340E-30
9.93844E-01 4.15449E-30
9.94508E-01 3.70339E-30
9.95134E-01 3.27978E-30
9.95722E-01 2.88336E-30
9.96273E-01 2.51384E-30
9.96786E-01 2.17095E-30
9.97261E-01 1.85444E-30
9.97698E-01 1.56408E-30
9.98097E-01 1.29967E-30
9.98459E-01 1.06102E-30
9.98782E-01 8.47941E-31
9.99067E-01 6.60293E-31
9.99315E-01 4.97937E-31
9.99524E-01 3.60757E-31
9.99695E-01 2.48653E-31
9.99829E-01 1.61545E-31
9.99924E-01 9.93698E-32
9.99981E-01 6.20828E-32
1.00000E+00 4.96535E-32
