 #
 # Subroutine ELSEPA. Elastic scattering of electrons and positrons
 #                    by neutral atoms and positive ions
 #
 # Projectile: electron
 # Kinetic energy = 8.00000E+07 eV = 2.93995E+06 a.u.
 #
 # WARNING: High-energy factorization with free-atom DF screening.
 #          Absorption, polarization and exchange corrections are
 #          switched off.
 #          Phase shifts are calculated for the bare nucleus.
 #          Scattering amplitudes are not evaluated.
 #
 # Element: Xe,  Z =  54,  atomic weight = 1.31290E+02 g/mol
 #
 # Nuclear model: Fermi distribution
 #                Average radius = 5.43827E-13 cm
 #                Skin thickness = 5.46000E-14 cm
 #
 # Number of electrons = 54
 #
 # Total elastic cross section = 5.87028E-18 cm**2 = 2.09632E-01 a0**2
 # 1st transport cross section = 8.84978E-25 cm**2 = 3.16031E-08 a0**2
 # 2nd transport cross section = 2.62460E-24 cm**2 = 9.37262E-08 a0**2
 #
 #
 # Differential cross section:                       MU=(1-COS(THETA))/2
 #
 #  THETA        MU          DCS          DCS        Sherman      error
 #  (deg)                 (cm**2/sr)   (a0**2/sr)    function
 #----------------------------------------------------------------------
0.00000E+00 2.78071E-10
7.61557E-13 2.77773E-10
1.18994E-12 2.77606E-10
1.71346E-12 2.77402E-10
2.33225E-12 2.77162E-10
3.04617E-12 2.76885E-10
3.85530E-12 2.76572E-10
4.75964E-12 2.76223E-10
5.75917E-12 2.75838E-10
6.85391E-12 2.75417E-10
8.04379E-12 2.74961E-10
9.32893E-12 2.74469E-10
1.07092E-11 2.73943E-10
1.21847E-11 2.73381E-10
1.37554E-11 2.72786E-10
1.54213E-11 2.72157E-10
1.71823E-11 2.71494E-10
1.90386E-11 2.70797E-10
2.09900E-11 2.70068E-10
2.30367E-11 2.69306E-10
2.51785E-11 2.68513E-10
2.74156E-11 2.67687E-10
2.97478E-11 2.66831E-10
3.21752E-11 2.65944E-10
3.46979E-11 2.65026E-10
3.73157E-11 2.64066E-10
4.00286E-11 2.63077E-10
4.28368E-11 2.62064E-10
4.57402E-11 2.61029E-10
4.87388E-11 2.59973E-10
5.18325E-11 2.58897E-10
5.50215E-11 2.57802E-10
5.83057E-11 2.56641E-10
6.16850E-11 2.55458E-10
6.51595E-11 2.54259E-10
6.87293E-11 2.53044E-10
7.23943E-11 2.51815E-10
7.61544E-11 2.50572E-10
1.18991E-10 2.36802E-10
1.71347E-10 2.21494E-10
2.33223E-10 2.05188E-10
3.04617E-10 1.88518E-10
3.85531E-10 1.71972E-10
4.75965E-10 1.55911E-10
5.75917E-10 1.40707E-10
6.85389E-10 1.26451E-10
8.04380E-10 1.13387E-10
9.32891E-10 1.01423E-10
1.07092E-09 9.06931E-11
1.21847E-09 8.10192E-11
1.37554E-09 7.24479E-11
1.54213E-09 6.48141E-11
1.71823E-09 5.80847E-11
1.90386E-09 5.21328E-11
2.09900E-09 4.68928E-11
2.30367E-09 4.22703E-11
2.51785E-09 3.81955E-11
2.74156E-09 3.45990E-11
2.97478E-09 3.14183E-11
3.21752E-09 2.86034E-11
3.46978E-09 2.61026E-11
3.73156E-09 2.37992E-11
4.00286E-09 2.17518E-11
4.28368E-09 1.99562E-11
4.57402E-09 1.83754E-11
4.87388E-09 1.69784E-11
5.18326E-09 1.57395E-11
5.50215E-09 1.46371E-11
5.83057E-09 1.35360E-11
6.16850E-09 1.25448E-11
6.51596E-09 1.16584E-11
6.87293E-09 1.08635E-11
7.23942E-09 1.01485E-11
7.61544E-09 9.50372E-12
1.18991E-08 5.04998E-12
1.71347E-08 2.88908E-12
2.33223E-08 1.75096E-12
3.04617E-08 1.12179E-12
3.85531E-08 7.56045E-13
4.75965E-08 5.31630E-13
5.75917E-08 3.86987E-13
6.85389E-08 2.89206E-13
8.04380E-08 2.20843E-13
9.32891E-08 1.71369E-13
1.07092E-07 1.34869E-13
1.21847E-07 1.07378E-13
1.37554E-07 8.64853E-14
1.54213E-07 7.03139E-14
1.71823E-07 5.76989E-14
1.90386E-07 4.77383E-14
2.09900E-07 3.98203E-14
2.30367E-07 3.34709E-14
2.51785E-07 2.83397E-14
2.74156E-07 2.41582E-14
2.97478E-07 2.07223E-14
3.21752E-07 1.78788E-14
3.46978E-07 1.55085E-14
3.73156E-07 1.35164E-14
4.00286E-07 1.18402E-14
4.28368E-07 1.04234E-14
4.57402E-07 9.20581E-15
4.87388E-07 8.16586E-15
5.18325E-07 7.27033E-15
5.50215E-07 6.49173E-15
5.83057E-07 5.81749E-15
6.16850E-07 5.22782E-15
6.51596E-07 4.71072E-15
6.87293E-07 4.25773E-15
7.23942E-07 3.85607E-15
7.61543E-07 3.50125E-15
1.18991E-06 1.48686E-15
1.71347E-06 7.32764E-16
2.33223E-06 4.01032E-16
3.04617E-06 2.37405E-16
3.85531E-06 1.49344E-16
4.75964E-06 9.85946E-17
5.75916E-06 6.76969E-17
6.85388E-06 4.80166E-17
8.04378E-06 3.49995E-17
9.32888E-06 2.61116E-17
1.07092E-05 1.98753E-17
1.21846E-05 1.53948E-17
1.37553E-05 1.21087E-17
1.54212E-05 9.65451E-18
1.71822E-05 7.79166E-18
1.90385E-05 6.35506E-18
2.09899E-05 5.23833E-18
2.30365E-05 4.35599E-18
2.51783E-05 3.65118E-18
2.74153E-05 3.08279E-18
2.97475E-05 2.62053E-18
3.21749E-05 2.24172E-18
3.46974E-05 1.92904E-18
3.73152E-05 1.66918E-18
4.00281E-05 1.45174E-18
4.28362E-05 1.26865E-18
4.57395E-05 1.11352E-18
4.87380E-05 9.81355E-19
5.18317E-05 8.68179E-19
5.50205E-05 7.70827E-19
5.83045E-05 6.86728E-19
6.16838E-05 6.13799E-19
6.51582E-05 5.50314E-19
6.87277E-05 4.94846E-19
7.23925E-05 4.46207E-19
7.61524E-05 4.03661E-19
9.21439E-05 2.76134E-19
1.09658E-04 1.95230E-19
1.28695E-04 1.41929E-19
1.49255E-04 1.05641E-19
1.71338E-04 8.02569E-20
1.94942E-04 6.20638E-20
2.20070E-04 4.87512E-20
2.46720E-04 3.88282E-20
2.74892E-04 3.13087E-20
3.04586E-04 2.55272E-20
3.35803E-04 2.10222E-20
3.68542E-04 1.74703E-20
4.02802E-04 1.46389E-20
4.38585E-04 1.23595E-20
4.75889E-04 1.05078E-20
5.14715E-04 8.99087E-21
5.55063E-04 7.73858E-21
5.96931E-04 6.69737E-21
6.40321E-04 5.82589E-21
6.85233E-04 5.09198E-21
7.31665E-04 4.47032E-21
7.79618E-04 3.94094E-21
8.29092E-04 3.48783E-21
8.80086E-04 3.09816E-21
9.32601E-04 2.76157E-21
9.86636E-04 2.46958E-21
1.04219E-03 2.21529E-21
1.09927E-03 1.99298E-21
1.15786E-03 1.79796E-21
1.21797E-03 1.62627E-21
1.27961E-03 1.47466E-21
1.34276E-03 1.34036E-21
1.40743E-03 1.22105E-21
1.47362E-03 1.11476E-21
1.54133E-03 1.01983E-21
1.61056E-03 9.34807E-22
1.68131E-03 8.58501E-22
1.75357E-03 7.89840E-22
1.82735E-03 7.27931E-22
1.90265E-03 6.71987E-22
1.97947E-03 6.21331E-22
2.05780E-03 5.75373E-22
2.13765E-03 5.33599E-22
2.21902E-03 4.95559E-22
2.30190E-03 4.60859E-22
2.38630E-03 4.29152E-22
2.47222E-03 4.00132E-22
2.55965E-03 3.73531E-22
2.64859E-03 3.49111E-22
2.73905E-03 3.26658E-22
2.83103E-03 3.05987E-22
2.92452E-03 2.86930E-22
3.01952E-03 2.69336E-22
3.11604E-03 2.53074E-22
3.21407E-03 2.38024E-22
3.31362E-03 2.24078E-22
3.41468E-03 2.11141E-22
3.51725E-03 1.99125E-22
3.62133E-03 1.87953E-22
3.72692E-03 1.77556E-22
3.83403E-03 1.67869E-22
3.94265E-03 1.58834E-22
4.05278E-03 1.50400E-22
4.16442E-03 1.42520E-22
4.27757E-03 1.35149E-22
4.39223E-03 1.28249E-22
4.50840E-03 1.21784E-22
4.62608E-03 1.15722E-22
4.74527E-03 1.10033E-22
4.86597E-03 1.04689E-22
4.98817E-03 9.96657E-23
5.11188E-03 9.49402E-23
5.23711E-03 9.04914E-23
5.36383E-03 8.63002E-23
5.49207E-03 8.23487E-23
5.62181E-03 7.86207E-23
5.75306E-03 7.51011E-23
5.88581E-03 7.17761E-23
6.02007E-03 6.86329E-23
6.15583E-03 6.56596E-23
6.29310E-03 6.28454E-23
6.43187E-03 6.01800E-23
6.57214E-03 5.76542E-23
6.71392E-03 5.52593E-23
6.85720E-03 5.29871E-23
7.00198E-03 5.08302E-23
7.14827E-03 4.87817E-23
7.29605E-03 4.68350E-23
7.44534E-03 4.49841E-23
7.59612E-03 4.32234E-23
7.97965E-03 3.91829E-23
8.37255E-03 3.56018E-23
8.77480E-03 3.24187E-23
9.18641E-03 2.95816E-23
9.60736E-03 2.70464E-23
1.00376E-02 2.47752E-23
1.04773E-02 2.27357E-23
1.09262E-02 2.09002E-23
1.13844E-02 1.92445E-23
1.18520E-02 1.77481E-23
1.23288E-02 1.63927E-23
1.28150E-02 1.51629E-23
1.33104E-02 1.40449E-23
1.38150E-02 1.30267E-23
1.43290E-02 1.20979E-23
1.48521E-02 1.12491E-23
1.53845E-02 1.04724E-23
1.59262E-02 9.76044E-24
1.64770E-02 9.10691E-24
1.70371E-02 8.50617E-24
1.76063E-02 7.95319E-24
1.81848E-02 7.44351E-24
1.87724E-02 6.97314E-24
1.93692E-02 6.53851E-24
1.99751E-02 6.13643E-24
2.05901E-02 5.76402E-24
2.12143E-02 5.41872E-24
2.18476E-02 5.09820E-24
2.24900E-02 4.80038E-24
2.31415E-02 4.52336E-24
2.38021E-02 4.26544E-24
2.44717E-02 4.02507E-24
2.51504E-02 3.80085E-24
2.58382E-02 3.59151E-24
2.65349E-02 3.39588E-24
2.72407E-02 3.21292E-24
2.79555E-02 3.04167E-24
2.86793E-02 2.88124E-24
2.94120E-02 2.73083E-24
3.01537E-02 2.58971E-24
3.09043E-02 2.45721E-24
3.16639E-02 2.33272E-24
3.24324E-02 2.21566E-24
3.32098E-02 2.10553E-24
3.39961E-02 2.00183E-24
3.47912E-02 1.90413E-24
3.55952E-02 1.81203E-24
3.64081E-02 1.72516E-24
3.72297E-02 1.64316E-24
3.80602E-02 1.56571E-24
3.88995E-02 1.49253E-24
3.97476E-02 1.42334E-24
4.06044E-02 1.35789E-24
4.14700E-02 1.29594E-24
4.23443E-02 1.23727E-24
4.32273E-02 1.18169E-24
4.41190E-02 1.12900E-24
4.50194E-02 1.07903E-24
4.59284E-02 1.03162E-24
4.68461E-02 9.86609E-25
4.87074E-02 9.03257E-25
5.06030E-02 8.27952E-25
5.25328E-02 7.59804E-25
5.44967E-02 6.98035E-25
5.64946E-02 6.41963E-25
5.85262E-02 5.90989E-25
6.05914E-02 5.44584E-25
6.26901E-02 5.02284E-25
6.48222E-02 4.63674E-25
6.69873E-02 4.28391E-25
6.91854E-02 3.96109E-25
7.14163E-02 3.66540E-25
7.36799E-02 3.39427E-25
7.59760E-02 3.14539E-25
7.83043E-02 2.91672E-25
8.06647E-02 2.70640E-25
8.30571E-02 2.51279E-25
8.54812E-02 2.33441E-25
8.79369E-02 2.16990E-25
9.04240E-02 2.01808E-25
9.29422E-02 1.87784E-25
9.54915E-02 1.74822E-25
9.80716E-02 1.62831E-25
1.00682E-01 1.51731E-25
1.03323E-01 1.41449E-25
1.05995E-01 1.31919E-25
1.08696E-01 1.23079E-25
1.11427E-01 1.14876E-25
1.14188E-01 1.07258E-25
1.16978E-01 1.00180E-25
1.19797E-01 9.36005E-26
1.22645E-01 8.74808E-26
1.25522E-01 8.17859E-26
1.28428E-01 7.64839E-26
1.31361E-01 7.15455E-26
1.34323E-01 6.69435E-26
1.37313E-01 6.26534E-26
1.40330E-01 5.86522E-26
1.43375E-01 5.49191E-26
1.46447E-01 5.14348E-26
1.49545E-01 4.81816E-26
1.52671E-01 4.51429E-26
1.55823E-01 4.23038E-26
1.59001E-01 3.96503E-26
1.62205E-01 3.71695E-26
1.65435E-01 3.48494E-26
1.68690E-01 3.26790E-26
1.71970E-01 3.06481E-26
1.75276E-01 2.87473E-26
1.78606E-01 2.69677E-26
1.81961E-01 2.53013E-26
1.85340E-01 2.37404E-26
1.88743E-01 2.22782E-26
1.92169E-01 2.09080E-26
1.95619E-01 1.96239E-26
1.99092E-01 1.84201E-26
2.02589E-01 1.72915E-26
2.06107E-01 1.62332E-26
2.09649E-01 1.52407E-26
2.13212E-01 1.43097E-26
2.16797E-01 1.34362E-26
2.20404E-01 1.26167E-26
2.24032E-01 1.18477E-26
2.27680E-01 1.11260E-26
2.31350E-01 1.04486E-26
2.35040E-01 9.81270E-27
2.38751E-01 9.21573E-27
2.42481E-01 8.65525E-27
2.46231E-01 8.12899E-27
2.50000E-01 7.63481E-27
2.53788E-01 7.17074E-27
2.57595E-01 6.73490E-27
2.61421E-01 6.32556E-27
2.65264E-01 5.94109E-27
2.69126E-01 5.57996E-27
2.73005E-01 5.24074E-27
2.76901E-01 4.92209E-27
2.80814E-01 4.62276E-27
2.84744E-01 4.34157E-27
2.88691E-01 4.07741E-27
2.92653E-01 3.82925E-27
2.96632E-01 3.59613E-27
3.00625E-01 3.37712E-27
3.04634E-01 3.17138E-27
3.08658E-01 2.97810E-27
3.12697E-01 2.79653E-27
3.16749E-01 2.62597E-27
3.20816E-01 2.46575E-27
3.24896E-01 2.31525E-27
3.28990E-01 2.17388E-27
3.33097E-01 2.04110E-27
3.37216E-01 1.91638E-27
3.41348E-01 1.79925E-27
3.45492E-01 1.68924E-27
3.49647E-01 1.58593E-27
3.53814E-01 1.48892E-27
3.57992E-01 1.39782E-27
3.62181E-01 1.31229E-27
3.66381E-01 1.23198E-27
3.70590E-01 1.15659E-27
3.74810E-01 1.08581E-27
3.79039E-01 1.01937E-27
3.83277E-01 9.57011E-28
3.87524E-01 8.98483E-28
3.91780E-01 8.43556E-28
3.96044E-01 7.92013E-28
4.00316E-01 7.43650E-28
4.04596E-01 6.98273E-28
4.08882E-01 6.55702E-28
4.13176E-01 6.15768E-28
4.17476E-01 5.78310E-28
4.21783E-01 5.43178E-28
4.26095E-01 5.10230E-28
4.30413E-01 4.79333E-28
4.34737E-01 4.50363E-28
4.39065E-01 4.23201E-28
4.43398E-01 3.97738E-28
4.47736E-01 3.73868E-28
4.52077E-01 3.51494E-28
4.56422E-01 3.30525E-28
4.60770E-01 3.10873E-28
4.65122E-01 2.92457E-28
4.69476E-01 2.75202E-28
4.73832E-01 2.59034E-28
4.78190E-01 2.43887E-28
4.82550E-01 2.29697E-28
4.86912E-01 2.16404E-28
4.91274E-01 2.03953E-28
4.95637E-01 1.92290E-28
5.00000E-01 1.81367E-28
5.04363E-01 1.71136E-28
5.08726E-01 1.61554E-28
5.13088E-01 1.52580E-28
5.17450E-01 1.44175E-28
5.21810E-01 1.36304E-28
5.26168E-01 1.28932E-28
5.30524E-01 1.22027E-28
5.34878E-01 1.15560E-28
5.39230E-01 1.09503E-28
5.43578E-01 1.03829E-28
5.47923E-01 9.85127E-29
5.52264E-01 9.35320E-29
5.56602E-01 8.88648E-29
5.60935E-01 8.44907E-29
5.65263E-01 8.03907E-29
5.69587E-01 7.65468E-29
5.73905E-01 7.29422E-29
5.78217E-01 6.95613E-29
5.82524E-01 6.63892E-29
5.86824E-01 6.34122E-29
5.91118E-01 6.06174E-29
5.95404E-01 5.79927E-29
5.99684E-01 5.55268E-29
6.03956E-01 5.32091E-29
6.08220E-01 5.10297E-29
6.12476E-01 4.89793E-29
6.16723E-01 4.70493E-29
6.20961E-01 4.52316E-29
6.25190E-01 4.35186E-29
6.29410E-01 4.19032E-29
6.33619E-01 4.03789E-29
6.37819E-01 3.89395E-29
6.42008E-01 3.75792E-29
6.46186E-01 3.62927E-29
6.50353E-01 3.50750E-29
6.54508E-01 3.39214E-29
6.58652E-01 3.28275E-29
6.62784E-01 3.17893E-29
6.66903E-01 3.08031E-29
6.71010E-01 2.98652E-29
6.75104E-01 2.89724E-29
6.79184E-01 2.81217E-29
6.83251E-01 2.73102E-29
6.87303E-01 2.65353E-29
6.91342E-01 2.57945E-29
6.95366E-01 2.50856E-29
6.99375E-01 2.44064E-29
7.03368E-01 2.37549E-29
7.07347E-01 2.31294E-29
7.11309E-01 2.25281E-29
7.15256E-01 2.19495E-29
7.19186E-01 2.13920E-29
7.23099E-01 2.08545E-29
7.26995E-01 2.03355E-29
7.30874E-01 1.98339E-29
7.34736E-01 1.93488E-29
7.38579E-01 1.88789E-29
7.42405E-01 1.84236E-29
7.46212E-01 1.79818E-29
7.50000E-01 1.75528E-29
7.53769E-01 1.71359E-29
7.57519E-01 1.67304E-29
7.61249E-01 1.63357E-29
7.64960E-01 1.59512E-29
7.68650E-01 1.55763E-29
7.72320E-01 1.52107E-29
7.75968E-01 1.48538E-29
7.79596E-01 1.45052E-29
7.83203E-01 1.41646E-29
7.86788E-01 1.38316E-29
7.90351E-01 1.35058E-29
7.93893E-01 1.31870E-29
7.97411E-01 1.28749E-29
8.00908E-01 1.25692E-29
8.04381E-01 1.22697E-29
8.07831E-01 1.19761E-29
8.11257E-01 1.16884E-29
8.14660E-01 1.14062E-29
8.18039E-01 1.11294E-29
8.21394E-01 1.08579E-29
8.24724E-01 1.05916E-29
8.28030E-01 1.03302E-29
8.31310E-01 1.00736E-29
8.34565E-01 9.82177E-30
8.37795E-01 9.57456E-30
8.40999E-01 9.33188E-30
8.44177E-01 9.09362E-30
8.47329E-01 8.85970E-30
8.50455E-01 8.63004E-30
8.53553E-01 8.40456E-30
8.56625E-01 8.18318E-30
8.59670E-01 7.96584E-30
8.62687E-01 7.75247E-30
8.65677E-01 7.54301E-30
8.68639E-01 7.33740E-30
8.71572E-01 7.13558E-30
8.74478E-01 6.93751E-30
8.77355E-01 6.74312E-30
8.80203E-01 6.55238E-30
8.83022E-01 6.36523E-30
8.85812E-01 6.18162E-30
8.88573E-01 6.00152E-30
8.91304E-01 5.82488E-30
8.94005E-01 5.65165E-30
8.96677E-01 5.48180E-30
8.99318E-01 5.31529E-30
9.01928E-01 5.15206E-30
9.04508E-01 4.99210E-30
9.07058E-01 4.83535E-30
9.09576E-01 4.68179E-30
9.12063E-01 4.53137E-30
9.14519E-01 4.38405E-30
9.16943E-01 4.23981E-30
9.19335E-01 4.09860E-30
9.21696E-01 3.96039E-30
9.24024E-01 3.82514E-30
9.26320E-01 3.69282E-30
9.28584E-01 3.56340E-30
9.30815E-01 3.43683E-30
9.33013E-01 3.31310E-30
9.35178E-01 3.19215E-30
9.37310E-01 3.07396E-30
9.39409E-01 2.95850E-30
9.41474E-01 2.84573E-30
9.43505E-01 2.73562E-30
9.45503E-01 2.62814E-30
9.47467E-01 2.52326E-30
9.49397E-01 2.42094E-30
9.51293E-01 2.32115E-30
9.53154E-01 2.22386E-30
9.54981E-01 2.12904E-30
9.56773E-01 2.03667E-30
9.58530E-01 1.94670E-30
9.60252E-01 1.85912E-30
9.61940E-01 1.77388E-30
9.63592E-01 1.69097E-30
9.65209E-01 1.61036E-30
9.66790E-01 1.53201E-30
9.68336E-01 1.45590E-30
9.69846E-01 1.38201E-30
9.71321E-01 1.31029E-30
9.72759E-01 1.24074E-30
9.74162E-01 1.17333E-30
9.75528E-01 1.10802E-30
9.76858E-01 1.04480E-30
9.78152E-01 9.83640E-31
9.79410E-01 9.24518E-31
9.80631E-01 8.67410E-31
9.81815E-01 8.12296E-31
9.82963E-01 7.59154E-31
9.84074E-01 7.07961E-31
9.85148E-01 6.58699E-31
9.86185E-01 6.11347E-31
9.87185E-01 5.65886E-31
9.88148E-01 5.22298E-31
9.89074E-01 4.80564E-31
9.89962E-01 4.40669E-31
9.90814E-01 4.02593E-31
9.91627E-01 3.66324E-31
9.92404E-01 3.31843E-31
9.93143E-01 2.99139E-31
9.93844E-01 2.68195E-31
9.94508E-01 2.39000E-31
9.95134E-01 2.11540E-31
9.95722E-01 1.85804E-31
9.96273E-01 1.61781E-31
9.96786E-01 1.39460E-31
9.97261E-01 1.18832E-31
9.97698E-01 9.98871E-32
9.98097E-01 8.26176E-32
9.98459E-01 6.70157E-32
9.98782E-01 5.30747E-32
9.99067E-01 4.07883E-32
9.99315E-01 3.01510E-32
9.99524E-01 2.11583E-32
9.99695E-01 1.38060E-32
9.99829E-01 8.09098E-33
9.99924E-01 4.01064E-33
9.99981E-01 1.56316E-33
1.00000E+00 7.47426E-34
