 #
 # Subroutine ELSEPA. Elastic scattering of electrons and positrons
 #                    by neutral atoms and positive ions
 #
 # Projectile: electron
 # Kinetic energy = 9.00000E+06 eV = 3.30744E+05 a.u.
 #
 # WARNING: High-energy factorization with free-atom DF screening.
 #          Absorption, polarization and exchange corrections are
 #          switched off.
 #          Phase shifts are calculated for the bare nucleus.
 #          Scattering amplitudes are not evaluated.
 #
 # Element: Xe,  Z =  54,  atomic weight = 1.31290E+02 g/mol
 #
 # Nuclear model: Fermi distribution
 #                Average radius = 5.43827E-13 cm
 #                Skin thickness = 5.46000E-14 cm
 #
 # Number of electrons = 54
 #
 # Total elastic cross section = 5.89012E-18 cm**2 = 2.10340E-01 a0**2
 # 1st transport cross section = 5.60714E-23 cm**2 = 2.00235E-06 a0**2
 # 2nd transport cross section = 1.57210E-22 cm**2 = 5.61408E-06 a0**2
 #
 #
 # Differential cross section:                       MU=(1-COS(THETA))/2
 #
 #  THETA        MU          DCS          DCS        Sherman      error
 #  (deg)                 (cm**2/sr)   (a0**2/sr)    function
 #----------------------------------------------------------------------
0.00000E+00 3.88059E-12
7.61557E-13 3.88053E-12
1.18994E-12 3.88050E-12
1.71346E-12 3.88046E-12
2.33225E-12 3.88041E-12
3.04617E-12 3.88036E-12
3.85530E-12 3.88030E-12
4.75964E-12 3.88023E-12
5.75917E-12 3.88015E-12
6.85391E-12 3.88007E-12
8.04379E-12 3.87998E-12
9.32893E-12 3.87988E-12
1.07092E-11 3.87978E-12
1.21847E-11 3.87967E-12
1.37554E-11 3.87955E-12
1.54213E-11 3.87942E-12
1.71823E-11 3.87929E-12
1.90386E-11 3.87915E-12
2.09900E-11 3.87900E-12
2.30367E-11 3.87884E-12
2.51785E-11 3.87868E-12
2.74156E-11 3.87851E-12
2.97478E-11 3.87834E-12
3.21752E-11 3.87815E-12
3.46979E-11 3.87796E-12
3.73157E-11 3.87776E-12
4.00286E-11 3.87756E-12
4.28368E-11 3.87735E-12
4.57402E-11 3.87713E-12
4.87388E-11 3.87690E-12
5.18325E-11 3.87667E-12
5.50215E-11 3.87643E-12
5.83057E-11 3.87618E-12
6.16850E-11 3.87592E-12
6.51595E-11 3.87566E-12
6.87293E-11 3.87539E-12
7.23943E-11 3.87511E-12
7.61544E-11 3.87483E-12
1.18991E-10 3.87160E-12
1.71347E-10 3.86766E-12
2.33223E-10 3.86301E-12
3.04617E-10 3.85765E-12
3.85531E-10 3.85160E-12
4.75965E-10 3.84485E-12
5.75917E-10 3.83741E-12
6.85389E-10 3.82928E-12
8.04380E-10 3.82048E-12
9.32891E-10 3.81100E-12
1.07092E-09 3.80087E-12
1.21847E-09 3.79008E-12
1.37554E-09 3.77864E-12
1.54213E-09 3.76656E-12
1.71823E-09 3.75386E-12
1.90386E-09 3.74053E-12
2.09900E-09 3.72660E-12
2.30367E-09 3.71207E-12
2.51785E-09 3.69696E-12
2.74156E-09 3.68101E-12
2.97478E-09 3.66457E-12
3.21752E-09 3.64769E-12
3.46978E-09 3.63039E-12
3.73156E-09 3.61270E-12
4.00286E-09 3.59455E-12
4.28368E-09 3.57529E-12
4.57402E-09 3.55569E-12
4.87388E-09 3.53578E-12
5.18326E-09 3.51559E-12
5.50215E-09 3.49512E-12
5.83057E-09 3.47405E-12
6.16850E-09 3.45202E-12
6.51596E-09 3.42978E-12
6.87293E-09 3.40737E-12
7.23942E-09 3.38479E-12
7.61544E-09 3.36207E-12
1.18991E-08 3.11348E-12
1.71347E-08 2.84552E-12
2.33223E-08 2.57166E-12
3.04617E-08 2.30133E-12
3.85531E-08 2.04332E-12
4.75965E-08 1.80420E-12
5.75917E-08 1.58689E-12
6.85389E-08 1.39136E-12
8.04380E-08 1.21861E-12
9.32891E-08 1.06748E-12
1.07092E-07 9.36021E-13
1.21847E-07 8.21895E-13
1.37554E-07 7.23517E-13
1.54213E-07 6.38790E-13
1.71823E-07 5.65725E-13
1.90386E-07 5.02660E-13
2.09900E-07 4.48216E-13
2.30367E-07 4.01087E-13
2.51785E-07 3.60108E-13
2.74156E-07 3.22931E-13
2.97478E-07 2.90953E-13
3.21752E-07 2.63499E-13
3.46978E-07 2.39805E-13
3.73156E-07 2.19255E-13
4.00286E-07 2.01098E-13
4.28368E-07 1.83409E-13
4.57402E-07 1.67940E-13
4.87388E-07 1.54356E-13
5.18325E-07 1.42378E-13
5.50215E-07 1.31778E-13
5.83057E-07 1.21966E-13
6.16850E-07 1.12503E-13
6.51596E-07 1.04081E-13
6.87293E-07 9.65607E-14
7.23942E-07 8.98252E-14
7.61543E-07 8.37749E-14
1.18991E-06 4.25579E-14
1.71347E-06 2.35716E-14
2.33223E-06 1.40976E-14
3.04617E-06 9.01443E-15
3.85531E-06 6.08502E-15
4.75964E-06 4.28101E-15
5.75916E-06 3.10658E-15
6.85388E-06 2.30628E-15
8.04378E-06 1.74433E-15
9.32888E-06 1.34155E-15
1.07092E-05 1.04677E-15
1.21846E-05 8.27025E-16
1.37553E-05 6.61273E-16
1.54212E-05 5.34713E-16
1.71822E-05 4.36950E-16
1.90385E-05 3.60460E-16
2.09899E-05 3.00270E-16
2.30365E-05 2.52162E-16
2.51783E-05 2.13315E-16
2.74153E-05 1.81615E-16
2.97475E-05 1.55719E-16
3.21749E-05 1.34282E-16
3.46974E-05 1.16439E-16
3.73152E-05 1.01516E-16
4.00281E-05 8.88844E-17
4.28362E-05 7.82153E-17
4.57395E-05 6.90590E-17
4.87380E-05 6.12334E-17
5.18317E-05 5.44698E-17
5.50205E-05 4.86152E-17
5.83045E-05 4.35306E-17
6.16838E-05 3.90837E-17
6.51582E-05 3.52039E-17
6.87277E-05 3.17785E-17
7.23925E-05 2.87695E-17
7.61524E-05 2.61027E-17
9.21439E-05 1.80805E-17
1.09658E-04 1.29065E-17
1.28695E-04 9.45546E-18
1.49255E-04 7.08251E-18
1.71338E-04 5.40904E-18
1.94942E-04 4.20136E-18
2.20070E-04 3.31289E-18
2.46720E-04 2.64757E-18
2.74892E-04 2.14132E-18
3.04586E-04 1.75068E-18
3.35803E-04 1.44534E-18
3.68542E-04 1.20390E-18
4.02802E-04 1.01093E-18
4.38585E-04 8.55197E-19
4.75889E-04 7.28404E-19
5.14715E-04 6.24314E-19
5.55063E-04 5.38209E-19
5.96931E-04 4.66485E-19
6.40321E-04 4.06349E-19
6.85233E-04 3.55621E-19
7.31665E-04 3.12584E-19
7.79618E-04 2.75881E-19
8.29092E-04 2.44423E-19
8.80086E-04 2.17335E-19
9.32601E-04 1.93905E-19
9.86636E-04 1.73557E-19
1.04219E-03 1.55817E-19
1.09927E-03 1.40291E-19
1.15786E-03 1.26657E-19
1.21797E-03 1.14644E-19
1.27961E-03 1.04027E-19
1.34276E-03 9.46129E-20
1.40743E-03 8.62435E-20
1.47362E-03 7.87822E-20
1.54133E-03 7.21129E-20
1.61056E-03 6.61367E-20
1.68131E-03 6.07690E-20
1.75357E-03 5.59368E-20
1.82735E-03 5.15770E-20
1.90265E-03 4.76353E-20
1.97947E-03 4.40644E-20
2.05780E-03 4.08232E-20
2.13765E-03 3.78756E-20
2.21902E-03 3.51904E-20
2.30190E-03 3.27399E-20
2.38630E-03 3.05000E-20
2.47222E-03 2.84492E-20
2.55965E-03 2.65685E-20
2.64859E-03 2.48415E-20
2.73905E-03 2.32532E-20
2.83103E-03 2.17904E-20
2.92452E-03 2.04415E-20
3.01952E-03 1.91957E-20
3.11604E-03 1.80440E-20
3.21407E-03 1.69778E-20
3.31362E-03 1.59896E-20
3.41468E-03 1.50727E-20
3.51725E-03 1.42209E-20
3.62133E-03 1.34288E-20
3.72692E-03 1.26914E-20
3.83403E-03 1.20042E-20
3.94265E-03 1.13632E-20
4.05278E-03 1.07647E-20
4.16442E-03 1.02053E-20
4.27757E-03 9.68202E-21
4.39223E-03 9.19205E-21
4.50840E-03 8.73291E-21
4.62608E-03 8.30228E-21
4.74527E-03 7.89804E-21
4.86597E-03 7.51828E-21
4.98817E-03 7.16124E-21
5.11188E-03 6.82530E-21
5.23711E-03 6.50896E-21
5.36383E-03 6.21089E-21
5.49207E-03 5.92982E-21
5.62181E-03 5.66458E-21
5.75306E-03 5.41412E-21
5.88581E-03 5.17748E-21
6.02007E-03 4.95372E-21
6.15583E-03 4.74201E-21
6.29310E-03 4.54160E-21
6.43187E-03 4.35175E-21
6.57214E-03 4.17180E-21
6.71392E-03 4.00113E-21
6.85720E-03 3.83919E-21
7.00198E-03 3.68542E-21
7.14827E-03 3.53935E-21
7.29605E-03 3.40051E-21
7.44534E-03 3.26848E-21
7.59612E-03 3.14284E-21
7.97965E-03 2.85443E-21
8.37255E-03 2.59864E-21
8.77480E-03 2.37114E-21
9.18641E-03 2.16823E-21
9.60736E-03 1.98679E-21
1.00376E-02 1.82412E-21
1.04773E-02 1.67793E-21
1.09262E-02 1.54626E-21
1.13844E-02 1.42739E-21
1.18520E-02 1.31986E-21
1.23288E-02 1.22237E-21
1.28150E-02 1.13383E-21
1.33104E-02 1.05325E-21
1.38150E-02 9.79796E-22
1.43290E-02 9.12711E-22
1.48521E-02 8.51343E-22
1.53845E-02 7.95112E-22
1.59262E-02 7.43508E-22
1.64770E-02 6.96078E-22
1.70371E-02 6.52421E-22
1.76063E-02 6.12180E-22
1.81848E-02 5.75037E-22
1.87724E-02 5.40709E-22
1.93692E-02 5.08941E-22
1.99751E-02 4.79505E-22
2.05901E-02 4.52198E-22
2.12143E-02 4.26836E-22
2.18476E-02 4.03254E-22
2.24900E-02 3.81302E-22
2.31415E-02 3.60848E-22
2.38021E-02 3.41768E-22
2.44717E-02 3.23952E-22
2.51504E-02 3.07300E-22
2.58382E-02 2.91722E-22
2.65349E-02 2.77134E-22
2.72407E-02 2.63461E-22
2.79555E-02 2.50635E-22
2.86793E-02 2.38593E-22
2.94120E-02 2.27278E-22
3.01537E-02 2.16637E-22
3.09043E-02 2.06622E-22
3.16639E-02 1.97189E-22
3.24324E-02 1.88297E-22
3.32098E-02 1.79909E-22
3.39961E-02 1.71992E-22
3.47912E-02 1.64512E-22
3.55952E-02 1.57443E-22
3.64081E-02 1.50755E-22
3.72297E-02 1.44425E-22
3.80602E-02 1.38430E-22
3.88995E-02 1.32748E-22
3.97476E-02 1.27359E-22
4.06044E-02 1.22247E-22
4.14700E-02 1.17393E-22
4.23443E-02 1.12782E-22
4.32273E-02 1.08399E-22
4.41190E-02 1.04231E-22
4.50194E-02 1.00265E-22
4.59284E-02 9.64889E-23
4.68461E-02 9.28924E-23
4.87074E-02 8.61972E-23
5.06030E-02 8.01049E-23
5.25328E-02 7.45506E-23
5.44967E-02 6.94778E-23
5.64946E-02 6.48368E-23
5.85262E-02 6.05837E-23
6.05914E-02 5.66795E-23
6.26901E-02 5.30902E-23
6.48222E-02 4.97856E-23
6.69873E-02 4.67385E-23
6.91854E-02 4.39248E-23
7.14163E-02 4.13233E-23
7.36799E-02 3.89148E-23
7.59760E-02 3.66821E-23
7.83043E-02 3.46098E-23
8.06647E-02 3.26842E-23
8.30571E-02 3.08928E-23
8.54812E-02 2.92243E-23
8.79369E-02 2.76687E-23
9.04240E-02 2.62168E-23
9.29422E-02 2.48604E-23
9.54915E-02 2.35917E-23
9.80716E-02 2.24041E-23
1.00682E-01 2.12914E-23
1.03323E-01 2.02478E-23
1.05995E-01 1.92681E-23
1.08696E-01 1.83478E-23
1.11427E-01 1.74825E-23
1.14188E-01 1.66680E-23
1.16978E-01 1.59011E-23
1.19797E-01 1.51783E-23
1.22645E-01 1.44964E-23
1.25522E-01 1.38528E-23
1.28428E-01 1.32449E-23
1.31361E-01 1.26702E-23
1.34323E-01 1.21267E-23
1.37313E-01 1.16122E-23
1.40330E-01 1.11249E-23
1.43375E-01 1.06630E-23
1.46447E-01 1.02250E-23
1.49545E-01 9.80940E-24
1.52671E-01 9.41479E-24
1.55823E-01 9.03989E-24
1.59001E-01 8.68355E-24
1.62205E-01 8.34463E-24
1.65435E-01 8.02211E-24
1.68690E-01 7.71505E-24
1.71970E-01 7.42255E-24
1.75276E-01 7.14377E-24
1.78606E-01 6.87795E-24
1.81961E-01 6.62435E-24
1.85340E-01 6.38230E-24
1.88743E-01 6.15117E-24
1.92169E-01 5.93037E-24
1.95619E-01 5.71933E-24
1.99092E-01 5.51754E-24
2.02589E-01 5.32452E-24
2.06107E-01 5.13979E-24
2.09649E-01 4.96293E-24
2.13212E-01 4.79355E-24
2.16797E-01 4.63126E-24
2.20404E-01 4.47570E-24
2.24032E-01 4.32653E-24
2.27680E-01 4.18344E-24
2.31350E-01 4.04614E-24
2.35040E-01 3.91434E-24
2.38751E-01 3.78777E-24
2.42481E-01 3.66618E-24
2.46231E-01 3.54934E-24
2.50000E-01 3.43702E-24
2.53788E-01 3.32902E-24
2.57595E-01 3.22514E-24
2.61421E-01 3.12519E-24
2.65264E-01 3.02898E-24
2.69126E-01 2.93636E-24
2.73005E-01 2.84716E-24
2.76901E-01 2.76122E-24
2.80814E-01 2.67841E-24
2.84744E-01 2.59859E-24
2.88691E-01 2.52163E-24
2.92653E-01 2.44741E-24
2.96632E-01 2.37580E-24
3.00625E-01 2.30671E-24
3.04634E-01 2.24001E-24
3.08658E-01 2.17562E-24
3.12697E-01 2.11344E-24
3.16749E-01 2.05337E-24
3.20816E-01 1.99534E-24
3.24896E-01 1.93925E-24
3.28990E-01 1.88504E-24
3.33097E-01 1.83262E-24
3.37216E-01 1.78192E-24
3.41348E-01 1.73288E-24
3.45492E-01 1.68543E-24
3.49647E-01 1.63951E-24
3.53814E-01 1.59506E-24
3.57992E-01 1.55203E-24
3.62181E-01 1.51036E-24
3.66381E-01 1.47000E-24
3.70590E-01 1.43089E-24
3.74810E-01 1.39300E-24
3.79039E-01 1.35628E-24
3.83277E-01 1.32069E-24
3.87524E-01 1.28618E-24
3.91780E-01 1.25271E-24
3.96044E-01 1.22025E-24
4.00316E-01 1.18876E-24
4.04596E-01 1.15821E-24
4.08882E-01 1.12856E-24
4.13176E-01 1.09979E-24
4.17476E-01 1.07185E-24
4.21783E-01 1.04473E-24
4.26095E-01 1.01839E-24
4.30413E-01 9.92805E-25
4.34737E-01 9.67953E-25
4.39065E-01 9.43807E-25
4.43398E-01 9.20344E-25
4.47736E-01 8.97540E-25
4.52077E-01 8.75374E-25
4.56422E-01 8.53824E-25
4.60770E-01 8.32871E-25
4.65122E-01 8.12494E-25
4.69476E-01 7.92675E-25
4.73832E-01 7.73395E-25
4.78190E-01 7.54639E-25
4.82550E-01 7.36387E-25
4.86912E-01 7.18626E-25
4.91274E-01 7.01338E-25
4.95637E-01 6.84510E-25
5.00000E-01 6.68126E-25
5.04363E-01 6.52173E-25
5.08726E-01 6.36638E-25
5.13088E-01 6.21507E-25
5.17450E-01 6.06769E-25
5.21810E-01 5.92411E-25
5.26168E-01 5.78422E-25
5.30524E-01 5.64791E-25
5.34878E-01 5.51506E-25
5.39230E-01 5.38558E-25
5.43578E-01 5.25937E-25
5.47923E-01 5.13633E-25
5.52264E-01 5.01636E-25
5.56602E-01 4.89938E-25
5.60935E-01 4.78529E-25
5.65263E-01 4.67403E-25
5.69587E-01 4.56549E-25
5.73905E-01 4.45962E-25
5.78217E-01 4.35632E-25
5.82524E-01 4.25553E-25
5.86824E-01 4.15718E-25
5.91118E-01 4.06119E-25
5.95404E-01 3.96751E-25
5.99684E-01 3.87606E-25
6.03956E-01 3.78679E-25
6.08220E-01 3.69963E-25
6.12476E-01 3.61454E-25
6.16723E-01 3.53144E-25
6.20961E-01 3.45029E-25
6.25190E-01 3.37103E-25
6.29410E-01 3.29362E-25
6.33619E-01 3.21800E-25
6.37819E-01 3.14413E-25
6.42008E-01 3.07196E-25
6.46186E-01 3.00144E-25
6.50353E-01 2.93254E-25
6.54508E-01 2.86520E-25
6.58652E-01 2.79939E-25
6.62784E-01 2.73507E-25
6.66903E-01 2.67220E-25
6.71010E-01 2.61075E-25
6.75104E-01 2.55067E-25
6.79184E-01 2.49193E-25
6.83251E-01 2.43450E-25
6.87303E-01 2.37835E-25
6.91342E-01 2.32344E-25
6.95366E-01 2.26974E-25
6.99375E-01 2.21722E-25
7.03368E-01 2.16586E-25
7.07347E-01 2.11561E-25
7.11309E-01 2.06647E-25
7.15256E-01 2.01839E-25
7.19186E-01 1.97136E-25
7.23099E-01 1.92535E-25
7.26995E-01 1.88033E-25
7.30874E-01 1.83628E-25
7.34736E-01 1.79318E-25
7.38579E-01 1.75100E-25
7.42405E-01 1.70972E-25
7.46212E-01 1.66933E-25
7.50000E-01 1.62979E-25
7.53769E-01 1.59110E-25
7.57519E-01 1.55323E-25
7.61249E-01 1.51616E-25
7.64960E-01 1.47987E-25
7.68650E-01 1.44434E-25
7.72320E-01 1.40957E-25
7.75968E-01 1.37553E-25
7.79596E-01 1.34220E-25
7.83203E-01 1.30957E-25
7.86788E-01 1.27762E-25
7.90351E-01 1.24634E-25
7.93893E-01 1.21571E-25
7.97411E-01 1.18572E-25
8.00908E-01 1.15636E-25
8.04381E-01 1.12760E-25
8.07831E-01 1.09945E-25
8.11257E-01 1.07187E-25
8.14660E-01 1.04487E-25
8.18039E-01 1.01843E-25
8.21394E-01 9.92539E-26
8.24724E-01 9.67181E-26
8.28030E-01 9.42349E-26
8.31310E-01 9.18031E-26
8.34565E-01 8.94215E-26
8.37795E-01 8.70892E-26
8.40999E-01 8.48052E-26
8.44177E-01 8.25684E-26
8.47329E-01 8.03778E-26
8.50455E-01 7.82327E-26
8.53553E-01 7.61319E-26
8.56625E-01 7.40747E-26
8.59670E-01 7.20602E-26
8.62687E-01 7.00875E-26
8.65677E-01 6.81558E-26
8.68639E-01 6.62642E-26
8.71572E-01 6.44121E-26
8.74478E-01 6.25986E-26
8.77355E-01 6.08231E-26
8.80203E-01 5.90847E-26
8.83022E-01 5.73828E-26
8.85812E-01 5.57166E-26
8.88573E-01 5.40856E-26
8.91304E-01 5.24890E-26
8.94005E-01 5.09263E-26
8.96677E-01 4.93968E-26
8.99318E-01 4.78998E-26
9.01928E-01 4.64349E-26
9.04508E-01 4.50014E-26
9.07058E-01 4.35988E-26
9.09576E-01 4.22265E-26
9.12063E-01 4.08840E-26
9.14519E-01 3.95708E-26
9.16943E-01 3.82864E-26
9.19335E-01 3.70303E-26
9.21696E-01 3.58020E-26
9.24024E-01 3.46010E-26
9.26320E-01 3.34269E-26
9.28584E-01 3.22793E-26
9.30815E-01 3.11577E-26
9.33013E-01 3.00617E-26
9.35178E-01 2.89909E-26
9.37310E-01 2.79449E-26
9.39409E-01 2.69233E-26
9.41474E-01 2.59257E-26
9.43505E-01 2.49518E-26
9.45503E-01 2.40013E-26
9.47467E-01 2.30736E-26
9.49397E-01 2.21687E-26
9.51293E-01 2.12860E-26
9.53154E-01 2.04253E-26
9.54981E-01 1.95863E-26
9.56773E-01 1.87686E-26
9.58530E-01 1.79721E-26
9.60252E-01 1.71963E-26
9.61940E-01 1.64411E-26
9.63592E-01 1.57061E-26
9.65209E-01 1.49911E-26
9.66790E-01 1.42958E-26
9.68336E-01 1.36201E-26
9.69846E-01 1.29635E-26
9.71321E-01 1.23261E-26
9.72759E-01 1.17074E-26
9.74162E-01 1.11073E-26
9.75528E-01 1.05256E-26
9.76858E-01 9.96214E-27
9.78152E-01 9.41662E-27
9.79410E-01 8.88890E-27
9.80631E-01 8.37879E-27
9.81815E-01 7.88612E-27
9.82963E-01 7.41073E-27
9.84074E-01 6.95245E-27
9.85148E-01 6.51111E-27
9.86185E-01 6.08658E-27
9.87185E-01 5.67871E-27
9.88148E-01 5.28736E-27
9.89074E-01 4.91239E-27
9.89962E-01 4.55368E-27
9.90814E-01 4.21111E-27
9.91627E-01 3.88456E-27
9.92404E-01 3.57393E-27
9.93143E-01 3.27909E-27
9.93844E-01 2.99997E-27
9.94508E-01 2.73646E-27
9.95134E-01 2.48848E-27
9.95722E-01 2.25593E-27
9.96273E-01 2.03876E-27
9.96786E-01 1.83687E-27
9.97261E-01 1.65020E-27
9.97698E-01 1.47870E-27
9.98097E-01 1.32230E-27
9.98459E-01 1.18096E-27
9.98782E-01 1.05462E-27
9.99067E-01 9.43237E-28
9.99315E-01 8.46783E-28
9.99524E-01 7.65223E-28
9.99695E-01 6.98529E-28
9.99829E-01 6.46678E-28
9.99924E-01 6.09655E-28
9.99981E-01 5.87445E-28
1.00000E+00 5.80044E-28
