 #
 # Subroutine ELSEPA. Elastic scattering of electrons and positrons
 #                    by neutral atoms and positive ions
 #
 # Projectile: electron
 # Kinetic energy = 6.00000E+08 eV = 2.20496E+07 a.u.
 #
 # WARNING: High-energy factorization with free-atom DF screening.
 #          Absorption, polarization and exchange corrections are
 #          switched off.
 #          Phase shifts are calculated for the bare nucleus.
 #          Scattering amplitudes are not evaluated.
 #
 # Element: Xe,  Z =  54,  atomic weight = 1.31290E+02 g/mol
 #
 # Nuclear model: Fermi distribution
 #                Average radius = 5.43827E-13 cm
 #                Skin thickness = 5.46000E-14 cm
 #
 # Number of electrons = 54
 #
 # Total elastic cross section = 5.86472E-18 cm**2 = 2.09433E-01 a0**2
 # 1st transport cross section = 1.58039E-26 cm**2 = 5.64367E-10 a0**2
 # 2nd transport cross section = 4.73989E-26 cm**2 = 1.69265E-09 a0**2
 #
 #
 # Differential cross section:                       MU=(1-COS(THETA))/2
 #
 #  THETA        MU          DCS          DCS        Sherman      error
 #  (deg)                 (cm**2/sr)   (a0**2/sr)    function
 #----------------------------------------------------------------------
0.00000E+00 1.54699E-08
7.61557E-13 1.45886E-08
1.18994E-12 1.41252E-08
1.71346E-12 1.35881E-08
2.33225E-12 1.29916E-08
3.04617E-12 1.23508E-08
3.85530E-12 1.16802E-08
4.75964E-12 1.09933E-08
5.75917E-12 1.03008E-08
6.85391E-12 9.61301E-09
8.04379E-12 8.94114E-09
9.32893E-12 8.29241E-09
1.07092E-11 7.67233E-09
1.21847E-11 7.08474E-09
1.37554E-11 6.53208E-09
1.54213E-11 6.01560E-09
1.71823E-11 5.53560E-09
1.90386E-11 5.09155E-09
2.09900E-11 4.68237E-09
2.30367E-11 4.30570E-09
2.51785E-11 3.96066E-09
2.74156E-11 3.64544E-09
2.97478E-11 3.35790E-09
3.21752E-11 3.09591E-09
3.46979E-11 2.85737E-09
3.73157E-11 2.64028E-09
4.00286E-11 2.44271E-09
4.28368E-11 2.26288E-09
4.57402E-11 2.09912E-09
4.87388E-11 1.94985E-09
5.18325E-11 1.81360E-09
5.50215E-11 1.68924E-09
5.83057E-11 1.57562E-09
6.16850E-11 1.47166E-09
6.51595E-11 1.37425E-09
6.87293E-11 1.28308E-09
7.23943E-11 1.20057E-09
7.61544E-11 1.12573E-09
1.18991E-10 6.35035E-10
1.71347E-10 3.86455E-10
2.33223E-10 2.46845E-10
3.04617E-10 1.63484E-10
3.85531E-10 1.11835E-10
4.75965E-10 7.89233E-11
5.75917E-10 5.73634E-11
6.85389E-10 4.28410E-11
8.04380E-10 3.27772E-11
9.32891E-10 2.55969E-11
1.07092E-09 2.03348E-11
1.21847E-09 1.63856E-11
1.37554E-09 1.33604E-11
1.54213E-09 1.10055E-11
1.71823E-09 9.13941E-12
1.90386E-09 7.64606E-12
2.09900E-09 6.44122E-12
2.30367E-09 5.45969E-12
2.51785E-09 4.65469E-12
2.74156E-09 3.98989E-12
2.97478E-09 3.43734E-12
3.21752E-09 2.97553E-12
3.46978E-09 2.58765E-12
3.73156E-09 2.26038E-12
4.00286E-09 1.98303E-12
4.28368E-09 1.74694E-12
4.57402E-09 1.54504E-12
4.87388E-09 1.37157E-12
5.18326E-09 1.22182E-12
5.50215E-09 1.09203E-12
5.83057E-09 9.79108E-13
6.16850E-09 8.80491E-13
6.51596E-09 7.93927E-13
6.87293E-09 7.17774E-13
7.23942E-09 6.50807E-13
7.61544E-09 5.91715E-13
1.18991E-08 2.54164E-13
1.71347E-08 1.26674E-13
2.33223E-08 6.99153E-14
3.04617E-08 4.16101E-14
3.85531E-08 2.62601E-14
4.75965E-08 1.73717E-14
5.75917E-08 1.19434E-14
6.85389E-08 8.47886E-15
8.04380E-08 6.18466E-15
9.32891E-08 4.61694E-15
1.07092E-07 3.51626E-15
1.21847E-07 2.72505E-15
1.37554E-07 2.14450E-15
1.54213E-07 1.71071E-15
1.71823E-07 1.38131E-15
1.90386E-07 1.12751E-15
2.09900E-07 9.29426E-16
2.30367E-07 7.72991E-16
2.51785E-07 6.48123E-16
2.74156E-07 5.47472E-16
2.97478E-07 4.65617E-16
3.21752E-07 3.98500E-16
3.46978E-07 3.43046E-16
3.73156E-07 2.96906E-16
4.00286E-07 2.58265E-16
4.28368E-07 2.25708E-16
4.57402E-07 1.98120E-16
4.87388E-07 1.74619E-16
5.18325E-07 1.54499E-16
5.50215E-07 1.37194E-16
5.83057E-07 1.22244E-16
6.16850E-07 1.09275E-16
6.51596E-07 9.79796E-17
6.87293E-07 8.81063E-17
7.23942E-07 7.94453E-17
7.61543E-07 7.18223E-17
1.18991E-06 2.95015E-17
1.71347E-06 1.42499E-17
2.33223E-06 7.69958E-18
3.04617E-06 4.51655E-18
3.85531E-06 2.82116E-18
4.75964E-06 1.85175E-18
5.75916E-06 1.26521E-18
6.85388E-06 8.93602E-19
8.04378E-06 6.48958E-19
9.32888E-06 4.82601E-19
1.07092E-05 3.66301E-19
1.21846E-05 2.83022E-19
1.37553E-05 2.22125E-19
1.54212E-05 1.76764E-19
1.71822E-05 1.42416E-19
1.90385E-05 1.15984E-19
2.09899E-05 9.54757E-20
2.30365E-05 7.93003E-20
2.51783E-05 6.63994E-20
2.74153E-05 5.60102E-20
2.97475E-05 4.75718E-20
3.21749E-05 4.06643E-20
3.46974E-05 3.49688E-20
3.73152E-05 3.02397E-20
4.00281E-05 2.62861E-20
4.28362E-05 2.29594E-20
4.57395E-05 2.01428E-20
4.87380E-05 1.77448E-20
5.18317E-05 1.56925E-20
5.50205E-05 1.39281E-20
5.83045E-05 1.24047E-20
6.16838E-05 1.10841E-20
6.51582E-05 9.93500E-21
6.87277E-05 8.93141E-21
7.23925E-05 8.05168E-21
7.61524E-05 7.30768E-21
9.21439E-05 4.98998E-21
1.09658E-04 3.52066E-21
1.28695E-04 2.55330E-21
1.49255E-04 1.89517E-21
1.71338E-04 1.43517E-21
1.94942E-04 1.10579E-21
2.20070E-04 8.65024E-22
2.46720E-04 6.85795E-22
2.74892E-04 5.50177E-22
3.04586E-04 4.46086E-22
3.35803E-04 3.65136E-22
3.68542E-04 3.01450E-22
4.02802E-04 2.50810E-22
4.38585E-04 2.10153E-22
4.75889E-04 1.77225E-22
5.14715E-04 1.50338E-22
5.55063E-04 1.28222E-22
5.96931E-04 1.09904E-22
6.40321E-04 9.46367E-23
6.85233E-04 8.18368E-23
7.31665E-04 7.10468E-23
7.79618E-04 6.19052E-23
8.29092E-04 5.41231E-23
8.80086E-04 4.74691E-23
9.32601E-04 4.17562E-23
9.86636E-04 3.68321E-23
1.04219E-03 3.25724E-23
1.09927E-03 2.88749E-23
1.15786E-03 2.56551E-23
1.21797E-03 2.28427E-23
1.27961E-03 2.03791E-23
1.34276E-03 1.82152E-23
1.40743E-03 1.63097E-23
1.47362E-03 1.46277E-23
1.54133E-03 1.31396E-23
1.61056E-03 1.18202E-23
1.68131E-03 1.06479E-23
1.75357E-03 9.60440E-24
1.82735E-03 8.67374E-24
1.90265E-03 7.84230E-24
1.97947E-03 7.09827E-24
2.05780E-03 6.43140E-24
2.13765E-03 5.83280E-24
2.21902E-03 5.29472E-24
2.30190E-03 4.81037E-24
2.38630E-03 4.37385E-24
2.47222E-03 3.97994E-24
2.55965E-03 3.62407E-24
2.64859E-03 3.30221E-24
2.73905E-03 3.01082E-24
2.83103E-03 2.74674E-24
2.92452E-03 2.50719E-24
3.01952E-03 2.28970E-24
3.11604E-03 2.09206E-24
3.21407E-03 1.91232E-24
3.31362E-03 1.74874E-24
3.41468E-03 1.59976E-24
3.51725E-03 1.46398E-24
3.62133E-03 1.34015E-24
3.72692E-03 1.22715E-24
3.83403E-03 1.12397E-24
3.94265E-03 1.02972E-24
4.05278E-03 9.43569E-25
4.16442E-03 8.64792E-25
4.27757E-03 7.92723E-25
4.39223E-03 7.26765E-25
4.50840E-03 6.66377E-25
4.62608E-03 6.11067E-25
4.74527E-03 5.60394E-25
4.86597E-03 5.13953E-25
4.98817E-03 4.71380E-25
5.11188E-03 4.32344E-25
5.23711E-03 3.96541E-25
5.36383E-03 3.63698E-25
5.49207E-03 3.33565E-25
5.62181E-03 3.05914E-25
5.75306E-03 2.80537E-25
5.88581E-03 2.57245E-25
6.02007E-03 2.35864E-25
6.15583E-03 2.16237E-25
6.29310E-03 1.98218E-25
6.43187E-03 1.81676E-25
6.57214E-03 1.66490E-25
6.71392E-03 1.52548E-25
6.85720E-03 1.39749E-25
7.00198E-03 1.28000E-25
7.14827E-03 1.17216E-25
7.29605E-03 1.07319E-25
7.44534E-03 9.82359E-26
7.59612E-03 8.99017E-26
7.97965E-03 7.19565E-26
8.37255E-03 5.75059E-26
8.77480E-03 4.58860E-26
9.18641E-03 3.65583E-26
9.60736E-03 2.90852E-26
1.00376E-02 2.31114E-26
1.04773E-02 1.83479E-26
1.09262E-02 1.45597E-26
1.13844E-02 1.15559E-26
1.18520E-02 9.18135E-27
1.23288E-02 7.31029E-27
1.28150E-02 5.84071E-27
1.33104E-02 4.69014E-27
1.38150E-02 3.79201E-27
1.43290E-02 3.09272E-27
1.48521E-02 2.54930E-27
1.53845E-02 2.12734E-27
1.59262E-02 1.79947E-27
1.64770E-02 1.54400E-27
1.70371E-02 1.34384E-27
1.76063E-02 1.18560E-27
1.81848E-02 1.05887E-27
1.87724E-02 9.55654E-28
1.93692E-02 8.69822E-28
1.99751E-02 7.96768E-28
2.05901E-02 7.33063E-28
2.12143E-02 6.76200E-28
2.18476E-02 6.24385E-28
2.24900E-02 5.76365E-28
2.31415E-02 5.31296E-28
2.38021E-02 4.88637E-28
2.44717E-02 4.48062E-28
2.51504E-02 4.09399E-28
2.58382E-02 3.72578E-28
2.65349E-02 3.37592E-28
2.72407E-02 3.04469E-28
2.79555E-02 2.73251E-28
2.86793E-02 2.43983E-28
2.94120E-02 2.16697E-28
3.01537E-02 1.91412E-28
3.09043E-02 1.68126E-28
3.16639E-02 1.46818E-28
3.24324E-02 1.27449E-28
3.32098E-02 1.09959E-28
3.39961E-02 9.42741E-29
3.47912E-02 8.03061E-29
3.55952E-02 6.79564E-29
3.64081E-02 5.71184E-29
3.72297E-02 4.76800E-29
3.80602E-02 3.95265E-29
3.88995E-02 3.25422E-29
3.97476E-02 2.66127E-29
4.06044E-02 2.16268E-29
4.14700E-02 1.74774E-29
4.23443E-02 1.40627E-29
4.32273E-02 1.12873E-29
4.41190E-02 9.06260E-30
4.50194E-02 7.30711E-30
4.59284E-02 5.94677E-30
4.68461E-02 4.91492E-30
4.87074E-02 3.60617E-30
5.06030E-02 2.98825E-30
5.25328E-02 2.76926E-30
5.44967E-02 2.74352E-30
5.64946E-02 2.77566E-30
5.85262E-02 2.78514E-30
6.05914E-02 2.73192E-30
6.26901E-02 2.60412E-30
6.48222E-02 2.40781E-30
6.69873E-02 2.15908E-30
6.91854E-02 1.87815E-30
7.14163E-02 1.58528E-30
7.36799E-02 1.29825E-30
7.59760E-02 1.03100E-30
7.83043E-02 7.93165E-31
8.06647E-02 5.90228E-31
8.30571E-02 4.24070E-31
8.54812E-02 2.93698E-31
8.79369E-02 1.96049E-31
9.04240E-02 1.26752E-31
9.29422E-02 8.07958E-32
9.54915E-02 5.30686E-32
9.80716E-02 3.87556E-32
1.00682E-01 3.36055E-32
1.03323E-01 3.40785E-32
1.05995E-01 3.73976E-32
1.08696E-01 4.15270E-32
1.11427E-01 4.50997E-32
1.14188E-01 4.73147E-32
1.16978E-01 4.78206E-32
1.19797E-01 4.65986E-32
1.22645E-01 4.38543E-32
1.25522E-01 3.99248E-32
1.28428E-01 3.52027E-32
1.31361E-01 3.00797E-32
1.34323E-01 2.49070E-32
1.37313E-01 1.99721E-32
1.40330E-01 1.54877E-32
1.43375E-01 1.15913E-32
1.46447E-01 8.35105E-33
1.49545E-01 5.77696E-33
1.52671E-01 3.83347E-33
1.55823E-01 2.45309E-33
1.59001E-01 1.54901E-33
1.62205E-01 1.02605E-33
1.65435E-01 7.89585E-34
1.68690E-01 7.52092E-34
1.71970E-01 8.37539E-34
1.75276E-01 9.83779E-34
1.78606E-01 1.14328E-33
1.81961E-01 1.28261E-33
1.85340E-01 1.38097E-33
1.88743E-01 1.42819E-33
1.92169E-01 1.42250E-33
1.95619E-01 1.36824E-33
1.99092E-01 1.27370E-33
2.02589E-01 1.14931E-33
2.06107E-01 1.00614E-33
2.09649E-01 8.54701E-34
2.13212E-01 7.04223E-34
2.16797E-01 5.62141E-34
2.20404E-01 4.33912E-34
2.24032E-01 3.23026E-34
2.27680E-01 2.31178E-34
2.31350E-01 1.58534E-34
2.35040E-01 1.04059E-34
2.38751E-01 6.58519E-35
2.42481E-01 4.14725E-35
2.46231E-01 2.82258E-35
2.50000E-01 2.34012E-35
2.53788E-01 2.44554E-35
2.57595E-01 2.91400E-35
2.61421E-01 3.55795E-35
2.65264E-01 4.23037E-35
2.69126E-01 4.82452E-35
2.73005E-01 5.27093E-35
2.76901E-01 5.53264E-35
2.80814E-01 5.59931E-35
2.84744E-01 5.48102E-35
2.88691E-01 5.20212E-35
2.92653E-01 4.79574E-35
2.96632E-01 4.29894E-35
3.00625E-01 3.74891E-35
3.04634E-01 3.18003E-35
3.08658E-01 2.62192E-35
3.12697E-01 2.09827E-35
3.16749E-01 1.62645E-35
3.20816E-01 1.21757E-35
3.24896E-01 8.77073E-36
3.28990E-01 6.05530E-36
3.33097E-01 3.99608E-36
3.37216E-01 2.53098E-36
3.41348E-01 1.57891E-36
3.45492E-01 1.04882E-36
3.49647E-01 8.47190E-37
3.53814E-01 8.84220E-37
3.57992E-01 1.07826E-36
3.62181E-01 1.35884E-36
3.66381E-01 1.66828E-36
3.70590E-01 1.96216E-36
3.74810E-01 2.20893E-36
3.79039E-01 2.38869E-36
3.83277E-01 2.49169E-36
3.87524E-01 2.51648E-36
3.91780E-01 2.46795E-36
3.96044E-01 2.35555E-36
4.00316E-01 2.19153E-36
4.04596E-01 1.98950E-36
4.08882E-01 1.76319E-36
4.13176E-01 1.52552E-36
4.17476E-01 1.28792E-36
4.21783E-01 1.05994E-36
4.26095E-01 8.48973E-37
4.30413E-01 6.60300E-37
4.34737E-01 4.97147E-37
4.39065E-01 3.60913E-37
4.43398E-01 2.51456E-37
4.47736E-01 1.67394E-37
4.52077E-01 1.06421E-37
4.56422E-01 6.56203E-38
4.60770E-01 4.17303E-38
4.65122E-01 3.13873E-38
4.69476E-01 3.13159E-38
4.73832E-01 3.84755E-38
4.78190E-01 5.01642E-38
4.82550E-01 6.40838E-38
4.86912E-01 7.83650E-38
4.91274E-01 9.15746E-38
4.95637E-01 1.02686E-37
5.00000E-01 1.11046E-37
5.04363E-01 1.16326E-37
5.08726E-01 1.18467E-37
5.13088E-01 1.17618E-37
5.17450E-01 1.14087E-37
5.21810E-01 1.08289E-37
5.26168E-01 1.00692E-37
5.30524E-01 9.17914E-38
5.34878E-01 8.20656E-38
5.39230E-01 7.19597E-38
5.43578E-01 6.18644E-38
5.47923E-01 5.21102E-38
5.52264E-01 4.29590E-38
5.56602E-01 3.46043E-38
5.60935E-01 2.71762E-38
5.65263E-01 2.07453E-38
5.69587E-01 1.00000E-45
5.73905E-01 1.00000E-45
5.78217E-01 1.00000E-45
5.82524E-01 1.00000E-45
5.86824E-01 1.00000E-45
5.91118E-01 1.00000E-45
5.95404E-01 1.00000E-45
5.99684E-01 1.00000E-45
6.03956E-01 1.00000E-45
6.08220E-01 1.00000E-45
6.12476E-01 1.00000E-45
6.16723E-01 1.00000E-45
6.20961E-01 1.00000E-45
6.25190E-01 1.00000E-45
6.29410E-01 1.00000E-45
6.33619E-01 1.00000E-45
6.37819E-01 1.00000E-45
6.42008E-01 1.00000E-45
6.46186E-01 1.00000E-45
6.50353E-01 1.00000E-45
6.54508E-01 1.00000E-45
6.58652E-01 1.00000E-45
6.62784E-01 1.00000E-45
6.66903E-01 1.00000E-45
6.71010E-01 1.00000E-45
6.75104E-01 1.00000E-45
6.79184E-01 1.00000E-45
6.83251E-01 1.00000E-45
6.87303E-01 1.00000E-45
6.91342E-01 1.00000E-45
6.95366E-01 1.00000E-45
6.99375E-01 1.00000E-45
7.03368E-01 1.00000E-45
7.07347E-01 1.00000E-45
7.11309E-01 1.00000E-45
7.15256E-01 1.00000E-45
7.19186E-01 1.00000E-45
7.23099E-01 1.00000E-45
7.26995E-01 1.00000E-45
7.30874E-01 1.00000E-45
7.34736E-01 1.00000E-45
7.38579E-01 1.00000E-45
7.42405E-01 1.00000E-45
7.46212E-01 1.00000E-45
7.50000E-01 1.00000E-45
7.53769E-01 1.00000E-45
7.57519E-01 1.00000E-45
7.61249E-01 1.00000E-45
7.64960E-01 1.00000E-45
7.68650E-01 1.00000E-45
7.72320E-01 1.00000E-45
7.75968E-01 1.00000E-45
7.79596E-01 1.00000E-45
7.83203E-01 1.00000E-45
7.86788E-01 1.00000E-45
7.90351E-01 1.00000E-45
7.93893E-01 1.00000E-45
7.97411E-01 1.00000E-45
8.00908E-01 1.00000E-45
8.04381E-01 1.00000E-45
8.07831E-01 1.00000E-45
8.11257E-01 1.00000E-45
8.14660E-01 1.00000E-45
8.18039E-01 1.00000E-45
8.21394E-01 1.00000E-45
8.24724E-01 1.00000E-45
8.28030E-01 1.00000E-45
8.31310E-01 1.00000E-45
8.34565E-01 1.00000E-45
8.37795E-01 1.00000E-45
8.40999E-01 1.00000E-45
8.44177E-01 1.00000E-45
8.47329E-01 1.00000E-45
8.50455E-01 1.00000E-45
8.53553E-01 1.00000E-45
8.56625E-01 1.00000E-45
8.59670E-01 1.00000E-45
8.62687E-01 1.00000E-45
8.65677E-01 1.00000E-45
8.68639E-01 1.00000E-45
8.71572E-01 1.00000E-45
8.74478E-01 1.00000E-45
8.77355E-01 1.00000E-45
8.80203E-01 1.00000E-45
8.83022E-01 1.00000E-45
8.85812E-01 1.00000E-45
8.88573E-01 1.00000E-45
8.91304E-01 1.00000E-45
8.94005E-01 1.00000E-45
8.96677E-01 1.00000E-45
8.99318E-01 1.00000E-45
9.01928E-01 1.00000E-45
9.04508E-01 1.00000E-45
9.07058E-01 1.00000E-45
9.09576E-01 1.00000E-45
9.12063E-01 1.00000E-45
9.14519E-01 1.00000E-45
9.16943E-01 1.00000E-45
9.19335E-01 1.00000E-45
9.21696E-01 1.00000E-45
9.24024E-01 1.00000E-45
9.26320E-01 1.00000E-45
9.28584E-01 1.00000E-45
9.30815E-01 1.00000E-45
9.33013E-01 1.00000E-45
9.35178E-01 1.00000E-45
9.37310E-01 1.00000E-45
9.39409E-01 1.00000E-45
9.41474E-01 1.00000E-45
9.43505E-01 1.00000E-45
9.45503E-01 1.00000E-45
9.47467E-01 1.00000E-45
9.49397E-01 1.00000E-45
9.51293E-01 1.00000E-45
9.53154E-01 1.00000E-45
9.54981E-01 1.00000E-45
9.56773E-01 1.00000E-45
9.58530E-01 1.00000E-45
9.60252E-01 1.00000E-45
9.61940E-01 1.00000E-45
9.63592E-01 1.00000E-45
9.65209E-01 1.00000E-45
9.66790E-01 1.00000E-45
9.68336E-01 1.00000E-45
9.69846E-01 1.00000E-45
9.71321E-01 1.00000E-45
9.72759E-01 1.00000E-45
9.74162E-01 1.00000E-45
9.75528E-01 1.00000E-45
9.76858E-01 1.00000E-45
9.78152E-01 1.00000E-45
9.79410E-01 1.00000E-45
9.80631E-01 1.00000E-45
9.81815E-01 1.00000E-45
9.82963E-01 1.00000E-45
9.84074E-01 1.00000E-45
9.85148E-01 1.00000E-45
9.86185E-01 1.00000E-45
9.87185E-01 1.00000E-45
9.88148E-01 1.00000E-45
9.89074E-01 1.00000E-45
9.89962E-01 1.00000E-45
9.90814E-01 1.00000E-45
9.91627E-01 1.00000E-45
9.92404E-01 1.00000E-45
9.93143E-01 1.00000E-45
9.93844E-01 1.00000E-45
9.94508E-01 1.00000E-45
9.95134E-01 1.00000E-45
9.95722E-01 1.00000E-45
9.96273E-01 1.00000E-45
9.96786E-01 1.00000E-45
9.97261E-01 1.00000E-45
9.97698E-01 1.00000E-45
9.98097E-01 1.00000E-45
9.98459E-01 1.00000E-45
9.98782E-01 1.00000E-45
9.99067E-01 1.00000E-45
9.99315E-01 1.00000E-45
9.99524E-01 1.00000E-45
9.99695E-01 1.00000E-45
9.99829E-01 1.00000E-45
9.99924E-01 1.00000E-45
9.99981E-01 1.00000E-45
1.00000E+00 1.00000E-45
