 #
 # Subroutine ELSEPA. Elastic scattering of electrons and positrons
 #                    by neutral atoms and positive ions
 #
 # Projectile: electron
 # Kinetic energy = 1.75000E+07 eV = 6.43113E+05 a.u.
 #
 # WARNING: High-energy factorization with free-atom DF screening.
 #          Absorption, polarization and exchange corrections are
 #          switched off.
 #          Phase shifts are calculated for the bare nucleus.
 #          Scattering amplitudes are not evaluated.
 #
 # Element: Xe,  Z =  54,  atomic weight = 1.31290E+02 g/mol
 #
 # Nuclear model: Fermi distribution
 #                Average radius = 5.43827E-13 cm
 #                Skin thickness = 5.46000E-14 cm
 #
 # Number of electrons = 54
 #
 # Total elastic cross section = 5.87388E-18 cm**2 = 2.09760E-01 a0**2
 # 1st transport cross section = 1.67357E-23 cm**2 = 5.97641E-07 a0**2
 # 2nd transport cross section = 4.75485E-23 cm**2 = 1.69799E-06 a0**2
 #
 #
 # Differential cross section:                       MU=(1-COS(THETA))/2
 #
 #  THETA        MU          DCS          DCS        Sherman      error
 #  (deg)                 (cm**2/sr)   (a0**2/sr)    function
 #----------------------------------------------------------------------
0.00000E+00 1.39162E-11
7.61557E-13 1.39155E-11
1.18994E-12 1.39150E-11
1.71346E-12 1.39145E-11
2.33225E-12 1.39139E-11
3.04617E-12 1.39132E-11
3.85530E-12 1.39124E-11
4.75964E-12 1.39115E-11
5.75917E-12 1.39106E-11
6.85391E-12 1.39095E-11
8.04379E-12 1.39083E-11
9.32893E-12 1.39071E-11
1.07092E-11 1.39057E-11
1.21847E-11 1.39043E-11
1.37554E-11 1.39028E-11
1.54213E-11 1.39011E-11
1.71823E-11 1.38994E-11
1.90386E-11 1.38976E-11
2.09900E-11 1.38957E-11
2.30367E-11 1.38937E-11
2.51785E-11 1.38916E-11
2.74156E-11 1.38895E-11
2.97478E-11 1.38872E-11
3.21752E-11 1.38848E-11
3.46979E-11 1.38824E-11
3.73157E-11 1.38798E-11
4.00286E-11 1.38772E-11
4.28368E-11 1.38745E-11
4.57402E-11 1.38717E-11
4.87388E-11 1.38687E-11
5.18325E-11 1.38657E-11
5.50215E-11 1.38627E-11
5.83057E-11 1.38595E-11
6.16850E-11 1.38562E-11
6.51595E-11 1.38528E-11
6.87293E-11 1.38494E-11
7.23943E-11 1.38458E-11
7.61544E-11 1.38422E-11
1.18991E-10 1.38009E-11
1.71347E-10 1.37506E-11
2.33223E-10 1.36916E-11
3.04617E-10 1.36239E-11
3.85531E-10 1.35478E-11
4.75965E-10 1.34635E-11
5.75917E-10 1.33713E-11
6.85389E-10 1.32713E-11
8.04380E-10 1.31625E-11
9.32891E-10 1.30474E-11
1.07092E-09 1.29272E-11
1.21847E-09 1.27979E-11
1.37554E-09 1.26630E-11
1.54213E-09 1.25245E-11
1.71823E-09 1.23775E-11
1.90386E-09 1.22258E-11
2.09900E-09 1.20719E-11
2.30367E-09 1.19106E-11
2.51785E-09 1.17451E-11
2.74156E-09 1.15791E-11
2.97478E-09 1.14067E-11
3.21752E-09 1.12307E-11
3.46978E-09 1.10556E-11
3.73156E-09 1.08755E-11
4.00286E-09 1.06922E-11
4.28368E-09 1.05111E-11
4.57402E-09 1.03263E-11
4.87388E-09 1.01387E-11
5.18326E-09 9.95433E-12
5.50215E-09 9.76771E-12
5.83057E-09 9.57863E-12
6.16850E-09 9.39357E-12
6.51596E-09 9.20765E-12
6.87293E-09 9.01950E-12
7.23942E-09 8.83602E-12
7.61544E-09 8.65296E-12
1.18991E-08 6.90762E-12
1.71347E-08 5.41713E-12
2.33223E-08 4.21729E-12
3.04617E-08 3.28396E-12
3.85531E-08 2.57434E-12
4.75965E-08 2.03891E-12
5.75917E-08 1.63425E-12
6.85389E-08 1.32620E-12
8.04380E-08 1.08200E-12
9.32891E-08 8.97379E-13
1.07092E-07 7.57077E-13
1.21847E-07 6.38398E-13
1.37554E-07 5.43192E-13
1.54213E-07 4.68098E-13
1.71823E-07 4.02760E-13
1.90386E-07 3.48385E-13
2.09900E-07 3.04292E-13
2.30367E-07 2.65455E-13
2.51785E-07 2.32290E-13
2.74156E-07 2.04818E-13
2.97478E-07 1.80591E-13
3.21752E-07 1.59566E-13
3.46978E-07 1.41844E-13
3.73156E-07 1.26241E-13
4.00286E-07 1.12564E-13
4.28368E-07 1.00863E-13
4.57402E-07 9.05588E-14
4.87388E-07 8.14630E-14
5.18325E-07 7.35794E-14
5.50215E-07 6.66153E-14
5.83057E-07 6.04287E-14
6.16850E-07 5.50048E-14
6.51596E-07 5.01867E-14
6.87293E-07 4.58774E-14
7.23942E-07 4.20612E-14
7.61543E-07 3.86477E-14
1.18991E-06 1.83472E-14
1.71347E-06 9.93169E-15
2.33223E-06 5.81415E-15
3.04617E-06 3.60240E-15
3.85531E-06 2.33683E-15
4.75964E-06 1.57790E-15
5.75916E-06 1.10380E-15
6.85388E-06 7.95575E-16
8.04378E-06 5.88138E-16
9.32888E-06 4.44683E-16
1.07092E-05 3.42654E-16
1.21846E-05 2.68389E-16
1.37553E-05 2.13227E-16
1.54212E-05 1.71492E-16
1.71822E-05 1.39493E-16
1.90385E-05 1.14579E-16
2.09899E-05 9.50420E-17
2.30365E-05 7.94793E-17
2.51783E-05 6.69446E-17
2.74153E-05 5.67682E-17
2.97475E-05 4.84454E-17
3.21749E-05 4.15897E-17
3.46974E-05 3.59042E-17
3.73152E-05 3.11581E-17
4.00281E-05 2.71698E-17
4.28362E-05 2.38001E-17
4.57395E-05 2.09365E-17
4.87380E-05 1.84900E-17
5.18317E-05 1.63895E-17
5.50205E-05 1.45778E-17
5.83045E-05 1.30093E-17
6.16838E-05 1.16463E-17
6.51582E-05 1.04577E-17
6.87277E-05 9.41739E-18
7.23925E-05 8.50359E-18
7.61524E-05 7.69842E-18
9.21439E-05 5.29108E-18
1.09658E-04 3.75602E-18
1.28695E-04 2.74029E-18
1.49255E-04 2.04609E-18
1.71338E-04 1.55876E-18
1.94942E-04 1.20838E-18
2.20070E-04 9.51257E-19
2.46720E-04 7.59100E-19
2.74892E-04 6.13135E-19
3.04586E-04 5.00669E-19
3.35803E-04 4.12866E-19
3.68542E-04 3.43512E-19
4.02802E-04 2.88142E-19
4.38585E-04 2.43503E-19
4.75889E-04 2.07192E-19
5.14715E-04 1.77411E-19
5.55063E-04 1.52801E-19
5.96931E-04 1.32319E-19
6.40321E-04 1.15161E-19
6.85233E-04 1.00701E-19
7.31665E-04 8.84434E-20
7.79618E-04 7.79994E-20
8.29092E-04 6.90547E-20
8.80086E-04 6.13589E-20
9.32601E-04 5.47082E-20
9.86636E-04 4.89363E-20
1.04219E-03 4.39078E-20
1.09927E-03 3.95104E-20
1.15786E-03 3.56513E-20
1.21797E-03 3.22533E-20
1.27961E-03 2.92518E-20
1.34276E-03 2.65924E-20
1.40743E-03 2.42294E-20
1.47362E-03 2.21239E-20
1.54133E-03 2.02430E-20
1.61056E-03 1.85584E-20
1.68131E-03 1.70461E-20
1.75357E-03 1.56853E-20
1.82735E-03 1.44581E-20
1.90265E-03 1.33491E-20
1.97947E-03 1.23448E-20
2.05780E-03 1.14336E-20
2.13765E-03 1.06052E-20
2.21902E-03 9.85093E-21
2.30190E-03 9.16276E-21
2.38630E-03 8.53394E-21
2.47222E-03 7.95839E-21
2.55965E-03 7.43078E-21
2.64859E-03 6.94639E-21
2.73905E-03 6.50102E-21
2.83103E-03 6.09097E-21
2.92452E-03 5.71291E-21
3.01952E-03 5.36389E-21
3.11604E-03 5.04127E-21
3.21407E-03 4.74267E-21
3.31362E-03 4.46598E-21
3.41468E-03 4.20929E-21
3.51725E-03 3.97089E-21
3.62133E-03 3.74923E-21
3.72692E-03 3.54291E-21
3.83403E-03 3.35069E-21
3.94265E-03 3.17140E-21
4.05278E-03 3.00403E-21
4.16442E-03 2.84763E-21
4.27757E-03 2.70134E-21
4.39223E-03 2.56438E-21
4.50840E-03 2.43606E-21
4.62608E-03 2.31571E-21
4.74527E-03 2.20276E-21
4.86597E-03 2.09667E-21
4.98817E-03 1.99693E-21
5.11188E-03 1.90309E-21
5.23711E-03 1.81475E-21
5.36383E-03 1.73151E-21
5.49207E-03 1.65302E-21
5.62181E-03 1.57897E-21
5.75306E-03 1.50904E-21
5.88581E-03 1.44298E-21
6.02007E-03 1.38052E-21
6.15583E-03 1.32143E-21
6.29310E-03 1.26550E-21
6.43187E-03 1.21252E-21
6.57214E-03 1.16231E-21
6.71392E-03 1.11469E-21
6.85720E-03 1.06950E-21
7.00198E-03 1.02661E-21
7.14827E-03 9.85855E-22
7.29605E-03 9.47125E-22
7.44534E-03 9.10294E-22
7.59612E-03 8.75253E-22
7.97965E-03 7.94815E-22
8.37255E-03 7.23489E-22
8.77480E-03 6.60056E-22
9.18641E-03 6.03487E-22
9.60736E-03 5.52907E-22
1.00376E-02 5.07567E-22
1.04773E-02 4.66825E-22
1.09262E-02 4.30129E-22
1.13844E-02 3.97005E-22
1.18520E-02 3.67043E-22
1.23288E-02 3.39883E-22
1.28150E-02 3.15215E-22
1.33104E-02 2.92769E-22
1.38150E-02 2.72308E-22
1.43290E-02 2.53623E-22
1.48521E-02 2.36531E-22
1.53845E-02 2.20871E-22
1.59262E-02 2.06501E-22
1.64770E-02 1.93294E-22
1.70371E-02 1.81138E-22
1.76063E-02 1.69935E-22
1.81848E-02 1.59595E-22
1.87724E-02 1.50038E-22
1.93692E-02 1.41195E-22
1.99751E-02 1.33002E-22
2.05901E-02 1.25402E-22
2.12143E-02 1.18344E-22
2.18476E-02 1.11781E-22
2.24900E-02 1.05673E-22
2.31415E-02 9.99821E-23
2.38021E-02 9.46736E-23
2.44717E-02 8.97172E-23
2.51504E-02 8.50853E-23
2.58382E-02 8.07523E-23
2.65349E-02 7.66950E-23
2.72407E-02 7.28925E-23
2.79555E-02 6.93262E-23
2.86793E-02 6.59780E-23
2.94120E-02 6.28318E-23
3.01537E-02 5.98736E-23
3.09043E-02 5.70900E-23
3.16639E-02 5.44679E-23
3.24324E-02 5.19966E-23
3.32098E-02 4.96661E-23
3.39961E-02 4.74660E-23
3.47912E-02 4.53880E-23
3.55952E-02 4.34241E-23
3.64081E-02 4.15665E-23
3.72297E-02 3.98084E-23
3.80602E-02 3.81435E-23
3.88995E-02 3.65659E-23
3.97476E-02 3.50700E-23
4.06044E-02 3.36507E-23
4.14700E-02 3.23035E-23
4.23443E-02 3.10238E-23
4.32273E-02 2.98076E-23
4.41190E-02 2.86512E-23
4.50194E-02 2.75510E-23
4.59284E-02 2.65037E-23
4.68461E-02 2.55063E-23
4.87074E-02 2.36499E-23
5.06030E-02 2.19613E-23
5.25328E-02 2.04223E-23
5.44967E-02 1.90172E-23
5.64946E-02 1.77321E-23
5.85262E-02 1.65548E-23
6.05914E-02 1.54745E-23
6.26901E-02 1.44818E-23
6.48222E-02 1.35681E-23
6.69873E-02 1.27259E-23
6.91854E-02 1.19486E-23
7.14163E-02 1.12302E-23
7.36799E-02 1.05653E-23
7.59760E-02 9.94930E-24
7.83043E-02 9.37781E-24
8.06647E-02 8.84701E-24
8.30571E-02 8.35344E-24
8.54812E-02 7.89399E-24
8.79369E-02 7.46583E-24
9.04240E-02 7.06642E-24
9.29422E-02 6.69346E-24
9.54915E-02 6.34485E-24
9.80716E-02 6.01869E-24
1.00682E-01 5.71325E-24
1.03323E-01 5.42697E-24
1.05995E-01 5.15839E-24
1.08696E-01 4.90623E-24
1.11427E-01 4.66927E-24
1.14188E-01 4.44642E-24
1.16978E-01 4.23668E-24
1.19797E-01 4.03912E-24
1.22645E-01 3.85290E-24
1.25522E-01 3.67725E-24
1.28428E-01 3.51143E-24
1.31361E-01 3.35481E-24
1.34323E-01 3.20676E-24
1.37313E-01 3.06673E-24
1.40330E-01 2.93420E-24
1.43375E-01 2.80869E-24
1.46447E-01 2.68975E-24
1.49545E-01 2.57697E-24
1.52671E-01 2.46997E-24
1.55823E-01 2.36841E-24
1.59001E-01 2.27194E-24
1.62205E-01 2.18026E-24
1.65435E-01 2.09310E-24
1.68690E-01 2.01018E-24
1.71970E-01 1.93125E-24
1.75276E-01 1.85610E-24
1.78606E-01 1.78450E-24
1.81961E-01 1.71625E-24
1.85340E-01 1.65117E-24
1.88743E-01 1.58907E-24
1.92169E-01 1.52981E-24
1.95619E-01 1.47322E-24
1.99092E-01 1.41916E-24
2.02589E-01 1.36749E-24
2.06107E-01 1.31810E-24
2.09649E-01 1.27085E-24
2.13212E-01 1.22564E-24
2.16797E-01 1.18237E-24
2.20404E-01 1.14093E-24
2.24032E-01 1.10124E-24
2.27680E-01 1.06320E-24
2.31350E-01 1.02674E-24
2.35040E-01 9.91775E-25
2.38751E-01 9.58233E-25
2.42481E-01 9.26045E-25
2.46231E-01 8.95148E-25
2.50000E-01 8.65480E-25
2.53788E-01 8.36982E-25
2.57595E-01 8.09600E-25
2.61421E-01 7.83282E-25
2.65264E-01 7.57980E-25
2.69126E-01 7.33646E-25
2.73005E-01 7.10238E-25
2.76901E-01 6.87712E-25
2.80814E-01 6.66031E-25
2.84744E-01 6.45156E-25
2.88691E-01 6.25052E-25
2.92653E-01 6.05686E-25
2.96632E-01 5.87025E-25
3.00625E-01 5.69040E-25
3.04634E-01 5.51700E-25
3.08658E-01 5.34980E-25
3.12697E-01 5.18852E-25
3.16749E-01 5.03293E-25
3.20816E-01 4.88278E-25
3.24896E-01 4.73785E-25
3.28990E-01 4.59793E-25
3.33097E-01 4.46281E-25
3.37216E-01 4.33231E-25
3.41348E-01 4.20623E-25
3.45492E-01 4.08439E-25
3.49647E-01 3.96664E-25
3.53814E-01 3.85281E-25
3.57992E-01 3.74274E-25
3.62181E-01 3.63630E-25
3.66381E-01 3.53334E-25
3.70590E-01 3.43372E-25
3.74810E-01 3.33733E-25
3.79039E-01 3.24403E-25
3.83277E-01 3.15372E-25
3.87524E-01 3.06627E-25
3.91780E-01 2.98159E-25
3.96044E-01 2.89957E-25
4.00316E-01 2.82012E-25
4.04596E-01 2.74314E-25
4.08882E-01 2.66854E-25
4.13176E-01 2.59623E-25
4.17476E-01 2.52614E-25
4.21783E-01 2.45818E-25
4.26095E-01 2.39227E-25
4.30413E-01 2.32836E-25
4.34737E-01 2.26636E-25
4.39065E-01 2.20621E-25
4.43398E-01 2.14785E-25
4.47736E-01 2.09121E-25
4.52077E-01 2.03623E-25
4.56422E-01 1.98286E-25
4.60770E-01 1.93105E-25
4.65122E-01 1.88074E-25
4.69476E-01 1.83188E-25
4.73832E-01 1.78442E-25
4.78190E-01 1.73831E-25
4.82550E-01 1.69352E-25
4.86912E-01 1.65000E-25
4.91274E-01 1.60770E-25
4.95637E-01 1.56659E-25
5.00000E-01 1.52663E-25
5.04363E-01 1.48778E-25
5.08726E-01 1.45000E-25
5.13088E-01 1.41327E-25
5.17450E-01 1.37754E-25
5.21810E-01 1.34280E-25
5.26168E-01 1.30899E-25
5.30524E-01 1.27611E-25
5.34878E-01 1.24411E-25
5.39230E-01 1.21297E-25
5.43578E-01 1.18267E-25
5.47923E-01 1.15318E-25
5.52264E-01 1.12446E-25
5.56602E-01 1.09651E-25
5.60935E-01 1.06930E-25
5.65263E-01 1.04280E-25
5.69587E-01 1.01699E-25
5.73905E-01 9.91860E-26
5.78217E-01 9.67379E-26
5.82524E-01 9.43532E-26
5.86824E-01 9.20299E-26
5.91118E-01 8.97663E-26
5.95404E-01 8.75607E-26
5.99684E-01 8.54113E-26
6.03956E-01 8.33165E-26
6.08220E-01 8.12747E-26
6.12476E-01 7.92845E-26
6.16723E-01 7.73444E-26
6.20961E-01 7.54529E-26
6.25190E-01 7.36086E-26
6.29410E-01 7.18103E-26
6.33619E-01 7.00566E-26
6.37819E-01 6.83463E-26
6.42008E-01 6.66781E-26
6.46186E-01 6.50510E-26
6.50353E-01 6.34638E-26
6.54508E-01 6.19153E-26
6.58652E-01 6.04046E-26
6.62784E-01 5.89305E-26
6.66903E-01 5.74921E-26
6.71010E-01 5.60885E-26
6.75104E-01 5.47187E-26
6.79184E-01 5.33817E-26
6.83251E-01 5.20767E-26
6.87303E-01 5.08029E-26
6.91342E-01 4.95595E-26
6.95366E-01 4.83455E-26
6.99375E-01 4.71603E-26
7.03368E-01 4.60031E-26
7.07347E-01 4.48731E-26
7.11309E-01 4.37698E-26
7.15256E-01 4.26922E-26
7.19186E-01 4.16399E-26
7.23099E-01 4.06121E-26
7.26995E-01 3.96082E-26
7.30874E-01 3.86277E-26
7.34736E-01 3.76699E-26
7.38579E-01 3.67342E-26
7.42405E-01 3.58201E-26
7.46212E-01 3.49270E-26
7.50000E-01 3.40545E-26
7.53769E-01 3.32019E-26
7.57519E-01 3.23689E-26
7.61249E-01 3.15549E-26
7.64960E-01 3.07594E-26
7.68650E-01 2.99821E-26
7.72320E-01 2.92224E-26
7.75968E-01 2.84799E-26
7.79596E-01 2.77542E-26
7.83203E-01 2.70450E-26
7.86788E-01 2.63517E-26
7.90351E-01 2.56741E-26
7.93893E-01 2.50118E-26
7.97411E-01 2.43643E-26
8.00908E-01 2.37313E-26
8.04381E-01 2.31126E-26
8.07831E-01 2.25077E-26
8.11257E-01 2.19164E-26
8.14660E-01 2.13382E-26
8.18039E-01 2.07730E-26
8.21394E-01 2.02204E-26
8.24724E-01 1.96801E-26
8.28030E-01 1.91519E-26
8.31310E-01 1.86354E-26
8.34565E-01 1.81305E-26
8.37795E-01 1.76367E-26
8.40999E-01 1.71540E-26
8.44177E-01 1.66820E-26
8.47329E-01 1.62205E-26
8.50455E-01 1.57693E-26
8.53553E-01 1.53281E-26
8.56625E-01 1.48967E-26
8.59670E-01 1.44750E-26
8.62687E-01 1.40626E-26
8.65677E-01 1.36594E-26
8.68639E-01 1.32652E-26
8.71572E-01 1.28799E-26
8.74478E-01 1.25031E-26
8.77355E-01 1.21348E-26
8.80203E-01 1.17747E-26
8.83022E-01 1.14227E-26
8.85812E-01 1.10786E-26
8.88573E-01 1.07422E-26
8.91304E-01 1.04135E-26
8.94005E-01 1.00921E-26
8.96677E-01 9.77808E-27
8.99318E-01 9.47116E-27
9.01928E-01 9.17122E-27
9.04508E-01 8.87813E-27
9.07058E-01 8.59175E-27
9.09576E-01 8.31195E-27
9.12063E-01 8.03860E-27
9.14519E-01 7.77158E-27
9.16943E-01 7.51075E-27
9.19335E-01 7.25601E-27
9.21696E-01 7.00724E-27
9.24024E-01 6.76432E-27
9.26320E-01 6.52714E-27
9.28584E-01 6.29560E-27
9.30815E-01 6.06960E-27
9.33013E-01 5.84903E-27
9.35178E-01 5.63379E-27
9.37310E-01 5.42379E-27
9.39409E-01 5.21894E-27
9.41474E-01 5.01915E-27
9.43505E-01 4.82432E-27
9.45503E-01 4.63437E-27
9.47467E-01 4.44923E-27
9.49397E-01 4.26880E-27
9.51293E-01 4.09301E-27
9.53154E-01 3.92179E-27
9.54981E-01 3.75505E-27
9.56773E-01 3.59274E-27
9.58530E-01 3.43477E-27
9.60252E-01 3.28108E-27
9.61940E-01 3.13160E-27
9.63592E-01 2.98628E-27
9.65209E-01 2.84504E-27
9.66790E-01 2.70784E-27
9.68336E-01 2.57460E-27
9.69846E-01 2.44528E-27
9.71321E-01 2.31982E-27
9.72759E-01 2.19816E-27
9.74162E-01 2.08026E-27
9.75528E-01 1.96606E-27
9.76858E-01 1.85553E-27
9.78152E-01 1.74860E-27
9.79410E-01 1.64525E-27
9.80631E-01 1.54541E-27
9.81815E-01 1.44906E-27
9.82963E-01 1.35616E-27
9.84074E-01 1.26666E-27
9.85148E-01 1.18052E-27
9.86185E-01 1.09772E-27
9.87185E-01 1.01822E-27
9.88148E-01 9.41979E-28
9.89074E-01 8.68974E-28
9.89962E-01 7.99174E-28
9.90814E-01 7.32549E-28
9.91627E-01 6.69072E-28
9.92404E-01 6.08718E-28
9.93143E-01 5.51461E-28
9.93844E-01 4.97278E-28
9.94508E-01 4.46148E-28
9.95134E-01 3.98049E-28
9.95722E-01 3.52962E-28
9.96273E-01 3.10869E-28
9.96786E-01 2.71752E-28
9.97261E-01 2.35596E-28
9.97698E-01 2.02386E-28
9.98097E-01 1.72109E-28
9.98459E-01 1.44751E-28
9.98782E-01 1.20304E-28
9.99067E-01 9.87551E-29
9.99315E-01 8.00973E-29
9.99524E-01 6.43226E-29
9.99695E-01 5.14248E-29
9.99829E-01 4.13985E-29
9.99924E-01 3.42398E-29
9.99981E-01 2.99457E-29
1.00000E+00 2.85145E-29
