 #
 # Subroutine ELSEPA. Elastic scattering of electrons and positrons
 #                    by neutral atoms and positive ions
 #
 # Projectile: electron
 # Kinetic energy = 5.00000E+07 eV = 1.83747E+06 a.u.
 #
 # WARNING: High-energy factorization with free-atom DF screening.
 #          Absorption, polarization and exchange corrections are
 #          switched off.
 #          Phase shifts are calculated for the bare nucleus.
 #          Scattering amplitudes are not evaluated.
 #
 # Element: Xe,  Z =  54,  atomic weight = 1.31290E+02 g/mol
 #
 # Nuclear model: Fermi distribution
 #                Average radius = 5.43827E-13 cm
 #                Skin thickness = 5.46000E-14 cm
 #
 # Number of electrons = 54
 #
 # Total elastic cross section = 5.87021E-18 cm**2 = 2.09629E-01 a0**2
 # 1st transport cross section = 2.24119E-24 cm**2 = 8.00345E-08 a0**2
 # 2nd transport cross section = 6.57029E-24 cm**2 = 2.34629E-07 a0**2
 #
 #
 # Differential cross section:                       MU=(1-COS(THETA))/2
 #
 #  THETA        MU          DCS          DCS        Sherman      error
 #  (deg)                 (cm**2/sr)   (a0**2/sr)    function
 #----------------------------------------------------------------------
0.00000E+00 1.09451E-10
7.61557E-13 1.09404E-10
1.18994E-12 1.09378E-10
1.71346E-12 1.09346E-10
2.33225E-12 1.09309E-10
3.04617E-12 1.09266E-10
3.85530E-12 1.09217E-10
4.75964E-12 1.09163E-10
5.75917E-12 1.09103E-10
6.85391E-12 1.09037E-10
8.04379E-12 1.08966E-10
9.32893E-12 1.08889E-10
1.07092E-11 1.08806E-10
1.21847E-11 1.08718E-10
1.37554E-11 1.08624E-10
1.54213E-11 1.08525E-10
1.71823E-11 1.08420E-10
1.90386E-11 1.08309E-10
2.09900E-11 1.08193E-10
2.30367E-11 1.08072E-10
2.51785E-11 1.07946E-10
2.74156E-11 1.07813E-10
2.97478E-11 1.07676E-10
3.21752E-11 1.07533E-10
3.46979E-11 1.07385E-10
3.73157E-11 1.07232E-10
4.00286E-11 1.07073E-10
4.28368E-11 1.06909E-10
4.57402E-11 1.06740E-10
4.87388E-11 1.06566E-10
5.18325E-11 1.06387E-10
5.50215E-11 1.06203E-10
5.83057E-11 1.06014E-10
6.16850E-11 1.05820E-10
6.51595E-11 1.05620E-10
6.87293E-11 1.05417E-10
7.23943E-11 1.05208E-10
7.61544E-11 1.04994E-10
1.18991E-10 1.02591E-10
1.71347E-10 9.97721E-11
2.33223E-10 9.65872E-11
3.04617E-10 9.30973E-11
3.85531E-10 8.93654E-11
4.75965E-10 8.54536E-11
5.75917E-10 8.14214E-11
6.85389E-10 7.73243E-11
8.04380E-10 7.32031E-11
9.32891E-10 6.90999E-11
1.07092E-09 6.50672E-11
1.21847E-09 6.11378E-11
1.37554E-09 5.73383E-11
1.54213E-09 5.36888E-11
1.71823E-09 5.02043E-11
1.90386E-09 4.68946E-11
2.09900E-09 4.37654E-11
2.30367E-09 4.08188E-11
2.51785E-09 3.80538E-11
2.74156E-09 3.54673E-11
2.97478E-09 3.30540E-11
3.21752E-09 3.08019E-11
3.46978E-09 2.87097E-11
3.73156E-09 2.67699E-11
4.00286E-09 2.49734E-11
4.28368E-09 2.33114E-11
4.57402E-09 2.17747E-11
4.87388E-09 2.03547E-11
5.18326E-09 1.90427E-11
5.50215E-09 1.78308E-11
5.83057E-09 1.67111E-11
6.16850E-09 1.56764E-11
6.51596E-09 1.47200E-11
6.87293E-09 1.38351E-11
7.23942E-09 1.30155E-11
7.61544E-09 1.22567E-11
1.18991E-08 7.02268E-12
1.71347E-08 4.38439E-12
2.33223E-08 2.88371E-12
3.04617E-08 1.96540E-12
3.85531E-08 1.37605E-12
4.75965E-08 9.86268E-13
5.75917E-08 7.22885E-13
6.85389E-08 5.41533E-13
8.04380E-08 4.14182E-13
9.32891E-08 3.22991E-13
1.07092E-07 2.56373E-13
1.21847E-07 2.06669E-13
1.37554E-07 1.68841E-13
1.54213E-07 1.39525E-13
1.71823E-07 1.16433E-13
1.90386E-07 9.79818E-14
2.09900E-07 8.30637E-14
2.30367E-07 7.08666E-14
2.51785E-07 6.07741E-14
2.74156E-07 5.23906E-14
2.97478E-07 4.53817E-14
3.21752E-07 3.94799E-14
3.46978E-07 3.44888E-14
3.73156E-07 3.02468E-14
4.00286E-07 2.66242E-14
4.28368E-07 2.35175E-14
4.57402E-07 2.08430E-14
4.87388E-07 1.85328E-14
5.18325E-07 1.65307E-14
5.50215E-07 1.47904E-14
5.83057E-07 1.32728E-14
6.16850E-07 1.19451E-14
6.51596E-07 1.07799E-14
6.87293E-07 9.75378E-15
7.23942E-07 8.84710E-15
7.61543E-07 8.04376E-15
1.18991E-06 3.46649E-15
1.71347E-06 1.73778E-15
2.33223E-06 9.64859E-16
3.04617E-06 5.77063E-16
3.85531E-06 3.65588E-16
4.75964E-06 2.42511E-16
5.75916E-06 1.67032E-16
6.85388E-06 1.18738E-16
8.04378E-06 8.66969E-17
9.32888E-06 6.47692E-17
1.07092E-05 4.93588E-17
1.21846E-05 3.82742E-17
1.37553E-05 3.01360E-17
1.54212E-05 2.40520E-17
1.71822E-05 1.94301E-17
1.90385E-05 1.58626E-17
2.09899E-05 1.30870E-17
2.30365E-05 1.08922E-17
2.51783E-05 9.13754E-18
2.74153E-05 7.72124E-18
2.97475E-05 6.56848E-18
3.21749E-05 5.62305E-18
3.46974E-05 4.84207E-18
3.73152E-05 4.19250E-18
4.00281E-05 3.64861E-18
4.28362E-05 3.19027E-18
4.57395E-05 2.80168E-18
4.87380E-05 2.47040E-18
5.18317E-05 2.18655E-18
5.50205E-05 1.94222E-18
5.83045E-05 1.73105E-18
6.16838E-05 1.54783E-18
6.51582E-05 1.38825E-18
6.87277E-05 1.24876E-18
7.23925E-05 1.12638E-18
7.61524E-05 1.01895E-18
9.21439E-05 6.97726E-19
1.09658E-04 4.93676E-19
1.28695E-04 3.59106E-19
1.49255E-04 2.67412E-19
1.71338E-04 2.03230E-19
1.94942E-04 1.57204E-19
2.20070E-04 1.23511E-19
2.46720E-04 9.83876E-20
2.74892E-04 7.93440E-20
3.04586E-04 6.46990E-20
3.35803E-04 5.32852E-20
3.68542E-04 4.42846E-20
4.02802E-04 3.71091E-20
4.38585E-04 3.13319E-20
4.75889E-04 2.66384E-20
5.14715E-04 2.27931E-20
5.55063E-04 1.96186E-20
5.96931E-04 1.69790E-20
6.40321E-04 1.47697E-20
6.85233E-04 1.29092E-20
7.31665E-04 1.13332E-20
7.79618E-04 9.99108E-21
8.29092E-04 8.84237E-21
8.80086E-04 7.85455E-21
9.32601E-04 7.00124E-21
9.86636E-04 6.26103E-21
1.04219E-03 5.61640E-21
1.09927E-03 5.05288E-21
1.15786E-03 4.55850E-21
1.21797E-03 4.12332E-21
1.27961E-03 3.73902E-21
1.34276E-03 3.39861E-21
1.40743E-03 3.09620E-21
1.47362E-03 2.82681E-21
1.54133E-03 2.58620E-21
1.61056E-03 2.37073E-21
1.68131E-03 2.17733E-21
1.75357E-03 2.00333E-21
1.82735E-03 1.84644E-21
1.90265E-03 1.70466E-21
1.97947E-03 1.57629E-21
2.05780E-03 1.45983E-21
2.13765E-03 1.35397E-21
2.21902E-03 1.25758E-21
2.30190E-03 1.16965E-21
2.38630E-03 1.08930E-21
2.47222E-03 1.01576E-21
2.55965E-03 9.48360E-22
2.64859E-03 8.86480E-22
2.73905E-03 8.29586E-22
2.83103E-03 7.77206E-22
2.92452E-03 7.28915E-22
3.01952E-03 6.84334E-22
3.11604E-03 6.43124E-22
3.21407E-03 6.04986E-22
3.31362E-03 5.69647E-22
3.41468E-03 5.36862E-22
3.51725E-03 5.06414E-22
3.62133E-03 4.78106E-22
3.72692E-03 4.51755E-22
3.83403E-03 4.27205E-22
3.94265E-03 4.04311E-22
4.05278E-03 3.82933E-22
4.16442E-03 3.62960E-22
4.27757E-03 3.44278E-22
4.39223E-03 3.26787E-22
4.50840E-03 3.10400E-22
4.62608E-03 2.95032E-22
4.74527E-03 2.80608E-22
4.86597E-03 2.67060E-22
4.98817E-03 2.54323E-22
5.11188E-03 2.42340E-22
5.23711E-03 2.31058E-22
5.36383E-03 2.20429E-22
5.49207E-03 2.10406E-22
5.62181E-03 2.00950E-22
5.75306E-03 1.92022E-22
5.88581E-03 1.83586E-22
6.02007E-03 1.75611E-22
6.15583E-03 1.68066E-22
6.29310E-03 1.60924E-22
6.43187E-03 1.54160E-22
6.57214E-03 1.47748E-22
6.71392E-03 1.41669E-22
6.85720E-03 1.35900E-22
7.00198E-03 1.30423E-22
7.14827E-03 1.25221E-22
7.29605E-03 1.20276E-22
7.44534E-03 1.15574E-22
7.59612E-03 1.11101E-22
7.97965E-03 1.00833E-22
8.37255E-03 9.17296E-23
8.77480E-03 8.36335E-23
9.18641E-03 7.64143E-23
9.60736E-03 6.99602E-23
1.00376E-02 6.41755E-23
1.04773E-02 5.89783E-23
1.09262E-02 5.42982E-23
1.13844E-02 5.00744E-23
1.18520E-02 4.62544E-23
1.23288E-02 4.27925E-23
1.28150E-02 3.96491E-23
1.33104E-02 3.67895E-23
1.38150E-02 3.41834E-23
1.43290E-02 3.18043E-23
1.48521E-02 2.96286E-23
1.53845E-02 2.76359E-23
1.59262E-02 2.58079E-23
1.64770E-02 2.41285E-23
1.70371E-02 2.25833E-23
1.76063E-02 2.11597E-23
1.81848E-02 1.98463E-23
1.87724E-02 1.86331E-23
1.93692E-02 1.75109E-23
1.99751E-02 1.64716E-23
2.05901E-02 1.55081E-23
2.12143E-02 1.46137E-23
2.18476E-02 1.37825E-23
2.24900E-02 1.30094E-23
2.31415E-02 1.22893E-23
2.38021E-02 1.16181E-23
2.44717E-02 1.09918E-23
2.51504E-02 1.04069E-23
2.58382E-02 9.86003E-24
2.65349E-02 9.34832E-24
2.72407E-02 8.86909E-24
2.79555E-02 8.41989E-24
2.86793E-02 7.99848E-24
2.94120E-02 7.60283E-24
3.01537E-02 7.23107E-24
3.09043E-02 6.88148E-24
3.16639E-02 6.55250E-24
3.24324E-02 6.24269E-24
3.32098E-02 5.95073E-24
3.39961E-02 5.67538E-24
3.47912E-02 5.41554E-24
3.55952E-02 5.17017E-24
3.64081E-02 4.93831E-24
3.72297E-02 4.71907E-24
3.80602E-02 4.51166E-24
3.88995E-02 4.31530E-24
3.97476E-02 4.12930E-24
4.06044E-02 3.95302E-24
4.14700E-02 3.78585E-24
4.23443E-02 3.62723E-24
4.32273E-02 3.47666E-24
4.41190E-02 3.33363E-24
4.50194E-02 3.19771E-24
4.59284E-02 3.06848E-24
4.68461E-02 2.94555E-24
4.87074E-02 2.71715E-24
5.06030E-02 2.50990E-24
5.25328E-02 2.32149E-24
5.44967E-02 2.14992E-24
5.64946E-02 1.99344E-24
5.85262E-02 1.85048E-24
6.05914E-02 1.71967E-24
6.26901E-02 1.59982E-24
6.48222E-02 1.48985E-24
6.69873E-02 1.38880E-24
6.91854E-02 1.29584E-24
7.14163E-02 1.21020E-24
7.36799E-02 1.13122E-24
7.59760E-02 1.05828E-24
7.83043E-02 9.90862E-25
8.06647E-02 9.28468E-25
8.30571E-02 8.70664E-25
8.54812E-02 8.17058E-25
8.79369E-02 7.67297E-25
9.04240E-02 7.21060E-25
9.29422E-02 6.78057E-25
9.54915E-02 6.38028E-25
9.80716E-02 6.00733E-25
1.00682E-01 5.65957E-25
1.03323E-01 5.33503E-25
1.05995E-01 5.03192E-25
1.08696E-01 4.74861E-25
1.11427E-01 4.48361E-25
1.14188E-01 4.23556E-25
1.16978E-01 4.00321E-25
1.19797E-01 3.78541E-25
1.22645E-01 3.58113E-25
1.25522E-01 3.38940E-25
1.28428E-01 3.20934E-25
1.31361E-01 3.04013E-25
1.34323E-01 2.88103E-25
1.37313E-01 2.73134E-25
1.40330E-01 2.59044E-25
1.43375E-01 2.45773E-25
1.46447E-01 2.33268E-25
1.49545E-01 2.21478E-25
1.52671E-01 2.10356E-25
1.55823E-01 1.99860E-25
1.59001E-01 1.89949E-25
1.62205E-01 1.80588E-25
1.65435E-01 1.71741E-25
1.68690E-01 1.63376E-25
1.71970E-01 1.55464E-25
1.75276E-01 1.47977E-25
1.78606E-01 1.40890E-25
1.81961E-01 1.34179E-25
1.85340E-01 1.27821E-25
1.88743E-01 1.21795E-25
1.92169E-01 1.16082E-25
1.95619E-01 1.10664E-25
1.99092E-01 1.05523E-25
2.02589E-01 1.00645E-25
2.06107E-01 9.60133E-26
2.09649E-01 9.16149E-26
2.13212E-01 8.74366E-26
2.16797E-01 8.34661E-26
2.20404E-01 7.96920E-26
2.24032E-01 7.61036E-26
2.27680E-01 7.26906E-26
2.31350E-01 6.94437E-26
2.35040E-01 6.63540E-26
2.38751E-01 6.34130E-26
2.42481E-01 6.06128E-26
2.46231E-01 5.79461E-26
2.50000E-01 5.54059E-26
2.53788E-01 5.29856E-26
2.57595E-01 5.06790E-26
2.61421E-01 4.84802E-26
2.65264E-01 4.63837E-26
2.69126E-01 4.43845E-26
2.73005E-01 4.24774E-26
2.76901E-01 4.06579E-26
2.80814E-01 3.89217E-26
2.84744E-01 3.72646E-26
2.88691E-01 3.56826E-26
2.92653E-01 3.41721E-26
2.96632E-01 3.27297E-26
3.00625E-01 3.13519E-26
3.04634E-01 3.00356E-26
3.08658E-01 2.87779E-26
3.12697E-01 2.75760E-26
3.16749E-01 2.64272E-26
3.20816E-01 2.53290E-26
3.24896E-01 2.42790E-26
3.28990E-01 2.32750E-26
3.33097E-01 2.23146E-26
3.37216E-01 2.13961E-26
3.41348E-01 2.05173E-26
3.45492E-01 1.96764E-26
3.49647E-01 1.88718E-26
3.53814E-01 1.81017E-26
3.57992E-01 1.73645E-26
3.62181E-01 1.66589E-26
3.66381E-01 1.59832E-26
3.70590E-01 1.53362E-26
3.74810E-01 1.47166E-26
3.79039E-01 1.41232E-26
3.83277E-01 1.35548E-26
3.87524E-01 1.30102E-26
3.91780E-01 1.24884E-26
3.96044E-01 1.19885E-26
4.00316E-01 1.15093E-26
4.04596E-01 1.10502E-26
4.08882E-01 1.06100E-26
4.13176E-01 1.01881E-26
4.17476E-01 9.78363E-27
4.21783E-01 9.39583E-27
4.26095E-01 9.02397E-27
4.30413E-01 8.66738E-27
4.34737E-01 8.32540E-27
4.39065E-01 7.99740E-27
4.43398E-01 7.68278E-27
4.47736E-01 7.38097E-27
4.52077E-01 7.09143E-27
4.56422E-01 6.81363E-27
4.60770E-01 6.54709E-27
4.65122E-01 6.29132E-27
4.69476E-01 6.04587E-27
4.73832E-01 5.81031E-27
4.78190E-01 5.58422E-27
4.82550E-01 5.36721E-27
4.86912E-01 5.15889E-27
4.91274E-01 4.95891E-27
4.95637E-01 4.76693E-27
5.00000E-01 4.58260E-27
5.04363E-01 4.40561E-27
5.08726E-01 4.23566E-27
5.13088E-01 4.07246E-27
5.17450E-01 3.91573E-27
5.21810E-01 3.76521E-27
5.26168E-01 3.62064E-27
5.30524E-01 3.48178E-27
5.34878E-01 3.34840E-27
5.39230E-01 3.22027E-27
5.43578E-01 3.09718E-27
5.47923E-01 2.97892E-27
5.52264E-01 2.86530E-27
5.56602E-01 2.75613E-27
5.60935E-01 2.65124E-27
5.65263E-01 2.55044E-27
5.69587E-01 2.45358E-27
5.73905E-01 2.36050E-27
5.78217E-01 2.27104E-27
5.82524E-01 2.18506E-27
5.86824E-01 2.10242E-27
5.91118E-01 2.02299E-27
5.95404E-01 1.94663E-27
5.99684E-01 1.87323E-27
6.03956E-01 1.80267E-27
6.08220E-01 1.73484E-27
6.12476E-01 1.66962E-27
6.16723E-01 1.60692E-27
6.20961E-01 1.54663E-27
6.25190E-01 1.48866E-27
6.29410E-01 1.43291E-27
6.33619E-01 1.37931E-27
6.37819E-01 1.32776E-27
6.42008E-01 1.27818E-27
6.46186E-01 1.23050E-27
6.50353E-01 1.18464E-27
6.54508E-01 1.14053E-27
6.58652E-01 1.09811E-27
6.62784E-01 1.05730E-27
6.66903E-01 1.01804E-27
6.71010E-01 9.80271E-28
6.75104E-01 9.43938E-28
6.79184E-01 9.08982E-28
6.83251E-01 8.75349E-28
6.87303E-01 8.42989E-28
6.91342E-01 8.11852E-28
6.95366E-01 7.81890E-28
6.99375E-01 7.53058E-28
7.03368E-01 7.25311E-28
7.07347E-01 6.98608E-28
7.11309E-01 6.72908E-28
7.15256E-01 6.48172E-28
7.19186E-01 6.24363E-28
7.23099E-01 6.01446E-28
7.26995E-01 5.79385E-28
7.30874E-01 5.58148E-28
7.34736E-01 5.37703E-28
7.38579E-01 5.18020E-28
7.42405E-01 4.99068E-28
7.46212E-01 4.80821E-28
7.50000E-01 4.63250E-28
7.53769E-01 4.46331E-28
7.57519E-01 4.30037E-28
7.61249E-01 4.14346E-28
7.64960E-01 3.99233E-28
7.68650E-01 3.84678E-28
7.72320E-01 3.70657E-28
7.75968E-01 3.57152E-28
7.79596E-01 3.44142E-28
7.83203E-01 3.31609E-28
7.86788E-01 3.19534E-28
7.90351E-01 3.07900E-28
7.93893E-01 2.96690E-28
7.97411E-01 2.85889E-28
8.00908E-01 2.75479E-28
8.04381E-01 2.65448E-28
8.07831E-01 2.55779E-28
8.11257E-01 2.46461E-28
8.14660E-01 2.37479E-28
8.18039E-01 2.28820E-28
8.21394E-01 2.20473E-28
8.24724E-01 2.12426E-28
8.28030E-01 2.04667E-28
8.31310E-01 1.97186E-28
8.34565E-01 1.89973E-28
8.37795E-01 1.83016E-28
8.40999E-01 1.76307E-28
8.44177E-01 1.69836E-28
8.47329E-01 1.63595E-28
8.50455E-01 1.57575E-28
8.53553E-01 1.51767E-28
8.56625E-01 1.46165E-28
8.59670E-01 1.40759E-28
8.62687E-01 1.35544E-28
8.65677E-01 1.30511E-28
8.68639E-01 1.25654E-28
8.71572E-01 1.20967E-28
8.74478E-01 1.16444E-28
8.77355E-01 1.12078E-28
8.80203E-01 1.07863E-28
8.83022E-01 1.03795E-28
8.85812E-01 9.98675E-29
8.88573E-01 9.60758E-29
8.91304E-01 9.24149E-29
8.94005E-01 8.88801E-29
8.96677E-01 8.54667E-29
8.99318E-01 8.21706E-29
9.01928E-01 7.89874E-29
9.04508E-01 7.59132E-29
9.07058E-01 7.29440E-29
9.09576E-01 7.00762E-29
9.12063E-01 6.73061E-29
9.14519E-01 6.46304E-29
9.16943E-01 6.20457E-29
9.19335E-01 5.95488E-29
9.21696E-01 5.71366E-29
9.24024E-01 5.48064E-29
9.26320E-01 5.25551E-29
9.28584E-01 5.03802E-29
9.30815E-01 4.82790E-29
9.33013E-01 4.62490E-29
9.35178E-01 4.42878E-29
9.37310E-01 4.23931E-29
9.39409E-01 4.05627E-29
9.41474E-01 3.87944E-29
9.43505E-01 3.70862E-29
9.45503E-01 3.54362E-29
9.47467E-01 3.38424E-29
9.49397E-01 3.23031E-29
9.51293E-01 3.08165E-29
9.53154E-01 2.93809E-29
9.54981E-01 2.79947E-29
9.56773E-01 2.66564E-29
9.58530E-01 2.53645E-29
9.60252E-01 2.41176E-29
9.61940E-01 2.29144E-29
9.63592E-01 2.17534E-29
9.65209E-01 2.06336E-29
9.66790E-01 1.95536E-29
9.68336E-01 1.85123E-29
9.69846E-01 1.75086E-29
9.71321E-01 1.65416E-29
9.72759E-01 1.56100E-29
9.74162E-01 1.47131E-29
9.75528E-01 1.38498E-29
9.76858E-01 1.30193E-29
9.78152E-01 1.22206E-29
9.79410E-01 1.14531E-29
9.80631E-01 1.07160E-29
9.81815E-01 1.00084E-29
9.82963E-01 9.32965E-30
9.84074E-01 8.67915E-30
9.85148E-01 8.05620E-30
9.86185E-01 7.46019E-30
9.87185E-01 6.89055E-30
9.88148E-01 6.34671E-30
9.89074E-01 5.82815E-30
9.89962E-01 5.33437E-30
9.90814E-01 4.86489E-30
9.91627E-01 4.41926E-30
9.92404E-01 3.99706E-30
9.93143E-01 3.59788E-30
9.93844E-01 3.22136E-30
9.94508E-01 2.86712E-30
9.95134E-01 2.53485E-30
9.95722E-01 2.22422E-30
9.96273E-01 1.93496E-30
9.96786E-01 1.66678E-30
9.97261E-01 1.41945E-30
9.97698E-01 1.19273E-30
9.98097E-01 9.86419E-31
9.98459E-01 8.00319E-31
9.98782E-01 6.34262E-31
9.99067E-01 4.88096E-31
9.99315E-01 3.61688E-31
9.99524E-01 2.54922E-31
9.99695E-01 1.67700E-31
9.99829E-01 9.99424E-32
9.99924E-01 5.15884E-32
9.99981E-01 2.25936E-32
1.00000E+00 1.29318E-32
