 #
 # Subroutine ELSEPA. Elastic scattering of electrons and positrons
 #                    by neutral atoms and positive ions
 #
 # Projectile: electron
 # Kinetic energy = 6.00000E+07 eV = 2.20496E+06 a.u.
 #
 # WARNING: High-energy factorization with free-atom DF screening.
 #          Absorption, polarization and exchange corrections are
 #          switched off.
 #          Phase shifts are calculated for the bare nucleus.
 #          Scattering amplitudes are not evaluated.
 #
 # Element: Xe,  Z =  54,  atomic weight = 1.31290E+02 g/mol
 #
 # Nuclear model: Fermi distribution
 #                Average radius = 5.43827E-13 cm
 #                Skin thickness = 5.46000E-14 cm
 #
 # Number of electrons = 54
 #
 # Total elastic cross section = 5.86977E-18 cm**2 = 2.09613E-01 a0**2
 # 1st transport cross section = 1.56477E-24 cm**2 = 5.58791E-08 a0**2
 # 2nd transport cross section = 4.61099E-24 cm**2 = 1.64661E-07 a0**2
 #
 #
 # Differential cross section:                       MU=(1-COS(THETA))/2
 #
 #  THETA        MU          DCS          DCS        Sherman      error
 #  (deg)                 (cm**2/sr)   (a0**2/sr)    function
 #----------------------------------------------------------------------
0.00000E+00 1.57078E-10
7.61557E-13 1.56982E-10
1.18994E-12 1.56929E-10
1.71346E-12 1.56864E-10
2.33225E-12 1.56787E-10
3.04617E-12 1.56698E-10
3.85530E-12 1.56598E-10
4.75964E-12 1.56486E-10
5.75917E-12 1.56363E-10
6.85391E-12 1.56227E-10
8.04379E-12 1.56081E-10
9.32893E-12 1.55923E-10
1.07092E-11 1.55753E-10
1.21847E-11 1.55572E-10
1.37554E-11 1.55380E-10
1.54213E-11 1.55176E-10
1.71823E-11 1.54962E-10
1.90386E-11 1.54736E-10
2.09900E-11 1.54499E-10
2.30367E-11 1.54251E-10
2.51785E-11 1.53992E-10
2.74156E-11 1.53723E-10
2.97478E-11 1.53443E-10
3.21752E-11 1.53152E-10
3.46979E-11 1.52850E-10
3.73157E-11 1.52538E-10
4.00286E-11 1.52216E-10
4.28368E-11 1.51884E-10
4.57402E-11 1.51541E-10
4.87388E-11 1.51188E-10
5.18325E-11 1.50826E-10
5.50215E-11 1.50453E-10
5.83057E-11 1.50071E-10
6.16850E-11 1.49679E-10
6.51595E-11 1.49272E-10
6.87293E-11 1.48855E-10
7.23943E-11 1.48431E-10
7.61544E-11 1.47999E-10
1.18991E-10 1.43231E-10
1.71347E-10 1.37708E-10
2.33223E-10 1.31582E-10
3.04617E-10 1.25007E-10
3.85531E-10 1.18135E-10
4.75965E-10 1.11094E-10
5.75917E-10 1.03990E-10
6.85389E-10 9.69669E-11
8.04380E-10 9.01159E-11
9.32891E-10 8.35102E-11
1.07092E-09 7.72046E-11
1.21847E-09 7.12373E-11
1.37554E-09 6.56319E-11
1.54213E-09 6.04000E-11
1.71823E-09 5.55431E-11
1.90386E-09 5.10470E-11
2.09900E-09 4.69038E-11
2.30367E-09 4.31051E-11
2.51785E-09 3.96309E-11
2.74156E-09 3.64599E-11
2.97478E-09 3.35699E-11
3.21752E-09 3.09388E-11
3.46978E-09 2.85450E-11
3.73156E-09 2.63679E-11
4.00286E-09 2.43879E-11
4.28368E-09 2.25844E-11
4.57402E-09 2.09429E-11
4.87388E-09 1.94483E-11
5.18326E-09 1.80862E-11
5.50215E-09 1.68435E-11
5.83057E-09 1.57083E-11
6.16850E-09 1.46701E-11
6.51596E-09 1.36840E-11
6.87293E-09 1.27776E-11
7.23942E-09 1.19574E-11
7.61544E-09 1.12135E-11
1.18991E-08 6.32003E-12
1.71347E-08 3.84188E-12
2.33223E-08 2.45095E-12
3.04617E-08 1.62145E-12
3.85531E-08 1.10829E-12
4.75965E-08 7.81562E-13
5.75917E-08 5.67781E-13
6.85389E-08 4.24095E-13
8.04380E-08 3.24515E-13
9.32891E-08 2.53449E-13
1.07092E-07 2.01349E-13
1.21847E-07 1.62236E-13
1.37554E-07 1.32266E-13
1.54213E-07 1.08937E-13
1.71823E-07 9.04359E-14
1.90386E-07 7.56286E-14
2.09900E-07 6.36796E-14
2.30367E-07 5.39628E-14
2.51785E-07 4.59975E-14
2.74156E-07 3.94207E-14
2.97478E-07 3.39557E-14
3.21752E-07 2.93895E-14
3.46978E-07 2.55556E-14
3.73156E-07 2.23217E-14
4.00286E-07 1.95819E-14
4.28368E-07 1.72492E-14
4.57402E-07 1.52546E-14
4.87388E-07 1.35412E-14
5.18325E-07 1.20627E-14
5.50215E-07 1.07813E-14
5.83057E-07 9.66640E-15
6.16850E-07 8.69285E-15
6.51596E-07 7.83743E-15
6.87293E-07 7.08634E-15
7.23942E-07 6.42582E-15
7.61543E-07 5.84232E-15
1.18991E-06 2.50939E-15
1.71347E-06 1.25041E-15
2.33223E-06 6.90036E-16
3.04617E-06 4.10688E-16
3.85531E-06 2.59191E-16
4.75964E-06 1.71470E-16
5.75916E-06 1.17899E-16
6.85388E-06 8.37104E-17
8.04378E-06 6.10680E-17
9.32888E-06 4.55940E-17
1.07092E-05 3.47289E-17
1.21846E-05 2.69183E-17
1.37553E-05 2.11866E-17
1.54212E-05 1.69033E-17
1.71822E-05 1.36503E-17
1.90385E-05 1.11403E-17
2.09899E-05 9.18797E-18
2.30365E-05 7.64453E-18
2.51783E-05 6.41095E-18
2.74153E-05 5.41558E-18
2.97475E-05 4.60566E-18
3.21749E-05 3.94156E-18
3.46974E-05 3.39316E-18
3.73152E-05 2.93717E-18
4.00281E-05 2.55546E-18
4.28362E-05 2.23389E-18
4.57395E-05 1.96133E-18
4.87380E-05 1.72902E-18
5.18317E-05 1.53003E-18
5.50205E-05 1.35879E-18
5.83045E-05 1.21082E-18
6.16838E-05 1.08247E-18
6.51582E-05 9.70699E-19
6.87277E-05 8.73023E-19
7.23925E-05 7.87349E-19
7.61524E-05 7.12223E-19
9.21439E-05 4.87461E-19
1.09658E-04 3.44772E-19
1.28695E-04 2.50716E-19
1.49255E-04 1.86654E-19
1.71338E-04 1.41828E-19
1.94942E-04 1.09691E-19
2.20070E-04 8.61708E-20
2.46720E-04 6.86363E-20
2.74892E-04 5.53470E-20
3.04586E-04 4.51284E-20
3.35803E-04 3.71653E-20
3.68542E-04 3.08863E-20
4.02802E-04 2.58810E-20
4.38585E-04 2.18512E-20
4.75889E-04 1.85776E-20
5.14715E-04 1.58956E-20
5.55063E-04 1.36816E-20
5.96931E-04 1.18408E-20
6.40321E-04 1.03000E-20
6.85233E-04 9.00242E-21
7.31665E-04 7.90337E-21
7.79618E-04 6.96744E-21
8.29092E-04 6.16636E-21
8.80086E-04 5.47748E-21
9.32601E-04 4.88242E-21
9.86636E-04 4.36622E-21
1.04219E-03 3.91668E-21
1.09927E-03 3.52370E-21
1.15786E-03 3.17893E-21
1.21797E-03 2.87545E-21
1.27961E-03 2.60744E-21
1.34276E-03 2.37004E-21
1.40743E-03 2.15915E-21
1.47362E-03 1.97128E-21
1.54133E-03 1.80347E-21
1.61056E-03 1.65321E-21
1.68131E-03 1.51832E-21
1.75357E-03 1.39697E-21
1.82735E-03 1.28755E-21
1.90265E-03 1.18867E-21
1.97947E-03 1.09914E-21
2.05780E-03 1.01791E-21
2.13765E-03 9.44081E-22
2.21902E-03 8.76850E-22
2.30190E-03 8.15522E-22
2.38630E-03 7.59481E-22
2.47222E-03 7.08195E-22
2.55965E-03 6.61181E-22
2.64859E-03 6.18018E-22
2.73905E-03 5.78339E-22
2.83103E-03 5.41801E-22
2.92452E-03 5.08120E-22
3.01952E-03 4.77023E-22
3.11604E-03 4.48281E-22
3.21407E-03 4.21679E-22
3.31362E-03 3.97029E-22
3.41468E-03 3.74163E-22
3.51725E-03 3.52925E-22
3.62133E-03 3.33179E-22
3.72692E-03 3.14800E-22
3.83403E-03 2.97676E-22
3.94265E-03 2.81706E-22
4.05278E-03 2.66797E-22
4.16442E-03 2.52865E-22
4.27757E-03 2.39834E-22
4.39223E-03 2.27635E-22
4.50840E-03 2.16205E-22
4.62608E-03 2.05486E-22
4.74527E-03 1.95426E-22
4.86597E-03 1.85977E-22
4.98817E-03 1.77093E-22
5.11188E-03 1.68736E-22
5.23711E-03 1.60868E-22
5.36383E-03 1.53454E-22
5.49207E-03 1.46465E-22
5.62181E-03 1.39870E-22
5.75306E-03 1.33644E-22
5.88581E-03 1.27761E-22
6.02007E-03 1.22199E-22
6.15583E-03 1.16937E-22
6.29310E-03 1.11956E-22
6.43187E-03 1.07239E-22
6.57214E-03 1.02768E-22
6.71392E-03 9.85280E-23
6.85720E-03 9.45052E-23
7.00198E-03 9.06862E-23
7.14827E-03 8.70586E-23
7.29605E-03 8.36111E-23
7.44534E-03 8.03329E-23
7.59612E-03 7.72141E-23
7.97965E-03 7.00556E-23
8.37255E-03 6.37091E-23
8.77480E-03 5.80661E-23
9.18641E-03 5.30349E-23
9.60736E-03 4.85374E-23
1.00376E-02 4.45068E-23
1.04773E-02 4.08861E-23
1.09262E-02 3.76259E-23
1.13844E-02 3.46841E-23
1.18520E-02 3.20239E-23
1.23288E-02 2.96135E-23
1.28150E-02 2.74251E-23
1.33104E-02 2.54347E-23
1.38150E-02 2.36211E-23
1.43290E-02 2.19657E-23
1.48521E-02 2.04523E-23
1.53845E-02 1.90663E-23
1.59262E-02 1.77952E-23
1.64770E-02 1.66276E-23
1.70371E-02 1.55537E-23
1.76063E-02 1.45645E-23
1.81848E-02 1.36521E-23
1.87724E-02 1.28094E-23
1.93692E-02 1.20302E-23
1.99751E-02 1.13088E-23
2.05901E-02 1.06402E-23
2.12143E-02 1.00197E-23
2.18476E-02 9.44324E-24
2.24900E-02 8.90716E-24
2.31415E-02 8.40810E-24
2.38021E-02 7.94304E-24
2.44717E-02 7.50923E-24
2.51504E-02 7.10419E-24
2.58382E-02 6.72567E-24
2.65349E-02 6.37160E-24
2.72407E-02 6.04013E-24
2.79555E-02 5.72955E-24
2.86793E-02 5.43829E-24
2.94120E-02 5.16495E-24
3.01537E-02 4.90821E-24
3.09043E-02 4.66689E-24
3.16639E-02 4.43989E-24
3.24324E-02 4.22621E-24
3.32098E-02 4.02492E-24
3.39961E-02 3.83518E-24
3.47912E-02 3.65621E-24
3.55952E-02 3.48727E-24
3.64081E-02 3.32772E-24
3.72297E-02 3.17693E-24
3.80602E-02 3.03433E-24
3.88995E-02 2.89941E-24
3.97476E-02 2.77167E-24
4.06044E-02 2.65067E-24
4.14700E-02 2.53598E-24
4.23443E-02 2.42722E-24
4.32273E-02 2.32403E-24
4.41190E-02 2.22606E-24
4.50194E-02 2.13302E-24
4.59284E-02 2.04461E-24
4.68461E-02 1.96055E-24
4.87074E-02 1.80452E-24
5.06030E-02 1.66311E-24
5.25328E-02 1.53472E-24
5.44967E-02 1.41795E-24
5.64946E-02 1.31159E-24
5.85262E-02 1.21456E-24
6.05914E-02 1.12590E-24
6.26901E-02 1.04478E-24
6.48222E-02 9.70455E-25
6.69873E-02 9.02269E-25
6.91854E-02 8.39632E-25
7.14163E-02 7.82024E-25
7.36799E-02 7.28978E-25
7.59760E-02 6.80077E-25
7.83043E-02 6.34948E-25
8.06647E-02 5.93256E-25
8.30571E-02 5.54699E-25
8.54812E-02 5.19008E-25
8.79369E-02 4.85937E-25
9.04240E-02 4.55266E-25
9.29422E-02 4.26796E-25
9.54915E-02 4.00346E-25
9.80716E-02 3.75752E-25
1.00682E-01 3.52865E-25
1.03323E-01 3.31551E-25
1.05995E-01 3.11686E-25
1.08696E-01 2.93159E-25
1.11427E-01 2.75867E-25
1.14188E-01 2.59716E-25
1.16978E-01 2.44622E-25
1.19797E-01 2.30507E-25
1.22645E-01 2.17298E-25
1.25522E-01 2.04930E-25
1.28428E-01 1.93342E-25
1.31361E-01 1.82480E-25
1.34323E-01 1.72292E-25
1.37313E-01 1.62732E-25
1.40330E-01 1.53755E-25
1.43375E-01 1.45323E-25
1.46447E-01 1.37397E-25
1.49545E-01 1.29945E-25
1.52671E-01 1.22935E-25
1.55823E-01 1.16338E-25
1.59001E-01 1.10126E-25
1.62205E-01 1.04275E-25
1.65435E-01 9.87609E-26
1.68690E-01 9.35631E-26
1.71970E-01 8.86612E-26
1.75276E-01 8.40368E-26
1.78606E-01 7.96724E-26
1.81961E-01 7.55521E-26
1.85340E-01 7.16608E-26
1.88743E-01 6.79846E-26
1.92169E-01 6.45105E-26
1.95619E-01 6.12263E-26
1.99092E-01 5.81208E-26
2.02589E-01 5.51832E-26
2.06107E-01 5.24038E-26
2.09649E-01 4.97733E-26
2.13212E-01 4.72830E-26
2.16797E-01 4.49248E-26
2.20404E-01 4.26912E-26
2.24032E-01 4.05750E-26
2.27680E-01 3.85697E-26
2.31350E-01 3.66688E-26
2.35040E-01 3.48666E-26
2.38751E-01 3.31576E-26
2.42481E-01 3.15366E-26
2.46231E-01 2.99988E-26
2.50000E-01 2.85395E-26
2.53788E-01 2.71546E-26
2.57595E-01 2.58399E-26
2.61421E-01 2.45917E-26
2.65264E-01 2.34063E-26
2.69126E-01 2.22806E-26
2.73005E-01 2.12111E-26
2.76901E-01 2.01950E-26
2.80814E-01 1.92295E-26
2.84744E-01 1.83119E-26
2.88691E-01 1.74396E-26
2.92653E-01 1.66104E-26
2.96632E-01 1.58219E-26
3.00625E-01 1.50722E-26
3.04634E-01 1.43591E-26
3.08658E-01 1.36808E-26
3.12697E-01 1.30355E-26
3.16749E-01 1.24216E-26
3.20816E-01 1.18374E-26
3.24896E-01 1.12815E-26
3.28990E-01 1.07524E-26
3.33097E-01 1.02488E-26
3.37216E-01 9.76932E-27
3.41348E-01 9.31287E-27
3.45492E-01 8.87826E-27
3.49647E-01 8.46441E-27
3.53814E-01 8.07030E-27
3.57992E-01 7.69495E-27
3.62181E-01 7.33743E-27
3.66381E-01 6.99687E-27
3.70590E-01 6.67245E-27
3.74810E-01 6.36337E-27
3.79039E-01 6.06888E-27
3.83277E-01 5.78828E-27
3.87524E-01 5.52090E-27
3.91780E-01 5.26609E-27
3.96044E-01 5.02325E-27
4.00316E-01 4.79181E-27
4.04596E-01 4.57120E-27
4.08882E-01 4.36093E-27
4.13176E-01 4.16048E-27
4.17476E-01 3.96940E-27
4.21783E-01 3.78723E-27
4.26095E-01 3.61355E-27
4.30413E-01 3.44796E-27
4.34737E-01 3.29007E-27
4.39065E-01 3.13952E-27
4.43398E-01 2.99596E-27
4.47736E-01 2.85907E-27
4.52077E-01 2.72852E-27
4.56422E-01 2.60402E-27
4.60770E-01 2.48529E-27
4.65122E-01 2.37205E-27
4.69476E-01 2.26404E-27
4.73832E-01 2.16103E-27
4.78190E-01 2.06278E-27
4.82550E-01 1.96906E-27
4.86912E-01 1.87966E-27
4.91274E-01 1.79439E-27
4.95637E-01 1.71304E-27
5.00000E-01 1.63544E-27
5.04363E-01 1.56142E-27
5.08726E-01 1.49080E-27
5.13088E-01 1.42343E-27
5.17450E-01 1.35916E-27
5.21810E-01 1.29784E-27
5.26168E-01 1.23934E-27
5.30524E-01 1.18352E-27
5.34878E-01 1.13027E-27
5.39230E-01 1.07946E-27
5.43578E-01 1.03099E-27
5.47923E-01 9.84732E-28
5.52264E-01 9.40598E-28
5.56602E-01 8.98487E-28
5.60935E-01 8.58305E-28
5.65263E-01 8.19963E-28
5.69587E-01 7.83376E-28
5.73905E-01 7.48464E-28
5.78217E-01 7.15149E-28
5.82524E-01 6.83357E-28
5.86824E-01 6.53019E-28
5.91118E-01 6.24067E-28
5.95404E-01 5.96438E-28
5.99684E-01 5.70071E-28
6.03956E-01 5.44907E-28
6.08220E-01 5.20891E-28
6.12476E-01 4.97970E-28
6.16723E-01 4.76095E-28
6.20961E-01 4.55216E-28
6.25190E-01 4.35288E-28
6.29410E-01 4.16266E-28
6.33619E-01 3.98111E-28
6.37819E-01 3.80780E-28
6.42008E-01 3.64237E-28
6.46186E-01 3.48446E-28
6.50353E-01 3.33370E-28
6.54508E-01 3.18979E-28
6.58652E-01 3.05239E-28
6.62784E-01 2.92122E-28
6.66903E-01 2.79597E-28
6.71010E-01 2.67639E-28
6.75104E-01 2.56221E-28
6.79184E-01 2.45318E-28
6.83251E-01 2.34906E-28
6.87303E-01 2.24962E-28
6.91342E-01 2.15466E-28
6.95366E-01 2.06396E-28
6.99375E-01 1.97733E-28
7.03368E-01 1.89457E-28
7.07347E-01 1.81552E-28
7.11309E-01 1.74000E-28
7.15256E-01 1.66784E-28
7.19186E-01 1.59889E-28
7.23099E-01 1.53301E-28
7.26995E-01 1.47005E-28
7.30874E-01 1.40987E-28
7.34736E-01 1.35236E-28
7.38579E-01 1.29737E-28
7.42405E-01 1.24481E-28
7.46212E-01 1.19455E-28
7.50000E-01 1.14649E-28
7.53769E-01 1.10053E-28
7.57519E-01 1.05657E-28
7.61249E-01 1.01453E-28
7.64960E-01 9.74296E-29
7.68650E-01 9.35804E-29
7.72320E-01 8.98968E-29
7.75968E-01 8.63712E-29
7.79596E-01 8.29964E-29
7.83203E-01 7.97654E-29
7.86788E-01 7.66715E-29
7.90351E-01 7.37085E-29
7.93893E-01 7.08704E-29
7.97411E-01 6.81513E-29
8.00908E-01 6.55458E-29
8.04381E-01 6.30488E-29
8.07831E-01 6.06551E-29
8.11257E-01 5.83602E-29
8.14660E-01 5.61595E-29
8.18039E-01 5.40486E-29
8.21394E-01 5.20235E-29
8.24724E-01 5.00803E-29
8.28030E-01 4.82152E-29
8.31310E-01 4.64247E-29
8.34565E-01 4.47054E-29
8.37795E-01 4.30540E-29
8.40999E-01 4.14676E-29
8.44177E-01 3.99432E-29
8.47329E-01 3.84780E-29
8.50455E-01 3.70693E-29
8.53553E-01 3.57147E-29
8.56625E-01 3.44116E-29
8.59670E-01 3.31579E-29
8.62687E-01 3.19513E-29
8.65677E-01 3.07897E-29
8.68639E-01 2.96713E-29
8.71572E-01 2.85940E-29
8.74478E-01 2.75560E-29
8.77355E-01 2.65558E-29
8.80203E-01 2.55916E-29
8.83022E-01 2.46619E-29
8.85812E-01 2.37652E-29
8.88573E-01 2.29002E-29
8.91304E-01 2.20654E-29
8.94005E-01 2.12597E-29
8.96677E-01 2.04817E-29
8.99318E-01 1.97304E-29
9.01928E-01 1.90046E-29
9.04508E-01 1.83033E-29
9.07058E-01 1.76256E-29
9.09576E-01 1.69704E-29
9.12063E-01 1.63369E-29
9.14519E-01 1.57242E-29
9.16943E-01 1.51315E-29
9.19335E-01 1.45580E-29
9.21696E-01 1.40031E-29
9.24024E-01 1.34659E-29
9.26320E-01 1.29458E-29
9.28584E-01 1.24423E-29
9.30815E-01 1.19547E-29
9.33013E-01 1.14823E-29
9.35178E-01 1.10248E-29
9.37310E-01 1.05815E-29
9.39409E-01 1.01521E-29
9.41474E-01 9.73587E-30
9.43505E-01 9.33256E-30
9.45503E-01 8.94169E-30
9.47467E-01 8.56286E-30
9.49397E-01 8.19570E-30
9.51293E-01 7.83985E-30
9.53154E-01 7.49496E-30
9.54981E-01 7.16070E-30
9.56773E-01 6.83677E-30
9.58530E-01 6.52287E-30
9.60252E-01 6.21872E-30
9.61940E-01 5.92406E-30
9.63592E-01 5.63864E-30
9.65209E-01 5.36222E-30
9.66790E-01 5.09457E-30
9.68336E-01 4.83548E-30
9.69846E-01 4.58474E-30
9.71321E-01 4.34217E-30
9.72759E-01 4.10757E-30
9.74162E-01 3.88078E-30
9.75528E-01 3.66162E-30
9.76858E-01 3.44995E-30
9.78152E-01 3.24562E-30
9.79410E-01 3.04848E-30
9.80631E-01 2.85841E-30
9.81815E-01 2.67528E-30
9.82963E-01 2.49896E-30
9.84074E-01 2.32936E-30
9.85148E-01 2.16636E-30
9.86185E-01 2.00986E-30
9.87185E-01 1.85978E-30
9.88148E-01 1.71601E-30
9.89074E-01 1.57848E-30
9.89962E-01 1.44710E-30
9.90814E-01 1.32181E-30
9.91627E-01 1.20254E-30
9.92404E-01 1.08921E-30
9.93143E-01 9.81767E-31
9.93844E-01 8.80157E-31
9.94508E-01 7.84324E-31
9.95134E-01 6.94217E-31
9.95722E-01 6.09792E-31
9.96273E-01 5.31004E-31
9.96786E-01 4.57815E-31
9.97261E-01 3.90188E-31
9.97698E-01 3.28090E-31
9.98097E-01 2.71490E-31
9.98459E-01 2.20361E-31
9.98782E-01 1.74680E-31
9.99067E-01 1.34423E-31
9.99315E-01 9.95712E-32
9.99524E-01 7.01092E-32
9.99695E-01 4.60227E-32
9.99829E-01 2.73003E-32
9.99924E-01 1.39334E-32
9.99981E-01 5.91575E-33
1.00000E+00 3.24360E-33
