 #
 # Subroutine ELSEPA. Elastic scattering of electrons and positrons
 #                    by neutral atoms and positive ions
 #
 # Projectile: electron
 # Kinetic energy = 1.50000E+07 eV = 5.51240E+05 a.u.
 #
 # WARNING: High-energy factorization with free-atom DF screening.
 #          Absorption, polarization and exchange corrections are
 #          switched off.
 #          Phase shifts are calculated for the bare nucleus.
 #          Scattering amplitudes are not evaluated.
 #
 # Element: Xe,  Z =  54,  atomic weight = 1.31290E+02 g/mol
 #
 # Nuclear model: Fermi distribution
 #                Average radius = 5.43827E-13 cm
 #                Skin thickness = 5.46000E-14 cm
 #
 # Number of electrons = 54
 #
 # Total elastic cross section = 5.87694E-18 cm**2 = 2.09869E-01 a0**2
 # 1st transport cross section = 2.22520E-23 cm**2 = 7.94635E-07 a0**2
 # 2nd transport cross section = 6.30000E-23 cm**2 = 2.24977E-06 a0**2
 #
 #
 # Differential cross section:                       MU=(1-COS(THETA))/2
 #
 #  THETA        MU          DCS          DCS        Sherman      error
 #  (deg)                 (cm**2/sr)   (a0**2/sr)    function
 #----------------------------------------------------------------------
0.00000E+00 1.03211E-11
7.61557E-13 1.03207E-11
1.18994E-12 1.03204E-11
1.71346E-12 1.03202E-11
2.33225E-12 1.03198E-11
3.04617E-12 1.03194E-11
3.85530E-12 1.03190E-11
4.75964E-12 1.03185E-11
5.75917E-12 1.03180E-11
6.85391E-12 1.03174E-11
8.04379E-12 1.03167E-11
9.32893E-12 1.03161E-11
1.07092E-11 1.03153E-11
1.21847E-11 1.03145E-11
1.37554E-11 1.03137E-11
1.54213E-11 1.03128E-11
1.71823E-11 1.03118E-11
1.90386E-11 1.03108E-11
2.09900E-11 1.03098E-11
2.30367E-11 1.03087E-11
2.51785E-11 1.03076E-11
2.74156E-11 1.03064E-11
2.97478E-11 1.03051E-11
3.21752E-11 1.03038E-11
3.46979E-11 1.03025E-11
3.73157E-11 1.03011E-11
4.00286E-11 1.02996E-11
4.28368E-11 1.02981E-11
4.57402E-11 1.02966E-11
4.87388E-11 1.02950E-11
5.18325E-11 1.02933E-11
5.50215E-11 1.02916E-11
5.83057E-11 1.02898E-11
6.16850E-11 1.02880E-11
6.51595E-11 1.02862E-11
6.87293E-11 1.02843E-11
7.23943E-11 1.02823E-11
7.61544E-11 1.02803E-11
1.18991E-10 1.02575E-11
1.71347E-10 1.02298E-11
2.33223E-10 1.01972E-11
3.04617E-10 1.01597E-11
3.85531E-10 1.01175E-11
4.75965E-10 1.00706E-11
5.75917E-10 1.00191E-11
6.85389E-10 9.96325E-12
8.04380E-10 9.90301E-12
9.32891E-10 9.83855E-12
1.07092E-09 9.76906E-12
1.21847E-09 9.69613E-12
1.37554E-09 9.62029E-12
1.54213E-09 9.54067E-12
1.71823E-09 9.45602E-12
1.90386E-09 9.36916E-12
2.09900E-09 9.28036E-12
2.30367E-09 9.18624E-12
2.51785E-09 9.08951E-12
2.74156E-09 8.99159E-12
2.97478E-09 8.89143E-12
3.21752E-09 8.78608E-12
3.46978E-09 8.68027E-12
3.73156E-09 8.57421E-12
4.00286E-09 8.46367E-12
4.28368E-09 8.35127E-12
4.57402E-09 8.23931E-12
4.87388E-09 8.12693E-12
5.18326E-09 8.00930E-12
5.50215E-09 7.89272E-12
5.83057E-09 7.77734E-12
6.16850E-09 7.65880E-12
6.51596E-09 7.53890E-12
6.87293E-09 7.42071E-12
7.23942E-09 7.30385E-12
7.61544E-09 7.18189E-12
1.18991E-08 6.00724E-12
1.71347E-08 4.92649E-12
2.33223E-08 3.99062E-12
3.04617E-08 3.21578E-12
3.85531E-08 2.59160E-12
4.75965E-08 2.09697E-12
5.75917E-08 1.70817E-12
6.85389E-08 1.40295E-12
8.04380E-08 1.16278E-12
9.32891E-08 9.72719E-13
1.07092E-07 8.15873E-13
1.21847E-07 6.92835E-13
1.37554E-07 5.96022E-13
1.54213E-07 5.16031E-13
1.71823E-07 4.46031E-13
1.90386E-07 3.89411E-13
2.09900E-07 3.43129E-13
2.30367E-07 3.01269E-13
2.51785E-07 2.65609E-13
2.74156E-07 2.35891E-13
2.97478E-07 2.10312E-13
3.21752E-07 1.86779E-13
3.46978E-07 1.66860E-13
3.73156E-07 1.49890E-13
4.00286E-07 1.34437E-13
4.28368E-07 1.20783E-13
4.57402E-07 1.09008E-13
4.87388E-07 9.87073E-14
5.18325E-07 8.92233E-14
5.50215E-07 8.09555E-14
5.83057E-07 7.37173E-14
6.16850E-07 6.71788E-14
6.51596E-07 6.13112E-14
6.87293E-07 5.61264E-14
7.23942E-07 5.15200E-14
7.61543E-07 4.73019E-14
1.18991E-06 2.24155E-14
1.71347E-06 1.22041E-14
2.33223E-06 7.25371E-15
3.04617E-06 4.56264E-15
3.85531E-06 2.99825E-15
4.75964E-06 2.04149E-15
5.75916E-06 1.43365E-15
6.85388E-06 1.03553E-15
8.04378E-06 7.66803E-16
9.32888E-06 5.80149E-16
1.07092E-05 4.47118E-16
1.21846E-05 3.50551E-16
1.37553E-05 2.78922E-16
1.54212E-05 2.24599E-16
1.71822E-05 1.82970E-16
1.90385E-05 1.50556E-16
2.09899E-05 1.25064E-16
2.30365E-05 1.04726E-16
2.51783E-05 8.83526E-17
2.74153E-05 7.50407E-17
2.97475E-05 6.41130E-17
3.21749E-05 5.51057E-17
3.46974E-05 4.76287E-17
3.73152E-05 4.13698E-17
4.00281E-05 3.61073E-17
4.28362E-05 3.16569E-17
4.57395E-05 2.78686E-17
4.87380E-05 2.46263E-17
5.18317E-05 2.18412E-17
5.50205E-05 1.94380E-17
5.83045E-05 1.73538E-17
6.16838E-05 1.55419E-17
6.51582E-05 1.39611E-17
6.87277E-05 1.25760E-17
7.23925E-05 1.13587E-17
7.61524E-05 1.02859E-17
9.21439E-05 7.07512E-18
1.09658E-04 5.02531E-18
1.28695E-04 3.66792E-18
1.49255E-04 2.73974E-18
1.71338E-04 2.08795E-18
1.94942E-04 1.61918E-18
2.20070E-04 1.27507E-18
2.46720E-04 1.01783E-18
2.74892E-04 8.22376E-19
3.04586E-04 6.71737E-19
3.35803E-04 5.54096E-19
3.68542E-04 4.61152E-19
4.02802E-04 3.86925E-19
4.38585E-04 3.27065E-19
4.75889E-04 2.78362E-19
5.14715E-04 2.38405E-19
5.55063E-04 2.05377E-19
5.96931E-04 1.77883E-19
6.40321E-04 1.54846E-19
6.85233E-04 1.35426E-19
7.31665E-04 1.18961E-19
7.79618E-04 1.04929E-19
8.29092E-04 9.29095E-20
8.80086E-04 8.25660E-20
9.32601E-04 7.36254E-20
9.86636E-04 6.58650E-20
1.04219E-03 5.91032E-20
1.09927E-03 5.31893E-20
1.15786E-03 4.79984E-20
1.21797E-03 4.34272E-20
1.27961E-03 3.93890E-20
1.34276E-03 3.58106E-20
1.40743E-03 3.26307E-20
1.47362E-03 2.97972E-20
1.54133E-03 2.72655E-20
1.61056E-03 2.49980E-20
1.68131E-03 2.29621E-20
1.75357E-03 2.11301E-20
1.82735E-03 1.94778E-20
1.90265E-03 1.79845E-20
1.97947E-03 1.66322E-20
2.05780E-03 1.54051E-20
2.13765E-03 1.42896E-20
2.21902E-03 1.32736E-20
2.30190E-03 1.23468E-20
2.38630E-03 1.14998E-20
2.47222E-03 1.07245E-20
2.55965E-03 1.00138E-20
2.64859E-03 9.36127E-21
2.73905E-03 8.76130E-21
2.83103E-03 8.20888E-21
2.92452E-03 7.69953E-21
3.01952E-03 7.22929E-21
3.11604E-03 6.79460E-21
3.21407E-03 6.39227E-21
3.31362E-03 6.01946E-21
3.41468E-03 5.67358E-21
3.51725E-03 5.35234E-21
3.62133E-03 5.05365E-21
3.72692E-03 4.77563E-21
3.83403E-03 4.51659E-21
3.94265E-03 4.27499E-21
4.05278E-03 4.04943E-21
4.16442E-03 3.83865E-21
4.27757E-03 3.64150E-21
4.39223E-03 3.45692E-21
4.50840E-03 3.28398E-21
4.62608E-03 3.12179E-21
4.74527E-03 2.96956E-21
4.86597E-03 2.82656E-21
4.98817E-03 2.69213E-21
5.11188E-03 2.56566E-21
5.23711E-03 2.44658E-21
5.36383E-03 2.33439E-21
5.49207E-03 2.22860E-21
5.62181E-03 2.12878E-21
5.75306E-03 2.03454E-21
5.88581E-03 1.94549E-21
6.02007E-03 1.86130E-21
6.15583E-03 1.78166E-21
6.29310E-03 1.70626E-21
6.43187E-03 1.63484E-21
6.57214E-03 1.56716E-21
6.71392E-03 1.50297E-21
6.85720E-03 1.44206E-21
7.00198E-03 1.38423E-21
7.14827E-03 1.32930E-21
7.29605E-03 1.27710E-21
7.44534E-03 1.22745E-21
7.59612E-03 1.18021E-21
7.97965E-03 1.07178E-21
8.37255E-03 9.75626E-22
8.77480E-03 8.90114E-22
9.18641E-03 8.13857E-22
9.60736E-03 7.45670E-22
1.00376E-02 6.84544E-22
1.04773E-02 6.29618E-22
1.09262E-02 5.80148E-22
1.13844E-02 5.35492E-22
1.18520E-02 4.95096E-22
1.23288E-02 4.58479E-22
1.28150E-02 4.25222E-22
1.33104E-02 3.94961E-22
1.38150E-02 3.67374E-22
1.43290E-02 3.42182E-22
1.48521E-02 3.19137E-22
1.53845E-02 2.98023E-22
1.59262E-02 2.78648E-22
1.64770E-02 2.60841E-22
1.70371E-02 2.44451E-22
1.76063E-02 2.29344E-22
1.81848E-02 2.15401E-22
1.87724E-02 2.02516E-22
1.93692E-02 1.90592E-22
1.99751E-02 1.79544E-22
2.05901E-02 1.69295E-22
2.12143E-02 1.59777E-22
2.18476E-02 1.50928E-22
2.24900E-02 1.42691E-22
2.31415E-02 1.35015E-22
2.38021E-02 1.27857E-22
2.44717E-02 1.21173E-22
2.51504E-02 1.14926E-22
2.58382E-02 1.09081E-22
2.65349E-02 1.03609E-22
2.72407E-02 9.84808E-23
2.79555E-02 9.36704E-23
2.86793E-02 8.91541E-23
2.94120E-02 8.49105E-23
3.01537E-02 8.09201E-23
3.09043E-02 7.71648E-23
3.16639E-02 7.36279E-23
3.24324E-02 7.02941E-23
3.32098E-02 6.71496E-23
3.39961E-02 6.41816E-23
3.47912E-02 6.13782E-23
3.55952E-02 5.87282E-23
3.64081E-02 5.62217E-23
3.72297E-02 5.38496E-23
3.80602E-02 5.16031E-23
3.88995E-02 4.94742E-23
3.97476E-02 4.74553E-23
4.06044E-02 4.55400E-23
4.14700E-02 4.37219E-23
4.23443E-02 4.19947E-23
4.32273E-02 4.03530E-23
4.41190E-02 3.87922E-23
4.50194E-02 3.73072E-23
4.59284E-02 3.58933E-23
4.68461E-02 3.45468E-23
4.87074E-02 3.20407E-23
5.06030E-02 2.97605E-23
5.25328E-02 2.76824E-23
5.44967E-02 2.57847E-23
5.64946E-02 2.40490E-23
5.85262E-02 2.24586E-23
6.05914E-02 2.09992E-23
6.26901E-02 1.96578E-23
6.48222E-02 1.84231E-23
6.69873E-02 1.72849E-23
6.91854E-02 1.62342E-23
7.14163E-02 1.52630E-23
7.36799E-02 1.43641E-23
7.59760E-02 1.35311E-23
7.83043E-02 1.27582E-23
8.06647E-02 1.20402E-23
8.30571E-02 1.13725E-23
8.54812E-02 1.07508E-23
8.79369E-02 1.01714E-23
9.04240E-02 9.63069E-24
9.29422E-02 9.12572E-24
9.54915E-02 8.65363E-24
9.80716E-02 8.21186E-24
1.00682E-01 7.79809E-24
1.03323E-01 7.41017E-24
1.05995E-01 7.04619E-24
1.08696E-01 6.70437E-24
1.11427E-01 6.38310E-24
1.14188E-01 6.08090E-24
1.16978E-01 5.79641E-24
1.19797E-01 5.52839E-24
1.22645E-01 5.27569E-24
1.25522E-01 5.03728E-24
1.28428E-01 4.81217E-24
1.31361E-01 4.59949E-24
1.34323E-01 4.39840E-24
1.37313E-01 4.20816E-24
1.40330E-01 4.02806E-24
1.43375E-01 3.85745E-24
1.46447E-01 3.69574E-24
1.49545E-01 3.54237E-24
1.52671E-01 3.39682E-24
1.55823E-01 3.25862E-24
1.59001E-01 3.12733E-24
1.62205E-01 3.00252E-24
1.65435E-01 2.88382E-24
1.68690E-01 2.77087E-24
1.71970E-01 2.66333E-24
1.75276E-01 2.56090E-24
1.78606E-01 2.46328E-24
1.81961E-01 2.37021E-24
1.85340E-01 2.28143E-24
1.88743E-01 2.19670E-24
1.92169E-01 2.11580E-24
1.95619E-01 2.03854E-24
1.99092E-01 1.96470E-24
2.02589E-01 1.89411E-24
2.06107E-01 1.82660E-24
2.09649E-01 1.76201E-24
2.13212E-01 1.70018E-24
2.16797E-01 1.64099E-24
2.20404E-01 1.58428E-24
2.24032E-01 1.52994E-24
2.27680E-01 1.47785E-24
2.31350E-01 1.42790E-24
2.35040E-01 1.37999E-24
2.38751E-01 1.33401E-24
2.42481E-01 1.28987E-24
2.46231E-01 1.24748E-24
2.50000E-01 1.20677E-24
2.53788E-01 1.16765E-24
2.57595E-01 1.13004E-24
2.61421E-01 1.09389E-24
2.65264E-01 1.05911E-24
2.69126E-01 1.02566E-24
2.73005E-01 9.93460E-25
2.76901E-01 9.62467E-25
2.80814E-01 9.32623E-25
2.84744E-01 9.03879E-25
2.88691E-01 8.76186E-25
2.92653E-01 8.49498E-25
2.96632E-01 8.23771E-25
3.00625E-01 7.98966E-25
3.04634E-01 7.75042E-25
3.08658E-01 7.51963E-25
3.12697E-01 7.29693E-25
3.16749E-01 7.08198E-25
3.20816E-01 6.87448E-25
3.24896E-01 6.67410E-25
3.28990E-01 6.48056E-25
3.33097E-01 6.29359E-25
3.37216E-01 6.11292E-25
3.41348E-01 5.93830E-25
3.45492E-01 5.76949E-25
3.49647E-01 5.60626E-25
3.53814E-01 5.44840E-25
3.57992E-01 5.29570E-25
3.62181E-01 5.14795E-25
3.66381E-01 5.00497E-25
3.70590E-01 4.86657E-25
3.74810E-01 4.73259E-25
3.79039E-01 4.60286E-25
3.83277E-01 4.47721E-25
3.87524E-01 4.35550E-25
3.91780E-01 4.23759E-25
3.96044E-01 4.12332E-25
4.00316E-01 4.01258E-25
4.04596E-01 3.90523E-25
4.08882E-01 3.80115E-25
4.13176E-01 3.70022E-25
4.17476E-01 3.60234E-25
4.21783E-01 3.50739E-25
4.26095E-01 3.41527E-25
4.30413E-01 3.32588E-25
4.34737E-01 3.23913E-25
4.39065E-01 3.15492E-25
4.43398E-01 3.07318E-25
4.47736E-01 2.99381E-25
4.52077E-01 2.91673E-25
4.56422E-01 2.84187E-25
4.60770E-01 2.76916E-25
4.65122E-01 2.69851E-25
4.69476E-01 2.62987E-25
4.73832E-01 2.56316E-25
4.78190E-01 2.49832E-25
4.82550E-01 2.43530E-25
4.86912E-01 2.37403E-25
4.91274E-01 2.31445E-25
4.95637E-01 2.25652E-25
5.00000E-01 2.20017E-25
5.04363E-01 2.14536E-25
5.08726E-01 2.09204E-25
5.13088E-01 2.04016E-25
5.17450E-01 1.98969E-25
5.21810E-01 1.94056E-25
5.26168E-01 1.89275E-25
5.30524E-01 1.84620E-25
5.34878E-01 1.80089E-25
5.39230E-01 1.75678E-25
5.43578E-01 1.71382E-25
5.47923E-01 1.67198E-25
5.52264E-01 1.63124E-25
5.56602E-01 1.59155E-25
5.60935E-01 1.55288E-25
5.65263E-01 1.51521E-25
5.69587E-01 1.47851E-25
5.73905E-01 1.44274E-25
5.78217E-01 1.40788E-25
5.82524E-01 1.37391E-25
5.86824E-01 1.34079E-25
5.91118E-01 1.30850E-25
5.95404E-01 1.27702E-25
5.99684E-01 1.24633E-25
6.03956E-01 1.21640E-25
6.08220E-01 1.18721E-25
6.12476E-01 1.15875E-25
6.16723E-01 1.13098E-25
6.20961E-01 1.10389E-25
6.25190E-01 1.07747E-25
6.29410E-01 1.05168E-25
6.33619E-01 1.02653E-25
6.37819E-01 1.00198E-25
6.42008E-01 9.78019E-26
6.46186E-01 9.54638E-26
6.50353E-01 9.31815E-26
6.54508E-01 9.09538E-26
6.58652E-01 8.87790E-26
6.62784E-01 8.66559E-26
6.66903E-01 8.45829E-26
6.71010E-01 8.25588E-26
6.75104E-01 8.05823E-26
6.79184E-01 7.86520E-26
6.83251E-01 7.67669E-26
6.87303E-01 7.49257E-26
6.91342E-01 7.31273E-26
6.95366E-01 7.13705E-26
6.99375E-01 6.96544E-26
7.03368E-01 6.79778E-26
7.07347E-01 6.63397E-26
7.11309E-01 6.47391E-26
7.15256E-01 6.31752E-26
7.19186E-01 6.16469E-26
7.23099E-01 6.01535E-26
7.26995E-01 5.86939E-26
7.30874E-01 5.72673E-26
7.34736E-01 5.58730E-26
7.38579E-01 5.45102E-26
7.42405E-01 5.31779E-26
7.46212E-01 5.18756E-26
7.50000E-01 5.06025E-26
7.53769E-01 4.93578E-26
7.57519E-01 4.81408E-26
7.61249E-01 4.69510E-26
7.64960E-01 4.57876E-26
7.68650E-01 4.46500E-26
7.72320E-01 4.35376E-26
7.75968E-01 4.24498E-26
7.79596E-01 4.13860E-26
7.83203E-01 4.03457E-26
7.86788E-01 3.93282E-26
7.90351E-01 3.83331E-26
7.93893E-01 3.73599E-26
7.97411E-01 3.64079E-26
8.00908E-01 3.54768E-26
8.04381E-01 3.45661E-26
8.07831E-01 3.36752E-26
8.11257E-01 3.28038E-26
8.14660E-01 3.19514E-26
8.18039E-01 3.11175E-26
8.21394E-01 3.03018E-26
8.24724E-01 2.95038E-26
8.28030E-01 2.87232E-26
8.31310E-01 2.79596E-26
8.34565E-01 2.72125E-26
8.37795E-01 2.64816E-26
8.40999E-01 2.57667E-26
8.44177E-01 2.50672E-26
8.47329E-01 2.43829E-26
8.50455E-01 2.37135E-26
8.53553E-01 2.30586E-26
8.56625E-01 2.24180E-26
8.59670E-01 2.17913E-26
8.62687E-01 2.11782E-26
8.65677E-01 2.05784E-26
8.68639E-01 1.99917E-26
8.71572E-01 1.94179E-26
8.74478E-01 1.88565E-26
8.77355E-01 1.83074E-26
8.80203E-01 1.77704E-26
8.83022E-01 1.72451E-26
8.85812E-01 1.67314E-26
8.88573E-01 1.62289E-26
8.91304E-01 1.57376E-26
8.94005E-01 1.52571E-26
8.96677E-01 1.47873E-26
8.99318E-01 1.43279E-26
9.01928E-01 1.38787E-26
9.04508E-01 1.34396E-26
9.07058E-01 1.30103E-26
9.09576E-01 1.25907E-26
9.12063E-01 1.21806E-26
9.14519E-01 1.17798E-26
9.16943E-01 1.13881E-26
9.19335E-01 1.10053E-26
9.21696E-01 1.06314E-26
9.24024E-01 1.02660E-26
9.26320E-01 9.90920E-27
9.28584E-01 9.56069E-27
9.30815E-01 9.22036E-27
9.33013E-01 8.88807E-27
9.35178E-01 8.56367E-27
9.37310E-01 8.24704E-27
9.39409E-01 7.93804E-27
9.41474E-01 7.63654E-27
9.43505E-01 7.34242E-27
9.45503E-01 7.05555E-27
9.47467E-01 6.77582E-27
9.49397E-01 6.50311E-27
9.51293E-01 6.23731E-27
9.53154E-01 5.97832E-27
9.54981E-01 5.72602E-27
9.56773E-01 5.48032E-27
9.58530E-01 5.24111E-27
9.60252E-01 5.00830E-27
9.61940E-01 4.78180E-27
9.63592E-01 4.56151E-27
9.65209E-01 4.34735E-27
9.66790E-01 4.13922E-27
9.68336E-01 3.93706E-27
9.69846E-01 3.74077E-27
9.71321E-01 3.55028E-27
9.72759E-01 3.36551E-27
9.74162E-01 3.18640E-27
9.75528E-01 3.01286E-27
9.76858E-01 2.84484E-27
9.78152E-01 2.68226E-27
9.79410E-01 2.52507E-27
9.80631E-01 2.37319E-27
9.81815E-01 2.22658E-27
9.82963E-01 2.08517E-27
9.84074E-01 1.94891E-27
9.85148E-01 1.81775E-27
9.86185E-01 1.69163E-27
9.87185E-01 1.57051E-27
9.88148E-01 1.45434E-27
9.89074E-01 1.34308E-27
9.89962E-01 1.23668E-27
9.90814E-01 1.13510E-27
9.91627E-01 1.03830E-27
9.92404E-01 9.46251E-28
9.93143E-01 8.58910E-28
9.93844E-01 7.76246E-28
9.94508E-01 6.98227E-28
9.95134E-01 6.24823E-28
9.95722E-01 5.56007E-28
9.96273E-01 4.91752E-28
9.96786E-01 4.32034E-28
9.97261E-01 3.76830E-28
9.97698E-01 3.26120E-28
9.98097E-01 2.79882E-28
9.98459E-01 2.38102E-28
9.98782E-01 2.00761E-28
9.99067E-01 1.67847E-28
9.99315E-01 1.39346E-28
9.99524E-01 1.15249E-28
9.99695E-01 9.55448E-29
9.99829E-01 8.02273E-29
9.99924E-01 6.92904E-29
9.99981E-01 6.27299E-29
1.00000E+00 6.05434E-29
