 #
 # Subroutine ELSEPA. Elastic scattering of electrons and positrons
 #                    by neutral atoms and positive ions
 #
 # Projectile: electron
 # Kinetic energy = 8.00000E+06 eV = 2.93995E+05 a.u.
 #
 # WARNING: High-energy factorization with free-atom DF screening.
 #          Absorption, polarization and exchange corrections are
 #          switched off.
 #          Phase shifts are calculated for the bare nucleus.
 #          Scattering amplitudes are not evaluated.
 #
 # Element: Xe,  Z =  54,  atomic weight = 1.31290E+02 g/mol
 #
 # Nuclear model: Fermi distribution
 #                Average radius = 5.43827E-13 cm
 #                Skin thickness = 5.46000E-14 cm
 #
 # Number of electrons = 54
 #
 # Total elastic cross section = 5.89477E-18 cm**2 = 2.10506E-01 a0**2
 # 1st transport cross section = 6.90853E-23 cm**2 = 2.46708E-06 a0**2
 # 2nd transport cross section = 1.93318E-22 cm**2 = 6.90353E-06 a0**2
 #
 #
 # Differential cross section:                       MU=(1-COS(THETA))/2
 #
 #  THETA        MU          DCS          DCS        Sherman      error
 #  (deg)                 (cm**2/sr)   (a0**2/sr)    function
 #----------------------------------------------------------------------
0.00000E+00 3.10747E-12
7.61557E-13 3.10743E-12
1.18994E-12 3.10741E-12
1.71346E-12 3.10739E-12
2.33225E-12 3.10736E-12
3.04617E-12 3.10732E-12
3.85530E-12 3.10728E-12
4.75964E-12 3.10724E-12
5.75917E-12 3.10719E-12
6.85391E-12 3.10714E-12
8.04379E-12 3.10708E-12
9.32893E-12 3.10702E-12
1.07092E-11 3.10695E-12
1.21847E-11 3.10688E-12
1.37554E-11 3.10680E-12
1.54213E-11 3.10672E-12
1.71823E-11 3.10663E-12
1.90386E-11 3.10654E-12
2.09900E-11 3.10645E-12
2.30367E-11 3.10635E-12
2.51785E-11 3.10625E-12
2.74156E-11 3.10614E-12
2.97478E-11 3.10602E-12
3.21752E-11 3.10591E-12
3.46979E-11 3.10578E-12
3.73157E-11 3.10566E-12
4.00286E-11 3.10553E-12
4.28368E-11 3.10539E-12
4.57402E-11 3.10525E-12
4.87388E-11 3.10510E-12
5.18325E-11 3.10495E-12
5.50215E-11 3.10480E-12
5.83057E-11 3.10464E-12
6.16850E-11 3.10448E-12
6.51595E-11 3.10431E-12
6.87293E-11 3.10414E-12
7.23943E-11 3.10396E-12
7.61544E-11 3.10378E-12
1.18991E-10 3.10171E-12
1.71347E-10 3.09918E-12
2.33223E-10 3.09620E-12
3.04617E-10 3.09276E-12
3.85531E-10 3.08887E-12
4.75965E-10 3.08453E-12
5.75917E-10 3.07975E-12
6.85389E-10 3.07453E-12
8.04380E-10 3.06886E-12
9.32891E-10 3.06276E-12
1.07092E-09 3.05623E-12
1.21847E-09 3.04927E-12
1.37554E-09 3.04189E-12
1.54213E-09 3.03409E-12
1.71823E-09 3.02587E-12
1.90386E-09 3.01725E-12
2.09900E-09 3.00822E-12
2.30367E-09 2.99880E-12
2.51785E-09 2.98898E-12
2.74156E-09 2.97878E-12
2.97478E-09 2.96819E-12
3.21752E-09 2.95720E-12
3.46978E-09 2.94568E-12
3.73156E-09 2.93387E-12
4.00286E-09 2.92178E-12
4.28368E-09 2.90942E-12
4.57402E-09 2.89681E-12
4.87388E-09 2.88396E-12
5.18326E-09 2.87045E-12
5.50215E-09 2.85654E-12
5.83057E-09 2.84242E-12
6.16850E-09 2.82810E-12
6.51596E-09 2.81361E-12
6.87293E-09 2.79894E-12
7.23942E-09 2.78393E-12
7.61544E-09 2.76817E-12
1.18991E-08 2.60076E-12
1.71347E-08 2.41575E-12
2.33223E-08 2.22163E-12
3.04617E-08 2.02457E-12
3.85531E-08 1.83235E-12
4.75965E-08 1.64716E-12
5.75917E-08 1.47487E-12
6.85389E-08 1.31486E-12
8.04380E-08 1.17017E-12
9.32891E-08 1.03955E-12
1.07092E-07 9.23319E-13
1.21847E-07 8.20272E-13
1.37554E-07 7.29411E-13
1.54213E-07 6.49683E-13
1.71823E-07 5.79671E-13
1.90386E-07 5.18517E-13
2.09900E-07 4.64835E-13
2.30367E-07 4.17934E-13
2.51785E-07 3.76721E-13
2.74156E-07 3.40573E-13
2.97478E-07 3.08721E-13
3.21752E-07 2.80395E-13
3.46978E-07 2.54440E-13
3.73156E-07 2.31889E-13
4.00286E-07 2.12210E-13
4.28368E-07 1.94965E-13
4.57402E-07 1.79793E-13
4.87388E-07 1.66391E-13
5.18325E-07 1.53441E-13
5.50215E-07 1.41547E-13
5.83057E-07 1.30981E-13
6.16850E-07 1.21564E-13
6.51596E-07 1.13144E-13
6.87293E-07 1.05592E-13
7.23942E-07 9.85885E-14
7.61543E-07 9.16766E-14
1.18991E-06 4.81122E-14
1.71347E-06 2.71956E-14
2.33223E-06 1.63886E-14
3.04617E-06 1.04810E-14
3.85531E-06 7.06958E-15
4.75964E-06 4.97342E-15
5.75916E-06 3.62053E-15
6.85388E-06 2.70159E-15
8.04378E-06 2.05876E-15
9.32888E-06 1.59248E-15
1.07092E-05 1.24970E-15
1.21846E-05 9.92895E-16
1.37553E-05 7.97625E-16
1.54212E-05 6.47291E-16
1.71822E-05 5.30151E-16
1.90385E-05 4.38041E-16
2.09899E-05 3.65233E-16
2.30365E-05 3.06978E-16
2.51783E-05 2.59857E-16
2.74153E-05 2.21449E-16
2.97475E-05 1.89886E-16
3.21749E-05 1.63771E-16
3.46974E-05 1.41999E-16
3.73152E-05 1.23842E-16
4.00281E-05 1.08499E-16
4.28362E-05 9.54726E-17
4.57395E-05 8.44014E-17
4.87380E-05 7.48315E-17
5.18317E-05 6.66136E-17
5.50205E-05 5.94945E-17
5.83045E-05 5.32903E-17
6.16838E-05 4.78963E-17
6.51582E-05 4.31489E-17
6.87277E-05 3.89844E-17
7.23925E-05 3.53163E-17
7.61524E-05 3.20593E-17
9.21439E-05 2.22614E-17
1.09658E-04 1.59224E-17
1.28695E-04 1.16861E-17
1.49255E-04 8.76462E-18
1.71338E-04 6.70085E-18
1.94942E-04 5.20925E-18
2.20070E-04 4.11027E-18
2.46720E-04 3.28647E-18
2.74892E-04 2.65906E-18
3.04586E-04 2.17472E-18
3.35803E-04 1.79585E-18
3.68542E-04 1.49620E-18
4.02802E-04 1.25660E-18
4.38585E-04 1.06321E-18
4.75889E-04 9.05718E-19
5.14715E-04 7.76401E-19
5.55063E-04 6.69420E-19
5.96931E-04 5.80290E-19
6.40321E-04 5.05553E-19
6.85233E-04 4.42497E-19
7.31665E-04 3.89002E-19
7.79618E-04 3.43370E-19
8.29092E-04 3.04257E-19
8.80086E-04 2.70571E-19
9.32601E-04 2.41434E-19
9.86636E-04 2.16126E-19
1.04219E-03 1.94057E-19
1.09927E-03 1.74743E-19
1.15786E-03 1.57780E-19
1.21797E-03 1.42832E-19
1.27961E-03 1.29617E-19
1.34276E-03 1.17901E-19
1.40743E-03 1.07483E-19
1.47362E-03 9.81944E-20
1.54133E-03 8.98907E-20
1.61056E-03 8.24495E-20
1.68131E-03 7.57650E-20
1.75357E-03 6.97465E-20
1.82735E-03 6.43162E-20
1.90265E-03 5.94059E-20
1.97947E-03 5.49572E-20
2.05780E-03 5.09187E-20
2.13765E-03 4.72459E-20
2.21902E-03 4.38996E-20
2.30190E-03 4.08456E-20
2.38630E-03 3.80536E-20
2.47222E-03 3.54972E-20
2.55965E-03 3.31529E-20
2.64859E-03 3.09998E-20
2.73905E-03 2.90194E-20
2.83103E-03 2.71955E-20
2.92452E-03 2.55133E-20
3.01952E-03 2.39597E-20
3.11604E-03 2.25233E-20
3.21407E-03 2.11934E-20
3.31362E-03 1.99608E-20
3.41468E-03 1.88170E-20
3.51725E-03 1.77544E-20
3.62133E-03 1.67662E-20
3.72692E-03 1.58462E-20
3.83403E-03 1.49888E-20
3.94265E-03 1.41889E-20
4.05278E-03 1.34421E-20
4.16442E-03 1.27440E-20
4.27757E-03 1.20909E-20
4.39223E-03 1.14795E-20
4.50840E-03 1.09064E-20
4.62608E-03 1.03689E-20
4.74527E-03 9.86437E-21
4.86597E-03 9.39032E-21
4.98817E-03 8.94464E-21
5.11188E-03 8.52526E-21
5.23711E-03 8.13035E-21
5.36383E-03 7.75824E-21
5.49207E-03 7.40731E-21
5.62181E-03 7.07616E-21
5.75306E-03 6.76346E-21
5.88581E-03 6.46797E-21
6.02007E-03 6.18858E-21
6.15583E-03 5.92423E-21
6.29310E-03 5.67396E-21
6.43187E-03 5.43689E-21
6.57214E-03 5.21217E-21
6.71392E-03 4.99904E-21
6.85720E-03 4.79680E-21
7.00198E-03 4.60476E-21
7.14827E-03 4.42233E-21
7.29605E-03 4.24892E-21
7.44534E-03 4.08401E-21
7.59612E-03 3.92710E-21
7.97965E-03 3.56685E-21
8.37255E-03 3.24734E-21
8.77480E-03 2.96316E-21
9.18641E-03 2.70968E-21
9.60736E-03 2.48300E-21
1.00376E-02 2.27978E-21
1.04773E-02 2.09714E-21
1.09262E-02 1.93263E-21
1.13844E-02 1.78411E-21
1.18520E-02 1.64974E-21
1.23288E-02 1.52793E-21
1.28150E-02 1.41729E-21
1.33104E-02 1.31661E-21
1.38150E-02 1.22481E-21
1.43290E-02 1.14098E-21
1.48521E-02 1.06429E-21
1.53845E-02 9.94016E-22
1.59262E-02 9.29524E-22
1.64770E-02 8.70248E-22
1.70371E-02 8.15687E-22
1.76063E-02 7.65395E-22
1.81848E-02 7.18973E-22
1.87724E-02 6.76068E-22
1.93692E-02 6.36362E-22
1.99751E-02 5.99570E-22
2.05901E-02 5.65439E-22
2.12143E-02 5.33738E-22
2.18476E-02 5.04262E-22
2.24900E-02 4.76824E-22
2.31415E-02 4.51256E-22
2.38021E-02 4.27406E-22
2.44717E-02 4.05136E-22
2.51504E-02 3.84321E-22
2.58382E-02 3.64848E-22
2.65349E-02 3.46612E-22
2.72407E-02 3.29520E-22
2.79555E-02 3.13486E-22
2.86793E-02 2.98433E-22
2.94120E-02 2.84287E-22
3.01537E-02 2.70985E-22
3.09043E-02 2.58464E-22
3.16639E-02 2.46671E-22
3.24324E-02 2.35555E-22
3.32098E-02 2.25068E-22
3.39961E-02 2.15169E-22
3.47912E-02 2.05818E-22
3.55952E-02 1.96979E-22
3.64081E-02 1.88618E-22
3.72297E-02 1.80704E-22
3.80602E-02 1.73208E-22
3.88995E-02 1.66104E-22
3.97476E-02 1.59367E-22
4.06044E-02 1.52974E-22
4.14700E-02 1.46904E-22
4.23443E-02 1.41139E-22
4.32273E-02 1.35658E-22
4.41190E-02 1.30447E-22
4.50194E-02 1.25487E-22
4.59284E-02 1.20766E-22
4.68461E-02 1.16268E-22
4.87074E-02 1.07896E-22
5.06030E-02 1.00277E-22
5.25328E-02 9.33309E-23
5.44967E-02 8.69869E-23
5.64946E-02 8.11824E-23
5.85262E-02 7.58628E-23
6.05914E-02 7.09798E-23
6.26901E-02 6.64905E-23
6.48222E-02 6.23568E-23
6.69873E-02 5.85450E-23
6.91854E-02 5.50253E-23
7.14163E-02 5.17710E-23
7.36799E-02 4.87578E-23
7.59760E-02 4.59644E-23
7.83043E-02 4.33717E-23
8.06647E-02 4.09624E-23
8.30571E-02 3.87209E-23
8.54812E-02 3.66331E-23
8.79369E-02 3.46865E-23
9.04240E-02 3.28695E-23
9.29422E-02 3.11719E-23
9.54915E-02 2.95841E-23
9.80716E-02 2.80977E-23
1.00682E-01 2.67049E-23
1.03323E-01 2.53986E-23
1.05995E-01 2.41723E-23
1.08696E-01 2.30201E-23
1.11427E-01 2.19367E-23
1.14188E-01 2.09172E-23
1.16978E-01 1.99569E-23
1.19797E-01 1.90517E-23
1.22645E-01 1.81979E-23
1.25522E-01 1.73919E-23
1.28428E-01 1.66306E-23
1.31361E-01 1.59108E-23
1.34323E-01 1.52300E-23
1.37313E-01 1.45855E-23
1.40330E-01 1.39751E-23
1.43375E-01 1.33964E-23
1.46447E-01 1.28477E-23
1.49545E-01 1.23270E-23
1.52671E-01 1.18325E-23
1.55823E-01 1.13627E-23
1.59001E-01 1.09161E-23
1.62205E-01 1.04914E-23
1.65435E-01 1.00871E-23
1.68690E-01 9.70222E-24
1.71970E-01 9.33555E-24
1.75276E-01 8.98606E-24
1.78606E-01 8.65277E-24
1.81961E-01 8.33478E-24
1.85340E-01 8.03127E-24
1.88743E-01 7.74142E-24
1.92169E-01 7.46449E-24
1.95619E-01 7.19979E-24
1.99092E-01 6.94667E-24
2.02589E-01 6.70452E-24
2.06107E-01 6.47276E-24
2.09649E-01 6.25087E-24
2.13212E-01 6.03833E-24
2.16797E-01 5.83466E-24
2.20404E-01 5.63943E-24
2.24032E-01 5.45221E-24
2.27680E-01 5.27260E-24
2.31350E-01 5.10023E-24
2.35040E-01 4.93476E-24
2.38751E-01 4.77585E-24
2.42481E-01 4.62318E-24
2.46231E-01 4.47645E-24
2.50000E-01 4.33541E-24
2.53788E-01 4.19977E-24
2.57595E-01 4.06928E-24
2.61421E-01 3.94372E-24
2.65264E-01 3.82286E-24
2.69126E-01 3.70648E-24
2.73005E-01 3.59439E-24
2.76901E-01 3.48640E-24
2.80814E-01 3.38232E-24
2.84744E-01 3.28199E-24
2.88691E-01 3.18525E-24
2.92653E-01 3.09193E-24
2.96632E-01 3.00190E-24
3.00625E-01 2.91500E-24
3.04634E-01 2.83112E-24
3.08658E-01 2.75013E-24
3.12697E-01 2.67191E-24
3.16749E-01 2.59634E-24
3.20816E-01 2.52332E-24
3.24896E-01 2.45274E-24
3.28990E-01 2.38451E-24
3.33097E-01 2.31853E-24
3.37216E-01 2.25471E-24
3.41348E-01 2.19297E-24
3.45492E-01 2.13323E-24
3.49647E-01 2.07541E-24
3.53814E-01 2.01944E-24
3.57992E-01 1.96524E-24
3.62181E-01 1.91274E-24
3.66381E-01 1.86190E-24
3.70590E-01 1.81263E-24
3.74810E-01 1.76489E-24
3.79039E-01 1.71861E-24
3.83277E-01 1.67374E-24
3.87524E-01 1.63024E-24
3.91780E-01 1.58805E-24
3.96044E-01 1.54713E-24
4.00316E-01 1.50742E-24
4.04596E-01 1.46889E-24
4.08882E-01 1.43150E-24
4.13176E-01 1.39520E-24
4.17476E-01 1.35995E-24
4.21783E-01 1.32573E-24
4.26095E-01 1.29249E-24
4.30413E-01 1.26020E-24
4.34737E-01 1.22883E-24
4.39065E-01 1.19835E-24
4.43398E-01 1.16873E-24
4.47736E-01 1.13993E-24
4.52077E-01 1.11194E-24
4.56422E-01 1.08472E-24
4.60770E-01 1.05825E-24
4.65122E-01 1.03251E-24
4.69476E-01 1.00747E-24
4.73832E-01 9.83104E-25
4.78190E-01 9.59397E-25
4.82550E-01 9.36327E-25
4.86912E-01 9.13873E-25
4.91274E-01 8.92015E-25
4.95637E-01 8.70735E-25
5.00000E-01 8.50014E-25
5.04363E-01 8.29836E-25
5.08726E-01 8.10183E-25
5.13088E-01 7.91040E-25
5.17450E-01 7.72390E-25
5.21810E-01 7.54219E-25
5.26168E-01 7.36513E-25
5.30524E-01 7.19256E-25
5.34878E-01 7.02437E-25
5.39230E-01 6.86042E-25
5.43578E-01 6.70057E-25
5.47923E-01 6.54473E-25
5.52264E-01 6.39275E-25
5.56602E-01 6.24454E-25
5.60935E-01 6.09998E-25
5.65263E-01 5.95897E-25
5.69587E-01 5.82140E-25
5.73905E-01 5.68719E-25
5.78217E-01 5.55622E-25
5.82524E-01 5.42842E-25
5.86824E-01 5.30368E-25
5.91118E-01 5.18193E-25
5.95404E-01 5.06309E-25
5.99684E-01 4.94706E-25
6.03956E-01 4.83378E-25
6.08220E-01 4.72317E-25
6.12476E-01 4.61516E-25
6.16723E-01 4.50967E-25
6.20961E-01 4.40663E-25
6.25190E-01 4.30599E-25
6.29410E-01 4.20767E-25
6.33619E-01 4.11162E-25
6.37819E-01 4.01777E-25
6.42008E-01 3.92607E-25
6.46186E-01 3.83646E-25
6.50353E-01 3.74888E-25
6.54508E-01 3.66329E-25
6.58652E-01 3.57962E-25
6.62784E-01 3.49784E-25
6.66903E-01 3.41789E-25
6.71010E-01 3.33972E-25
6.75104E-01 3.26330E-25
6.79184E-01 3.18857E-25
6.83251E-01 3.11549E-25
6.87303E-01 3.04403E-25
6.91342E-01 2.97414E-25
6.95366E-01 2.90578E-25
6.99375E-01 2.83891E-25
7.03368E-01 2.77350E-25
7.07347E-01 2.70952E-25
7.11309E-01 2.64692E-25
7.15256E-01 2.58567E-25
7.19186E-01 2.52575E-25
7.23099E-01 2.46711E-25
7.26995E-01 2.40974E-25
7.30874E-01 2.35359E-25
7.34736E-01 2.29863E-25
7.38579E-01 2.24485E-25
7.42405E-01 2.19222E-25
7.46212E-01 2.14070E-25
7.50000E-01 2.09026E-25
7.53769E-01 2.04090E-25
7.57519E-01 1.99257E-25
7.61249E-01 1.94526E-25
7.64960E-01 1.89895E-25
7.68650E-01 1.85360E-25
7.72320E-01 1.80920E-25
7.75968E-01 1.76573E-25
7.79596E-01 1.72317E-25
7.83203E-01 1.68149E-25
7.86788E-01 1.64068E-25
7.90351E-01 1.60071E-25
7.93893E-01 1.56157E-25
7.97411E-01 1.52325E-25
8.00908E-01 1.48571E-25
8.04381E-01 1.44896E-25
8.07831E-01 1.41296E-25
8.11257E-01 1.37770E-25
8.14660E-01 1.34317E-25
8.18039E-01 1.30935E-25
8.21394E-01 1.27622E-25
8.24724E-01 1.24378E-25
8.28030E-01 1.21200E-25
8.31310E-01 1.18088E-25
8.34565E-01 1.15040E-25
8.37795E-01 1.12054E-25
8.40999E-01 1.09130E-25
8.44177E-01 1.06266E-25
8.47329E-01 1.03460E-25
8.50455E-01 1.00713E-25
8.53553E-01 9.80217E-26
8.56625E-01 9.53861E-26
8.59670E-01 9.28048E-26
8.62687E-01 9.02767E-26
8.65677E-01 8.78009E-26
8.68639E-01 8.53763E-26
8.71572E-01 8.30019E-26
8.74478E-01 8.06767E-26
8.77355E-01 7.83998E-26
8.80203E-01 7.61704E-26
8.83022E-01 7.39874E-26
8.85812E-01 7.18501E-26
8.88573E-01 6.97576E-26
8.91304E-01 6.77090E-26
8.94005E-01 6.57035E-26
8.96677E-01 6.37405E-26
8.99318E-01 6.18191E-26
9.01928E-01 5.99385E-26
9.04508E-01 5.80980E-26
9.07058E-01 5.62970E-26
9.09576E-01 5.45348E-26
9.12063E-01 5.28106E-26
9.14519E-01 5.11238E-26
9.16943E-01 4.94739E-26
9.19335E-01 4.78600E-26
9.21696E-01 4.62818E-26
9.24024E-01 4.47385E-26
9.26320E-01 4.32296E-26
9.28584E-01 4.17546E-26
9.30815E-01 4.03128E-26
9.33013E-01 3.89038E-26
9.35178E-01 3.75271E-26
9.37310E-01 3.61821E-26
9.39409E-01 3.48683E-26
9.41474E-01 3.35854E-26
9.43505E-01 3.23328E-26
9.45503E-01 3.11100E-26
9.47467E-01 2.99167E-26
9.49397E-01 2.87523E-26
9.51293E-01 2.76166E-26
9.53154E-01 2.65091E-26
9.54981E-01 2.54293E-26
9.56773E-01 2.43770E-26
9.58530E-01 2.33517E-26
9.60252E-01 2.23531E-26
9.61940E-01 2.13808E-26
9.63592E-01 2.04345E-26
9.65209E-01 1.95139E-26
9.66790E-01 1.86186E-26
9.68336E-01 1.77484E-26
9.69846E-01 1.69029E-26
9.71321E-01 1.60819E-26
9.72759E-01 1.52850E-26
9.74162E-01 1.45121E-26
9.75528E-01 1.37627E-26
9.76858E-01 1.30367E-26
9.78152E-01 1.23339E-26
9.79410E-01 1.16539E-26
9.80631E-01 1.09966E-26
9.81815E-01 1.03618E-26
9.82963E-01 9.74914E-27
9.84074E-01 9.15851E-27
9.85148E-01 8.58971E-27
9.86185E-01 8.04252E-27
9.87185E-01 7.51679E-27
9.88148E-01 7.01232E-27
9.89074E-01 6.52894E-27
9.89962E-01 6.06651E-27
9.90814E-01 5.62486E-27
9.91627E-01 5.20385E-27
9.92404E-01 4.80334E-27
9.93143E-01 4.42319E-27
9.93844E-01 4.06329E-27
9.94508E-01 3.72350E-27
9.95134E-01 3.40372E-27
9.95722E-01 3.10385E-27
9.96273E-01 2.82378E-27
9.96786E-01 2.56342E-27
9.97261E-01 2.32269E-27
9.97698E-01 2.10151E-27
9.98097E-01 1.89980E-27
9.98459E-01 1.71750E-27
9.98782E-01 1.55455E-27
9.99067E-01 1.41090E-27
9.99315E-01 1.28650E-27
9.99524E-01 1.18130E-27
9.99695E-01 1.09528E-27
9.99829E-01 1.02840E-27
9.99924E-01 9.80643E-28
9.99981E-01 9.51997E-28
1.00000E+00 9.42450E-28
