 #
 # Subroutine ELSEPA. Elastic scattering of electrons and positrons
 #                    by neutral atoms and positive ions
 #
 # Projectile: electron
 # Kinetic energy = 1.00000E+09 eV = 3.67493E+07 a.u.
 #
 # WARNING: High-energy factorization with free-atom DF screening.
 #          Absorption, polarization and exchange corrections are
 #          switched off.
 #          Phase shifts are calculated for the bare nucleus.
 #          Scattering amplitudes are not evaluated.
 #
 # Element: Xe,  Z =  54,  atomic weight = 1.31290E+02 g/mol
 #
 # Nuclear model: Fermi distribution
 #                Average radius = 5.43827E-13 cm
 #                Skin thickness = 5.46000E-14 cm
 #
 # Number of electrons = 54
 #
 # Total elastic cross section = 5.84201E-18 cm**2 = 2.08622E-01 a0**2
 # 1st transport cross section = 5.68842E-27 cm**2 = 2.03137E-10 a0**2
 # 2nd transport cross section = 1.70636E-26 cm**2 = 6.09353E-10 a0**2
 #
 #
 # Differential cross section:                       MU=(1-COS(THETA))/2
 #
 #  THETA        MU          DCS          DCS        Sherman      error
 #  (deg)                 (cm**2/sr)   (a0**2/sr)    function
 #----------------------------------------------------------------------
0.00000E+00 4.29427E-08
7.61557E-13 3.66355E-08
1.18994E-12 3.36794E-08
1.71346E-12 3.05224E-08
2.33225E-12 2.73199E-08
3.04617E-12 2.42170E-08
3.85530E-12 2.13061E-08
4.75964E-12 1.86436E-08
5.75917E-12 1.62557E-08
6.85391E-12 1.41415E-08
8.04379E-12 1.22956E-08
9.32893E-12 1.06997E-08
1.07092E-11 9.32763E-09
1.21847E-11 8.15223E-09
1.37554E-11 7.14703E-09
1.54213E-11 6.28630E-09
1.71823E-11 5.55025E-09
1.90386E-11 4.91944E-09
2.09900E-11 4.37733E-09
2.30367E-11 3.90844E-09
2.51785E-11 3.48584E-09
2.74156E-11 3.12758E-09
2.97478E-11 2.82202E-09
3.21752E-11 2.55993E-09
3.46979E-11 2.33388E-09
3.73157E-11 2.12362E-09
4.00286E-11 1.93155E-09
4.28368E-11 1.76437E-09
4.57402E-11 1.61821E-09
4.87388E-11 1.48985E-09
5.18325E-11 1.37537E-09
5.50215E-11 1.26234E-09
5.83057E-11 1.16241E-09
6.16850E-11 1.07377E-09
6.51595E-11 9.94868E-10
6.87293E-11 9.24400E-10
7.23943E-11 8.56834E-10
7.61544E-11 7.93637E-10
1.18991E-10 3.99302E-10
1.71347E-10 2.19326E-10
2.33223E-10 1.30815E-10
3.04617E-10 8.36969E-11
3.85531E-10 5.65108E-11
4.75965E-10 3.97016E-11
5.75917E-10 2.87355E-11
6.85389E-10 2.12494E-11
8.04380E-10 1.60191E-11
9.32891E-10 1.22804E-11
1.07092E-09 9.55343E-12
1.21847E-09 7.53142E-12
1.37554E-09 6.01186E-12
1.54213E-09 4.85538E-12
1.71823E-09 3.96470E-12
1.90386E-09 3.26986E-12
2.09900E-09 2.72132E-12
2.30367E-09 2.28360E-12
2.51785E-09 1.93028E-12
2.74156E-09 1.64459E-12
2.97478E-09 1.40921E-12
3.21752E-09 1.21534E-12
3.46978E-09 1.05348E-12
3.73156E-09 9.17924E-13
4.00286E-09 8.03552E-13
4.28368E-09 7.06417E-13
4.57402E-09 6.23677E-13
4.87388E-09 5.52508E-13
5.18326E-09 4.91403E-13
5.50215E-09 4.38295E-13
5.83057E-09 3.92333E-13
6.16850E-09 3.52079E-13
6.51596E-09 3.16937E-13
6.87293E-09 2.86001E-13
7.23942E-09 2.58763E-13
7.61544E-09 2.34674E-13
1.18991E-08 9.86203E-14
1.71347E-08 4.82831E-14
2.33223E-08 2.63318E-14
3.04617E-08 1.55559E-14
3.85531E-08 9.77285E-15
4.75965E-08 6.44547E-15
5.75917E-08 4.42171E-15
6.85389E-08 3.13364E-15
8.04380E-08 2.28228E-15
9.32891E-08 1.70137E-15
1.07092E-07 1.29402E-15
1.21847E-07 1.00158E-15
1.37554E-07 7.87234E-16
1.54213E-07 6.27258E-16
1.71823E-07 5.05911E-16
1.90386E-07 4.12524E-16
2.09900E-07 3.39714E-16
2.30367E-07 2.82273E-16
2.51785E-07 2.36470E-16
2.74156E-07 1.99586E-16
2.97478E-07 1.69618E-16
3.21752E-07 1.45067E-16
3.46978E-07 1.24799E-16
3.73156E-07 1.07949E-16
4.00286E-07 9.38486E-17
4.28368E-07 8.19757E-17
4.57402E-07 7.19218E-17
4.87388E-07 6.33625E-17
5.18325E-07 5.60390E-17
5.50215E-07 4.97434E-17
5.83057E-07 4.43073E-17
6.16850E-07 3.95936E-17
6.51596E-07 3.54903E-17
6.87293E-07 3.19050E-17
7.23942E-07 2.87611E-17
7.61543E-07 2.59950E-17
1.18991E-06 1.06590E-17
1.71347E-06 5.14369E-18
2.33223E-06 2.77769E-18
3.04617E-06 1.62879E-18
3.85531E-06 1.01714E-18
4.75964E-06 6.67516E-19
5.75916E-06 4.56029E-19
6.85388E-06 3.22057E-19
8.04378E-06 2.33869E-19
9.32888E-06 1.73909E-19
1.07092E-05 1.31994E-19
1.21846E-05 1.01982E-19
1.37553E-05 8.00365E-20
1.54212E-05 6.36906E-20
1.71822E-05 5.13135E-20
1.90385E-05 4.17893E-20
2.09899E-05 3.43999E-20
2.30365E-05 2.85714E-20
2.51783E-05 2.39230E-20
2.74153E-05 2.01796E-20
2.97475E-05 1.71391E-20
3.21749E-05 1.46503E-20
3.46974E-05 1.25983E-20
3.73152E-05 1.08944E-20
4.00281E-05 9.46995E-21
4.28362E-05 8.27137E-21
4.57395E-05 7.25663E-21
4.87380E-05 6.39265E-21
5.18317E-05 5.65327E-21
5.50205E-05 5.01758E-21
5.83045E-05 4.46874E-21
6.16838E-05 3.99299E-21
6.51582E-05 3.57903E-21
6.87277E-05 3.21749E-21
7.23925E-05 2.90058E-21
7.61524E-05 2.59352E-21
9.21439E-05 1.76046E-21
1.09658E-04 1.23356E-21
1.28695E-04 8.87664E-22
1.49255E-04 6.53136E-22
1.71338E-04 4.89859E-22
1.94942E-04 3.73470E-22
2.20070E-04 2.88828E-22
2.46720E-04 2.26175E-22
2.74892E-04 1.79063E-22
3.04586E-04 1.43151E-22
3.35803E-04 1.15431E-22
3.68542E-04 9.37982E-23
4.02802E-04 7.67467E-23
4.38585E-04 6.31845E-23
4.75889E-04 5.23099E-23
5.14715E-04 4.35247E-23
5.55063E-04 3.63799E-23
5.96931E-04 3.05331E-23
6.40321E-04 2.57215E-23
6.85233E-04 2.17414E-23
7.31665E-04 1.84333E-23
7.79618E-04 1.56720E-23
8.29092E-04 1.33578E-23
8.80086E-04 1.14112E-23
9.32601E-04 9.76824E-24
9.86636E-04 8.37729E-24
1.04219E-03 7.19636E-24
1.09927E-03 6.19108E-24
1.15786E-03 5.33330E-24
1.21797E-03 4.59976E-24
1.27961E-03 3.97121E-24
1.34276E-03 3.43164E-24
1.40743E-03 2.96768E-24
1.47362E-03 2.56814E-24
1.54133E-03 2.22361E-24
1.61056E-03 1.92615E-24
1.68131E-03 1.66905E-24
1.75357E-03 1.44663E-24
1.82735E-03 1.25405E-24
1.90265E-03 1.08718E-24
1.97947E-03 9.42502E-25
2.05780E-03 8.17007E-25
2.13765E-03 7.08106E-25
2.21902E-03 6.13578E-25
2.30190E-03 5.31510E-25
2.38630E-03 4.60252E-25
2.47222E-03 3.98379E-25
2.55965E-03 3.44660E-25
2.64859E-03 2.98029E-25
2.73905E-03 2.57560E-25
2.83103E-03 2.22451E-25
2.92452E-03 1.92006E-25
3.01952E-03 1.65617E-25
3.11604E-03 1.42759E-25
3.21407E-03 1.22972E-25
3.31362E-03 1.05856E-25
3.41468E-03 9.10629E-26
3.51725E-03 7.82889E-26
3.62133E-03 6.72691E-26
3.72692E-03 5.77727E-26
3.83403E-03 4.95980E-26
3.94265E-03 4.25695E-26
4.05278E-03 3.65339E-26
4.16442E-03 3.13577E-26
4.27757E-03 2.69244E-26
4.39223E-03 2.31326E-26
4.50840E-03 1.98941E-26
4.62608E-03 1.71320E-26
4.74527E-03 1.47795E-26
4.86597E-03 1.27786E-26
4.98817E-03 1.10791E-26
5.11188E-03 9.63712E-27
5.23711E-03 8.41505E-27
5.36383E-03 7.38021E-27
5.49207E-03 6.50439E-27
5.62181E-03 5.76335E-27
5.75306E-03 5.13617E-27
5.88581E-03 4.60496E-27
6.02007E-03 4.15437E-27
6.15583E-03 3.77129E-27
6.29310E-03 3.44459E-27
6.43187E-03 3.16476E-27
6.57214E-03 2.92380E-27
6.71392E-03 2.71495E-27
6.85720E-03 2.53254E-27
7.00198E-03 2.37180E-27
7.14827E-03 2.22880E-27
7.29605E-03 2.10028E-27
7.44534E-03 1.98353E-27
7.59612E-03 1.87639E-27
7.97965E-03 1.63970E-27
8.37255E-03 1.43360E-27
8.77480E-03 1.24776E-27
9.18641E-03 1.07729E-27
9.60736E-03 9.20346E-28
1.00376E-02 7.76683E-28
1.04773E-02 6.46644E-28
1.09262E-02 5.30630E-28
1.13844E-02 4.28807E-28
1.18520E-02 3.40987E-28
1.23288E-02 2.66613E-28
1.28150E-02 2.04810E-28
1.33104E-02 1.54460E-28
1.38150E-02 1.14290E-28
1.43290E-02 8.29511E-29
1.48521E-02 5.90943E-29
1.53845E-02 4.14238E-29
1.59262E-02 2.87409E-29
1.64770E-02 1.99716E-29
1.70371E-02 1.41817E-29
1.76063E-02 1.05817E-29
1.81848E-02 8.52333E-30
1.87724E-02 7.49061E-30
1.93692E-02 7.08624E-30
1.99751E-02 7.01639E-30
2.05901E-02 7.07427E-30
2.12143E-02 7.12400E-30
2.18476E-02 7.08543E-30
2.24900E-02 6.92046E-30
2.31415E-02 6.62114E-30
2.38021E-02 6.19967E-30
2.44717E-02 5.68037E-30
2.51504E-02 5.09342E-30
2.58382E-02 4.47016E-30
2.65349E-02 3.83992E-30
2.72407E-02 3.22795E-30
2.79555E-02 2.65435E-30
2.86793E-02 2.13366E-30
2.94120E-02 1.67506E-30
3.01537E-02 1.28292E-30
3.09043E-02 9.57504E-31
3.16639E-02 6.95863E-31
3.24324E-02 4.92666E-31
3.32098E-02 3.41035E-31
3.39961E-02 2.33253E-31
3.47912E-02 1.61378E-31
3.55952E-02 1.17715E-31
3.64081E-02 9.51644E-32
3.72297E-02 8.74629E-32
3.80602E-02 8.93086E-32
3.88995E-02 9.64084E-32
3.97476E-02 1.05454E-31
4.06044E-02 1.14051E-31
4.14700E-02 1.20610E-31
4.23443E-02 1.24220E-31
4.32273E-02 1.24518E-31
4.41190E-02 1.21556E-31
4.50194E-02 1.15681E-31
4.59284E-02 1.07424E-31
4.68461E-02 9.74125E-32
4.87074E-02 7.46963E-32
5.06030E-02 5.21321E-32
5.25328E-02 3.29115E-32
5.44967E-02 1.85801E-32
5.64946E-02 9.28858E-33
5.85262E-02 4.26304E-33
6.05914E-02 2.29645E-33
6.26901E-02 2.14332E-33
6.48222E-02 2.77077E-33
6.69873E-02 3.46969E-33
6.91854E-02 3.85786E-33
7.14163E-02 3.81683E-33
7.36799E-02 3.40178E-33
7.59760E-02 2.75305E-33
7.83043E-02 2.02680E-33
8.06647E-02 1.35112E-33
8.30571E-02 8.06354E-34
8.54812E-02 4.23894E-34
8.79369E-02 1.96357E-34
9.04240E-02 9.23408E-35
9.29422E-02 7.08916E-35
9.54915E-02 9.26897E-35
9.80716E-02 1.26852E-34
1.00682E-01 1.53580E-34
1.03323E-01 1.63645E-34
1.05995E-01 1.55999E-34
1.08696E-01 1.34675E-34
1.11427E-01 1.05860E-34
1.14188E-01 7.56689E-35
1.16978E-01 4.87863E-35
1.19797E-01 2.79309E-35
1.22645E-01 1.39352E-35
1.25522E-01 6.19499E-36
1.28428E-01 3.25749E-36
1.31361E-01 3.37788E-36
1.34323E-01 4.94183E-36
1.37313E-01 6.71672E-36
1.40330E-01 7.94205E-36
1.43375E-01 8.29780E-36
1.46447E-01 7.79991E-36
1.49545E-01 6.66887E-36
1.52671E-01 5.20652E-36
1.55823E-01 3.70185E-36
1.59001E-01 2.37379E-36
1.62205E-01 1.34869E-36
1.65435E-01 6.64523E-37
1.68690E-01 2.91301E-37
1.71970E-01 1.58064E-37
1.75276E-01 1.78817E-37
1.78606E-01 2.72781E-37
1.81961E-01 3.76981E-37
1.85340E-01 4.51378E-37
1.88743E-01 4.78055E-37
1.92169E-01 4.56597E-37
1.95619E-01 3.97840E-37
1.99092E-01 3.17668E-37
2.02589E-01 2.32040E-37
2.06107E-01 1.53745E-37
2.09649E-01 9.08911E-38
2.13212E-01 1.00000E-45
2.16797E-01 1.00000E-45
2.20404E-01 1.00000E-45
2.24032E-01 1.00000E-45
2.27680E-01 1.00000E-45
2.31350E-01 1.00000E-45
2.35040E-01 1.00000E-45
2.38751E-01 1.00000E-45
2.42481E-01 1.00000E-45
2.46231E-01 1.00000E-45
2.50000E-01 1.00000E-45
2.53788E-01 1.00000E-45
2.57595E-01 1.00000E-45
2.61421E-01 1.00000E-45
2.65264E-01 1.00000E-45
2.69126E-01 1.00000E-45
2.73005E-01 1.00000E-45
2.76901E-01 1.00000E-45
2.80814E-01 1.00000E-45
2.84744E-01 1.00000E-45
2.88691E-01 1.00000E-45
2.92653E-01 1.00000E-45
2.96632E-01 1.00000E-45
3.00625E-01 1.00000E-45
3.04634E-01 1.00000E-45
3.08658E-01 1.00000E-45
3.12697E-01 1.00000E-45
3.16749E-01 1.00000E-45
3.20816E-01 1.00000E-45
3.24896E-01 1.00000E-45
3.28990E-01 1.00000E-45
3.33097E-01 1.00000E-45
3.37216E-01 1.00000E-45
3.41348E-01 1.00000E-45
3.45492E-01 1.00000E-45
3.49647E-01 1.00000E-45
3.53814E-01 1.00000E-45
3.57992E-01 1.00000E-45
3.62181E-01 1.00000E-45
3.66381E-01 1.00000E-45
3.70590E-01 1.00000E-45
3.74810E-01 1.00000E-45
3.79039E-01 1.00000E-45
3.83277E-01 1.00000E-45
3.87524E-01 1.00000E-45
3.91780E-01 1.00000E-45
3.96044E-01 1.00000E-45
4.00316E-01 1.00000E-45
4.04596E-01 1.00000E-45
4.08882E-01 1.00000E-45
4.13176E-01 1.00000E-45
4.17476E-01 1.00000E-45
4.21783E-01 1.00000E-45
4.26095E-01 1.00000E-45
4.30413E-01 1.00000E-45
4.34737E-01 1.00000E-45
4.39065E-01 1.00000E-45
4.43398E-01 1.00000E-45
4.47736E-01 1.00000E-45
4.52077E-01 1.00000E-45
4.56422E-01 1.00000E-45
4.60770E-01 1.00000E-45
4.65122E-01 1.00000E-45
4.69476E-01 1.00000E-45
4.73832E-01 1.00000E-45
4.78190E-01 1.00000E-45
4.82550E-01 1.00000E-45
4.86912E-01 1.00000E-45
4.91274E-01 1.00000E-45
4.95637E-01 1.00000E-45
5.00000E-01 1.00000E-45
5.04363E-01 1.00000E-45
5.08726E-01 1.00000E-45
5.13088E-01 1.00000E-45
5.17450E-01 1.00000E-45
5.21810E-01 1.00000E-45
5.26168E-01 1.00000E-45
5.30524E-01 1.00000E-45
5.34878E-01 1.00000E-45
5.39230E-01 1.00000E-45
5.43578E-01 1.00000E-45
5.47923E-01 1.00000E-45
5.52264E-01 1.00000E-45
5.56602E-01 1.00000E-45
5.60935E-01 1.00000E-45
5.65263E-01 1.00000E-45
5.69587E-01 1.00000E-45
5.73905E-01 1.00000E-45
5.78217E-01 1.00000E-45
5.82524E-01 1.00000E-45
5.86824E-01 1.00000E-45
5.91118E-01 1.00000E-45
5.95404E-01 1.00000E-45
5.99684E-01 1.00000E-45
6.03956E-01 1.00000E-45
6.08220E-01 1.00000E-45
6.12476E-01 1.00000E-45
6.16723E-01 1.00000E-45
6.20961E-01 1.00000E-45
6.25190E-01 1.00000E-45
6.29410E-01 1.00000E-45
6.33619E-01 1.00000E-45
6.37819E-01 1.00000E-45
6.42008E-01 1.00000E-45
6.46186E-01 1.00000E-45
6.50353E-01 1.00000E-45
6.54508E-01 1.00000E-45
6.58652E-01 1.00000E-45
6.62784E-01 1.00000E-45
6.66903E-01 1.00000E-45
6.71010E-01 1.00000E-45
6.75104E-01 1.00000E-45
6.79184E-01 1.00000E-45
6.83251E-01 1.00000E-45
6.87303E-01 1.00000E-45
6.91342E-01 1.00000E-45
6.95366E-01 1.00000E-45
6.99375E-01 1.00000E-45
7.03368E-01 1.00000E-45
7.07347E-01 1.00000E-45
7.11309E-01 1.00000E-45
7.15256E-01 1.00000E-45
7.19186E-01 1.00000E-45
7.23099E-01 1.00000E-45
7.26995E-01 1.00000E-45
7.30874E-01 1.00000E-45
7.34736E-01 1.00000E-45
7.38579E-01 1.00000E-45
7.42405E-01 1.00000E-45
7.46212E-01 1.00000E-45
7.50000E-01 1.00000E-45
7.53769E-01 1.00000E-45
7.57519E-01 1.00000E-45
7.61249E-01 1.00000E-45
7.64960E-01 1.00000E-45
7.68650E-01 1.00000E-45
7.72320E-01 1.00000E-45
7.75968E-01 1.00000E-45
7.79596E-01 1.00000E-45
7.83203E-01 1.00000E-45
7.86788E-01 1.00000E-45
7.90351E-01 1.00000E-45
7.93893E-01 1.00000E-45
7.97411E-01 1.00000E-45
8.00908E-01 1.00000E-45
8.04381E-01 1.00000E-45
8.07831E-01 1.00000E-45
8.11257E-01 1.00000E-45
8.14660E-01 1.00000E-45
8.18039E-01 1.00000E-45
8.21394E-01 1.00000E-45
8.24724E-01 1.00000E-45
8.28030E-01 1.00000E-45
8.31310E-01 1.00000E-45
8.34565E-01 1.00000E-45
8.37795E-01 1.00000E-45
8.40999E-01 1.00000E-45
8.44177E-01 1.00000E-45
8.47329E-01 1.00000E-45
8.50455E-01 1.00000E-45
8.53553E-01 1.00000E-45
8.56625E-01 1.00000E-45
8.59670E-01 1.00000E-45
8.62687E-01 1.00000E-45
8.65677E-01 1.00000E-45
8.68639E-01 1.00000E-45
8.71572E-01 1.00000E-45
8.74478E-01 1.00000E-45
8.77355E-01 1.00000E-45
8.80203E-01 1.00000E-45
8.83022E-01 1.00000E-45
8.85812E-01 1.00000E-45
8.88573E-01 1.00000E-45
8.91304E-01 1.00000E-45
8.94005E-01 1.00000E-45
8.96677E-01 1.00000E-45
8.99318E-01 1.00000E-45
9.01928E-01 1.00000E-45
9.04508E-01 1.00000E-45
9.07058E-01 1.00000E-45
9.09576E-01 1.00000E-45
9.12063E-01 1.00000E-45
9.14519E-01 1.00000E-45
9.16943E-01 1.00000E-45
9.19335E-01 1.00000E-45
9.21696E-01 1.00000E-45
9.24024E-01 1.00000E-45
9.26320E-01 1.00000E-45
9.28584E-01 1.00000E-45
9.30815E-01 1.00000E-45
9.33013E-01 1.00000E-45
9.35178E-01 1.00000E-45
9.37310E-01 1.00000E-45
9.39409E-01 1.00000E-45
9.41474E-01 1.00000E-45
9.43505E-01 1.00000E-45
9.45503E-01 1.00000E-45
9.47467E-01 1.00000E-45
9.49397E-01 1.00000E-45
9.51293E-01 1.00000E-45
9.53154E-01 1.00000E-45
9.54981E-01 1.00000E-45
9.56773E-01 1.00000E-45
9.58530E-01 1.00000E-45
9.60252E-01 1.00000E-45
9.61940E-01 1.00000E-45
9.63592E-01 1.00000E-45
9.65209E-01 1.00000E-45
9.66790E-01 1.00000E-45
9.68336E-01 1.00000E-45
9.69846E-01 1.00000E-45
9.71321E-01 1.00000E-45
9.72759E-01 1.00000E-45
9.74162E-01 1.00000E-45
9.75528E-01 1.00000E-45
9.76858E-01 1.00000E-45
9.78152E-01 1.00000E-45
9.79410E-01 1.00000E-45
9.80631E-01 1.00000E-45
9.81815E-01 1.00000E-45
9.82963E-01 1.00000E-45
9.84074E-01 1.00000E-45
9.85148E-01 1.00000E-45
9.86185E-01 1.00000E-45
9.87185E-01 1.00000E-45
9.88148E-01 1.00000E-45
9.89074E-01 1.00000E-45
9.89962E-01 1.00000E-45
9.90814E-01 1.00000E-45
9.91627E-01 1.00000E-45
9.92404E-01 1.00000E-45
9.93143E-01 1.00000E-45
9.93844E-01 1.00000E-45
9.94508E-01 1.00000E-45
9.95134E-01 1.00000E-45
9.95722E-01 1.00000E-45
9.96273E-01 1.00000E-45
9.96786E-01 1.00000E-45
9.97261E-01 1.00000E-45
9.97698E-01 1.00000E-45
9.98097E-01 1.00000E-45
9.98459E-01 1.00000E-45
9.98782E-01 1.00000E-45
9.99067E-01 1.00000E-45
9.99315E-01 1.00000E-45
9.99524E-01 1.00000E-45
9.99695E-01 1.00000E-45
9.99829E-01 1.00000E-45
9.99924E-01 1.00000E-45
9.99981E-01 1.00000E-45
1.00000E+00 1.00000E-45
