 #
 # Subroutine ELSEPA. Elastic scattering of electrons and positrons
 #                    by neutral atoms and positive ions
 #
 # Projectile: electron
 # Kinetic energy = 4.00000E+07 eV = 1.46997E+06 a.u.
 #
 # WARNING: High-energy factorization with free-atom DF screening.
 #          Absorption, polarization and exchange corrections are
 #          switched off.
 #          Phase shifts are calculated for the bare nucleus.
 #          Scattering amplitudes are not evaluated.
 #
 # Element: Xe,  Z =  54,  atomic weight = 1.31290E+02 g/mol
 #
 # Nuclear model: Fermi distribution
 #                Average radius = 5.43827E-13 cm
 #                Skin thickness = 5.46000E-14 cm
 #
 # Number of electrons = 54
 #
 # Total elastic cross section = 5.87169E-18 cm**2 = 2.09682E-01 a0**2
 # 1st transport cross section = 3.46830E-24 cm**2 = 1.23855E-07 a0**2
 # 2nd transport cross section = 1.00963E-23 cm**2 = 3.60544E-07 a0**2
 #
 #
 # Differential cross section:                       MU=(1-COS(THETA))/2
 #
 #  THETA        MU          DCS          DCS        Sherman      error
 #  (deg)                 (cm**2/sr)   (a0**2/sr)    function
 #----------------------------------------------------------------------
0.00000E+00 7.04031E-11
7.61557E-13 7.03838E-11
1.18994E-12 7.03731E-11
1.71346E-12 7.03600E-11
2.33225E-12 7.03445E-11
3.04617E-12 7.03266E-11
3.85530E-12 7.03064E-11
4.75964E-12 7.02839E-11
5.75917E-12 7.02590E-11
6.85391E-12 7.02317E-11
8.04379E-12 7.02021E-11
9.32893E-12 7.01701E-11
1.07092E-11 7.01358E-11
1.21847E-11 7.00992E-11
1.37554E-11 7.00602E-11
1.54213E-11 7.00189E-11
1.71823E-11 6.99753E-11
1.90386E-11 6.99294E-11
2.09900E-11 6.98812E-11
2.30367E-11 6.98307E-11
2.51785E-11 6.97779E-11
2.74156E-11 6.97228E-11
2.97478E-11 6.96655E-11
3.21752E-11 6.96058E-11
3.46979E-11 6.95440E-11
3.73157E-11 6.94799E-11
4.00286E-11 6.94135E-11
4.28368E-11 6.93449E-11
4.57402E-11 6.92741E-11
4.87388E-11 6.92011E-11
5.18325E-11 6.91259E-11
5.50215E-11 6.90485E-11
5.83057E-11 6.89689E-11
6.16850E-11 6.88872E-11
6.51595E-11 6.88033E-11
6.87293E-11 6.87173E-11
7.23943E-11 6.86291E-11
7.61544E-11 6.85388E-11
1.18991E-10 6.75227E-11
1.71347E-10 6.63015E-11
2.33223E-10 6.49121E-11
3.04617E-10 6.33614E-11
3.85531E-10 6.16564E-11
4.75965E-10 5.98373E-11
5.75917E-10 5.79289E-11
6.85389E-10 5.59301E-11
8.04380E-10 5.38614E-11
9.32891E-10 5.17638E-11
1.07092E-09 4.96566E-11
1.21847E-09 4.75216E-11
1.37554E-09 4.53949E-11
1.54213E-09 4.33034E-11
1.71823E-09 4.12576E-11
1.90386E-09 3.92287E-11
2.09900E-09 3.72607E-11
2.30367E-09 3.53632E-11
2.51785E-09 3.35366E-11
2.74156E-09 3.17577E-11
2.97478E-09 3.00610E-11
3.21752E-09 2.84459E-11
3.46978E-09 2.69052E-11
3.73156E-09 2.54288E-11
4.00286E-09 2.40336E-11
4.28368E-09 2.27165E-11
4.57402E-09 2.14672E-11
4.87388E-09 2.02832E-11
5.18326E-09 1.91704E-11
5.50215E-09 1.81249E-11
5.83057E-09 1.71367E-11
6.16850E-09 1.62065E-11
6.51596E-09 1.53347E-11
6.87293E-09 1.45175E-11
7.23942E-09 1.37463E-11
7.61544E-09 1.30231E-11
1.18991E-08 7.83759E-12
1.71347E-08 4.97345E-12
2.33223E-08 3.36959E-12
3.04617E-08 2.36783E-12
3.85531E-08 1.70212E-12
4.75965E-08 1.25482E-12
5.75917E-08 9.43097E-13
6.85389E-08 7.17448E-13
8.04380E-08 5.53679E-13
9.32891E-08 4.34192E-13
1.07092E-07 3.45424E-13
1.21847E-07 2.78192E-13
1.37554E-07 2.26980E-13
1.54213E-07 1.87455E-13
1.71823E-07 1.56514E-13
1.90386E-07 1.31849E-13
2.09900E-07 1.12042E-13
2.30367E-07 9.59567E-14
2.51785E-07 8.27452E-14
2.74156E-07 7.17178E-14
2.97478E-07 6.25012E-14
3.21752E-07 5.47403E-14
3.46978E-07 4.81498E-14
3.73156E-07 4.24708E-14
4.00286E-07 3.76017E-14
4.28368E-07 3.34072E-14
4.57402E-07 2.97671E-14
4.87388E-07 2.65955E-14
5.18325E-07 2.38317E-14
5.50215E-07 2.14137E-14
5.83057E-07 1.92839E-14
6.16850E-07 1.74058E-14
6.51596E-07 1.57482E-14
6.87293E-07 1.42807E-14
7.23942E-07 1.29745E-14
7.61543E-07 1.18127E-14
1.18991E-06 5.12665E-15
1.71347E-06 2.57836E-15
2.33223E-06 1.43931E-15
3.04617E-06 8.66150E-16
3.85531E-06 5.51826E-16
4.75964E-06 3.67750E-16
5.75916E-06 2.54234E-16
6.85388E-06 1.81224E-16
8.04378E-06 1.32584E-16
9.32888E-06 9.91908E-17
1.07092E-05 7.56707E-17
1.21846E-05 5.87241E-17
1.37553E-05 4.62671E-17
1.54212E-05 3.69460E-17
1.71822E-05 2.98599E-17
1.90385E-05 2.43871E-17
2.09899E-05 2.01275E-17
2.30365E-05 1.67579E-17
2.51783E-05 1.40631E-17
2.74153E-05 1.18875E-17
2.97475E-05 1.01162E-17
3.21749E-05 8.66298E-18
3.46974E-05 7.46221E-18
3.73152E-05 6.46321E-18
4.00281E-05 5.62650E-18
4.28362E-05 4.92121E-18
4.57395E-05 4.32309E-18
4.87380E-05 3.81303E-18
5.18317E-05 3.37586E-18
5.50205E-05 2.99945E-18
5.83045E-05 2.67404E-18
6.16838E-05 2.39161E-18
6.51582E-05 2.14556E-18
6.87277E-05 1.93043E-18
7.23925E-05 1.74164E-18
7.61524E-05 1.57572E-18
9.21439E-05 1.07979E-18
1.09658E-04 7.64477E-19
1.28695E-04 5.56373E-19
1.49255E-04 4.14482E-19
1.71338E-04 3.15110E-19
1.94942E-04 2.43817E-19
2.20070E-04 1.91605E-19
2.46720E-04 1.52661E-19
2.74892E-04 1.23133E-19
3.04586E-04 1.00419E-19
3.35803E-04 8.27130E-20
3.68542E-04 6.87480E-20
4.02802E-04 5.76132E-20
4.38585E-04 4.86472E-20
4.75889E-04 4.13621E-20
5.14715E-04 3.53930E-20
5.55063E-04 3.04648E-20
5.96931E-04 2.63668E-20
6.40321E-04 2.29366E-20
6.85233E-04 2.00476E-20
7.31665E-04 1.76004E-20
7.79618E-04 1.55164E-20
8.29092E-04 1.37326E-20
8.80086E-04 1.21985E-20
9.32601E-04 1.08734E-20
9.86636E-04 9.72386E-21
1.04219E-03 8.72275E-21
1.09927E-03 7.84758E-21
1.15786E-03 7.07979E-21
1.21797E-03 6.40392E-21
1.27961E-03 5.80708E-21
1.34276E-03 5.27841E-21
1.40743E-03 4.80875E-21
1.47362E-03 4.39036E-21
1.54133E-03 4.01666E-21
1.61056E-03 3.68204E-21
1.68131E-03 3.38169E-21
1.75357E-03 3.11145E-21
1.82735E-03 2.86778E-21
1.90265E-03 2.64761E-21
1.97947E-03 2.44825E-21
2.05780E-03 2.26739E-21
2.13765E-03 2.10299E-21
2.21902E-03 1.95329E-21
2.30190E-03 1.81673E-21
2.38630E-03 1.69196E-21
2.47222E-03 1.57777E-21
2.55965E-03 1.47309E-21
2.64859E-03 1.37700E-21
2.73905E-03 1.28865E-21
2.83103E-03 1.20731E-21
2.92452E-03 1.13232E-21
3.01952E-03 1.06309E-21
3.11604E-03 9.99096E-22
3.21407E-03 9.39874E-22
3.31362E-03 8.84996E-22
3.41468E-03 8.34087E-22
3.51725E-03 7.86808E-22
3.62133E-03 7.42850E-22
3.72692E-03 7.01935E-22
3.83403E-03 6.63813E-22
3.94265E-03 6.28260E-22
4.05278E-03 5.95069E-22
4.16442E-03 5.64054E-22
4.27757E-03 5.35043E-22
4.39223E-03 5.07886E-22
4.50840E-03 4.82440E-22
4.62608E-03 4.58578E-22
4.74527E-03 4.36180E-22
4.86597E-03 4.15141E-22
4.98817E-03 3.95365E-22
5.11188E-03 3.76759E-22
5.23711E-03 3.59240E-22
5.36383E-03 3.42734E-22
5.49207E-03 3.27172E-22
5.62181E-03 3.12489E-22
5.75306E-03 2.98624E-22
5.88581E-03 2.85525E-22
6.02007E-03 2.73141E-22
6.15583E-03 2.61426E-22
6.29310E-03 2.50334E-22
6.43187E-03 2.39830E-22
6.57214E-03 2.29875E-22
6.71392E-03 2.20433E-22
6.85720E-03 2.11474E-22
7.00198E-03 2.02969E-22
7.14827E-03 1.94890E-22
7.29605E-03 1.87210E-22
7.44534E-03 1.79909E-22
7.59612E-03 1.72962E-22
7.97965E-03 1.57014E-22
8.37255E-03 1.42874E-22
8.77480E-03 1.30300E-22
9.18641E-03 1.19086E-22
9.60736E-03 1.09061E-22
1.00376E-02 1.00074E-22
1.04773E-02 9.19995E-23
1.09262E-02 8.47276E-23
1.13844E-02 7.81642E-23
1.18520E-02 7.22276E-23
1.23288E-02 6.68470E-23
1.28150E-02 6.19608E-23
1.33104E-02 5.75151E-23
1.38150E-02 5.34627E-23
1.43290E-02 4.97628E-23
1.48521E-02 4.63789E-23
1.53845E-02 4.32790E-23
1.59262E-02 4.04349E-23
1.64770E-02 3.78215E-23
1.70371E-02 3.54167E-23
1.76063E-02 3.32007E-23
1.81848E-02 3.11559E-23
1.87724E-02 2.92666E-23
1.93692E-02 2.75187E-23
1.99751E-02 2.58997E-23
2.05901E-02 2.43984E-23
2.12143E-02 2.30044E-23
2.18476E-02 2.17088E-23
2.24900E-02 2.05032E-23
2.31415E-02 1.93802E-23
2.38021E-02 1.83331E-23
2.44717E-02 1.73559E-23
2.51504E-02 1.64428E-23
2.58382E-02 1.55890E-23
2.65349E-02 1.47899E-23
2.72407E-02 1.40413E-23
2.79555E-02 1.33394E-23
2.86793E-02 1.26807E-23
2.94120E-02 1.20620E-23
3.01537E-02 1.14806E-23
3.09043E-02 1.09336E-23
3.16639E-02 1.04188E-23
3.24324E-02 9.93371E-24
3.32098E-02 9.47644E-24
3.39961E-02 9.04505E-24
3.47912E-02 8.63780E-24
3.55952E-02 8.25308E-24
3.64081E-02 7.88941E-24
3.72297E-02 7.54541E-24
3.80602E-02 7.21983E-24
3.88995E-02 6.91148E-24
3.97476E-02 6.61928E-24
4.06044E-02 6.34223E-24
4.14700E-02 6.07939E-24
4.23443E-02 5.82988E-24
4.32273E-02 5.59292E-24
4.41190E-02 5.36774E-24
4.50194E-02 5.15366E-24
4.59284E-02 4.95001E-24
4.68461E-02 4.75620E-24
4.87074E-02 4.39585E-24
5.06030E-02 4.06854E-24
5.25328E-02 3.77069E-24
5.44967E-02 3.49917E-24
5.64946E-02 3.25125E-24
5.85262E-02 3.02451E-24
6.05914E-02 2.81682E-24
6.26901E-02 2.62628E-24
6.48222E-02 2.45124E-24
6.69873E-02 2.29022E-24
6.91854E-02 2.14188E-24
7.14163E-02 2.00505E-24
7.36799E-02 1.87869E-24
7.59760E-02 1.76185E-24
7.83043E-02 1.65368E-24
8.06647E-02 1.55344E-24
8.30571E-02 1.46044E-24
8.54812E-02 1.37407E-24
8.79369E-02 1.29376E-24
9.04240E-02 1.21903E-24
9.29422E-02 1.14942E-24
9.54915E-02 1.08451E-24
9.80716E-02 1.02394E-24
1.00682E-01 9.67367E-25
1.03323E-01 9.14479E-25
1.05995E-01 8.64998E-25
1.08696E-01 8.18667E-25
1.11427E-01 7.75252E-25
1.14188E-01 7.34539E-25
1.16978E-01 6.96331E-25
1.19797E-01 6.60450E-25
1.22645E-01 6.26729E-25
1.25522E-01 5.95018E-25
1.28428E-01 5.65177E-25
1.31361E-01 5.37079E-25
1.34323E-01 5.10604E-25
1.37313E-01 4.85644E-25
1.40330E-01 4.62099E-25
1.43375E-01 4.39876E-25
1.46447E-01 4.18888E-25
1.49545E-01 3.99056E-25
1.52671E-01 3.80307E-25
1.55823E-01 3.62572E-25
1.59001E-01 3.45789E-25
1.62205E-01 3.29897E-25
1.65435E-01 3.14843E-25
1.68690E-01 3.00576E-25
1.71970E-01 2.87048E-25
1.75276E-01 2.74216E-25
1.78606E-01 2.62038E-25
1.81961E-01 2.50476E-25
1.85340E-01 2.39494E-25
1.88743E-01 2.29059E-25
1.92169E-01 2.19140E-25
1.95619E-01 2.09708E-25
1.99092E-01 2.00735E-25
2.02589E-01 1.92197E-25
2.06107E-01 1.84068E-25
2.09649E-01 1.76326E-25
2.13212E-01 1.68952E-25
2.16797E-01 1.61923E-25
2.20404E-01 1.55224E-25
2.24032E-01 1.48835E-25
2.27680E-01 1.42741E-25
2.31350E-01 1.36925E-25
2.35040E-01 1.31375E-25
2.38751E-01 1.26076E-25
2.42481E-01 1.21014E-25
2.46231E-01 1.16179E-25
2.50000E-01 1.11559E-25
2.53788E-01 1.07143E-25
2.57595E-01 1.02921E-25
2.61421E-01 9.88831E-26
2.65264E-01 9.50206E-26
2.69126E-01 9.13248E-26
2.73005E-01 8.77877E-26
2.76901E-01 8.44017E-26
2.80814E-01 8.11596E-26
2.84744E-01 7.80545E-26
2.88691E-01 7.50799E-26
2.92653E-01 7.22299E-26
2.96632E-01 6.94985E-26
3.00625E-01 6.68802E-26
3.04634E-01 6.43699E-26
3.08658E-01 6.19626E-26
3.12697E-01 5.96536E-26
3.16749E-01 5.74384E-26
3.20816E-01 5.53130E-26
3.24896E-01 5.32731E-26
3.28990E-01 5.13150E-26
3.33097E-01 4.94352E-26
3.37216E-01 4.76301E-26
3.41348E-01 4.58964E-26
3.45492E-01 4.42311E-26
3.49647E-01 4.26312E-26
3.53814E-01 4.10939E-26
3.57992E-01 3.96164E-26
3.62181E-01 3.81963E-26
3.66381E-01 3.68310E-26
3.70590E-01 3.55184E-26
3.74810E-01 3.42560E-26
3.79039E-01 3.30419E-26
3.83277E-01 3.18740E-26
3.87524E-01 3.07505E-26
3.91780E-01 2.96693E-26
3.96044E-01 2.86290E-26
4.00316E-01 2.76276E-26
4.04596E-01 2.66637E-26
4.08882E-01 2.57358E-26
4.13176E-01 2.48423E-26
4.17476E-01 2.39820E-26
4.21783E-01 2.31534E-26
4.26095E-01 2.23553E-26
4.30413E-01 2.15864E-26
4.34737E-01 2.08457E-26
4.39065E-01 2.01320E-26
4.43398E-01 1.94442E-26
4.47736E-01 1.87814E-26
4.52077E-01 1.81425E-26
4.56422E-01 1.75266E-26
4.60770E-01 1.69328E-26
4.65122E-01 1.63604E-26
4.69476E-01 1.58083E-26
4.73832E-01 1.52760E-26
4.78190E-01 1.47625E-26
4.82550E-01 1.42673E-26
4.86912E-01 1.37895E-26
4.91274E-01 1.33286E-26
4.95637E-01 1.28839E-26
5.00000E-01 1.24548E-26
5.04363E-01 1.20407E-26
5.08726E-01 1.16411E-26
5.13088E-01 1.12554E-26
5.17450E-01 1.08830E-26
5.21810E-01 1.05236E-26
5.26168E-01 1.01766E-26
5.30524E-01 9.84151E-27
5.34878E-01 9.51799E-27
5.39230E-01 9.20557E-27
5.43578E-01 8.90385E-27
5.47923E-01 8.61244E-27
5.52264E-01 8.33096E-27
5.56602E-01 8.05906E-27
5.60935E-01 7.79639E-27
5.65263E-01 7.54261E-27
5.69587E-01 7.29742E-27
5.73905E-01 7.06050E-27
5.78217E-01 6.83155E-27
5.82524E-01 6.61029E-27
5.86824E-01 6.39646E-27
5.91118E-01 6.18977E-27
5.95404E-01 5.98999E-27
5.99684E-01 5.79687E-27
6.03956E-01 5.61017E-27
6.08220E-01 5.42967E-27
6.12476E-01 5.25515E-27
6.16723E-01 5.08640E-27
6.20961E-01 4.92323E-27
6.25190E-01 4.76543E-27
6.29410E-01 4.61282E-27
6.33619E-01 4.46522E-27
6.37819E-01 4.32246E-27
6.42008E-01 4.18437E-27
6.46186E-01 4.05079E-27
6.50353E-01 3.92157E-27
6.54508E-01 3.79655E-27
6.58652E-01 3.67559E-27
6.62784E-01 3.55855E-27
6.66903E-01 3.44531E-27
6.71010E-01 3.33572E-27
6.75104E-01 3.22967E-27
6.79184E-01 3.12704E-27
6.83251E-01 3.02770E-27
6.87303E-01 2.93156E-27
6.91342E-01 2.83850E-27
6.95366E-01 2.74842E-27
6.99375E-01 2.66121E-27
7.03368E-01 2.57679E-27
7.07347E-01 2.49506E-27
7.11309E-01 2.41592E-27
7.15256E-01 2.33930E-27
7.19186E-01 2.26511E-27
7.23099E-01 2.19327E-27
7.26995E-01 2.12370E-27
7.30874E-01 2.05632E-27
7.34736E-01 1.99107E-27
7.38579E-01 1.92787E-27
7.42405E-01 1.86665E-27
7.46212E-01 1.80736E-27
7.50000E-01 1.74992E-27
7.53769E-01 1.69428E-27
7.57519E-01 1.64038E-27
7.61249E-01 1.58816E-27
7.64960E-01 1.53756E-27
7.68650E-01 1.48854E-27
7.72320E-01 1.44104E-27
7.75968E-01 1.39502E-27
7.79596E-01 1.35042E-27
7.83203E-01 1.30720E-27
7.86788E-01 1.26532E-27
7.90351E-01 1.22472E-27
7.93893E-01 1.18538E-27
7.97411E-01 1.14725E-27
8.00908E-01 1.11029E-27
8.04381E-01 1.07447E-27
8.07831E-01 1.03974E-27
8.11257E-01 1.00607E-27
8.14660E-01 9.73440E-28
8.18039E-01 9.41803E-28
8.21394E-01 9.11130E-28
8.24724E-01 8.81392E-28
8.28030E-01 8.52559E-28
8.31310E-01 8.24602E-28
8.34565E-01 7.97495E-28
8.37795E-01 7.71210E-28
8.40999E-01 7.45722E-28
8.44177E-01 7.21005E-28
8.47329E-01 6.97036E-28
8.50455E-01 6.73792E-28
8.53553E-01 6.51249E-28
8.56625E-01 6.29387E-28
8.59670E-01 6.08183E-28
8.62687E-01 5.87618E-28
8.65677E-01 5.67672E-28
8.68639E-01 5.48327E-28
8.71572E-01 5.29563E-28
8.74478E-01 5.11362E-28
8.77355E-01 4.93709E-28
8.80203E-01 4.76585E-28
8.83022E-01 4.59975E-28
8.85812E-01 4.43863E-28
8.88573E-01 4.28235E-28
8.91304E-01 4.13076E-28
8.94005E-01 3.98371E-28
8.96677E-01 3.84107E-28
8.99318E-01 3.70271E-28
9.01928E-01 3.56850E-28
9.04508E-01 3.43832E-28
9.07058E-01 3.31204E-28
9.09576E-01 3.18957E-28
9.12063E-01 3.07077E-28
9.14519E-01 2.95555E-28
9.16943E-01 2.84380E-28
9.19335E-01 2.73542E-28
9.21696E-01 2.63031E-28
9.24024E-01 2.52838E-28
9.26320E-01 2.42953E-28
9.28584E-01 2.33369E-28
9.30815E-01 2.24076E-28
9.33013E-01 2.15066E-28
9.35178E-01 2.06331E-28
9.37310E-01 1.97864E-28
9.39409E-01 1.89657E-28
9.41474E-01 1.81703E-28
9.43505E-01 1.73995E-28
9.45503E-01 1.66526E-28
9.47467E-01 1.59289E-28
9.49397E-01 1.52280E-28
9.51293E-01 1.45490E-28
9.53154E-01 1.38915E-28
9.54981E-01 1.32550E-28
9.56773E-01 1.26387E-28
9.58530E-01 1.20423E-28
9.60252E-01 1.14652E-28
9.61940E-01 1.09070E-28
9.63592E-01 1.03671E-28
9.65209E-01 9.84505E-29
9.66790E-01 9.34050E-29
9.68336E-01 8.85297E-29
9.69846E-01 8.38207E-29
9.71321E-01 7.92740E-29
9.72759E-01 7.48858E-29
9.74162E-01 7.06525E-29
9.75528E-01 6.65705E-29
9.76858E-01 6.26365E-29
9.78152E-01 5.88472E-29
9.79410E-01 5.51995E-29
9.80631E-01 5.16904E-29
9.81815E-01 4.83170E-29
9.82963E-01 4.50765E-29
9.84074E-01 4.19663E-29
9.85148E-01 3.89839E-29
9.86185E-01 3.61268E-29
9.87185E-01 3.33927E-29
9.88148E-01 3.07794E-29
9.89074E-01 2.82847E-29
9.89962E-01 2.59068E-29
9.90814E-01 2.36435E-29
9.91627E-01 2.14932E-29
9.92404E-01 1.94541E-29
9.93143E-01 1.75245E-29
9.93844E-01 1.57029E-29
9.94508E-01 1.39878E-29
9.95134E-01 1.23779E-29
9.95722E-01 1.08719E-29
9.96273E-01 9.46860E-30
9.96786E-01 8.16685E-30
9.97261E-01 6.96562E-30
9.97698E-01 5.86396E-30
9.98097E-01 4.86100E-30
9.98459E-01 3.95594E-30
9.98782E-01 3.14807E-30
9.99067E-01 2.43673E-30
9.99315E-01 1.82138E-30
9.99524E-01 1.30152E-30
9.99695E-01 8.76732E-31
9.99829E-01 5.46693E-31
9.99924E-01 3.11137E-31
9.99981E-01 1.69878E-31
1.00000E+00 1.22805E-31
