 #
 # Subroutine ELSEPA. Elastic scattering of electrons and positrons
 #                    by neutral atoms and positive ions
 #
 # Projectile: electron
 # Kinetic energy = 8.00000E+08 eV = 2.93995E+07 a.u.
 #
 # WARNING: High-energy factorization with free-atom DF screening.
 #          Absorption, polarization and exchange corrections are
 #          switched off.
 #          Phase shifts are calculated for the bare nucleus.
 #          Scattering amplitudes are not evaluated.
 #
 # Element: Xe,  Z =  54,  atomic weight = 1.31290E+02 g/mol
 #
 # Nuclear model: Fermi distribution
 #                Average radius = 5.43827E-13 cm
 #                Skin thickness = 5.46000E-14 cm
 #
 # Number of electrons = 54
 #
 # Total elastic cross section = 5.85752E-18 cm**2 = 2.09176E-01 a0**2
 # 1st transport cross section = 8.88766E-27 cm**2 = 3.17384E-10 a0**2
 # 2nd transport cross section = 2.66589E-26 cm**2 = 9.52008E-10 a0**2
 #
 #
 # Differential cross section:                       MU=(1-COS(THETA))/2
 #
 #  THETA        MU          DCS          DCS        Sherman      error
 #  (deg)                 (cm**2/sr)   (a0**2/sr)    function
 #----------------------------------------------------------------------
0.00000E+00 2.74904E-08
7.61557E-13 2.47996E-08
1.18994E-12 2.34518E-08
1.71346E-12 2.19496E-08
2.33225E-12 2.03511E-08
3.04617E-12 1.87110E-08
3.85530E-12 1.70857E-08
4.75964E-12 1.55009E-08
5.75917E-12 1.40038E-08
6.85391E-12 1.25932E-08
8.04379E-12 1.13019E-08
9.32893E-12 1.01164E-08
1.07092E-11 9.05096E-09
1.21847E-11 8.09210E-09
1.37554E-11 7.23900E-09
1.54213E-11 6.48075E-09
1.71823E-11 5.80973E-09
1.90386E-11 5.21733E-09
2.09900E-11 4.69401E-09
2.30367E-11 4.23317E-09
2.51785E-11 3.82570E-09
2.74156E-11 3.46666E-09
2.97478E-11 3.14829E-09
3.21752E-11 2.86684E-09
3.46979E-11 2.61652E-09
3.73157E-11 2.38755E-09
4.00286E-11 2.18189E-09
4.28368E-11 2.00151E-09
4.57402E-11 1.84270E-09
4.87388E-11 1.70234E-09
5.18325E-11 1.57786E-09
5.50215E-11 1.46709E-09
5.83057E-11 1.35900E-09
6.16850E-11 1.25930E-09
6.51595E-11 1.17016E-09
6.87293E-11 1.09020E-09
7.23943E-11 1.01829E-09
7.61544E-11 9.53437E-10
1.18991E-10 5.07863E-10
1.71347E-10 2.90707E-10
2.33223E-10 1.76417E-10
3.04617E-10 1.13019E-10
3.85531E-10 7.61835E-11
4.75965E-10 5.35571E-11
5.75917E-10 3.89929E-11
6.85389E-10 2.91381E-11
8.04380E-10 2.22563E-11
9.32891E-10 1.72752E-11
1.07092E-09 1.35971E-11
1.21847E-09 1.08304E-11
1.37554E-09 8.72387E-12
1.54213E-09 7.09554E-12
1.71823E-09 5.82299E-12
1.90386E-09 4.81909E-12
2.09900E-09 4.01987E-12
2.30367E-09 3.37933E-12
2.51785E-09 2.86121E-12
2.74156E-09 2.43923E-12
2.97478E-09 2.09226E-12
3.21752E-09 1.80522E-12
3.46978E-09 1.56588E-12
3.73156E-09 1.36482E-12
4.00286E-09 1.19544E-12
4.28368E-09 1.05231E-12
4.57402E-09 9.29519E-13
4.87388E-09 8.24442E-13
5.18326E-09 7.34144E-13
5.50215E-09 6.55471E-13
5.83057E-09 5.87345E-13
6.16850E-09 5.27890E-13
6.51596E-09 4.75641E-13
6.87293E-09 4.29871E-13
7.23942E-09 3.89381E-13
7.61544E-09 3.53528E-13
1.18991E-08 1.50158E-13
1.71347E-08 7.40007E-14
2.33223E-08 4.04995E-14
3.04617E-08 2.39735E-14
3.85531E-08 1.50790E-14
4.75965E-08 9.95367E-15
5.75917E-08 6.83350E-15
6.85389E-08 4.84620E-15
8.04380E-08 3.53194E-15
9.32891E-08 2.63467E-15
1.07092E-07 2.00513E-15
1.21847E-07 1.55289E-15
1.37554E-07 1.22126E-15
1.54213E-07 9.73590E-16
1.71823E-07 7.85623E-16
1.90386E-07 6.40892E-16
2.09900E-07 5.27990E-16
2.30367E-07 4.38879E-16
2.51785E-07 3.67790E-16
2.74156E-07 3.10521E-16
2.97478E-07 2.63972E-16
3.21752E-07 2.25822E-16
3.46978E-07 1.94318E-16
3.73156E-07 1.68118E-16
4.00286E-07 1.46187E-16
4.28368E-07 1.27716E-16
4.57402E-07 1.12071E-16
4.87388E-07 9.87486E-17
5.18325E-07 8.73474E-17
5.50215E-07 7.75445E-17
5.83057E-07 6.90784E-17
6.16850E-07 6.17363E-17
6.51596E-07 5.53439E-17
6.87293E-07 4.97575E-17
7.23942E-07 4.48583E-17
7.61543E-07 4.05473E-17
1.18991E-06 1.66354E-17
1.71347E-06 8.03006E-18
2.33223E-06 4.33713E-18
3.04617E-06 2.54351E-18
3.85531E-06 1.58848E-18
4.75964E-06 1.04252E-18
5.75916E-06 7.12247E-19
6.85388E-06 5.03018E-19
8.04378E-06 3.65287E-19
9.32888E-06 2.71637E-19
1.07092E-05 2.06171E-19
1.21846E-05 1.59294E-19
1.37553E-05 1.25016E-19
1.54212E-05 9.94850E-20
1.71822E-05 8.01521E-20
1.90385E-05 6.52752E-20
2.09899E-05 5.37330E-20
2.30365E-05 4.46292E-20
2.51783E-05 3.73686E-20
2.74153E-05 3.15216E-20
2.97475E-05 2.67725E-20
3.21749E-05 2.28851E-20
3.46974E-05 1.96798E-20
3.73152E-05 1.70181E-20
4.00281E-05 1.47930E-20
4.28362E-05 1.29207E-20
4.57395E-05 1.13356E-20
4.87380E-05 9.98597E-21
5.18317E-05 8.83098E-21
5.50205E-05 7.83797E-21
5.83045E-05 6.98062E-21
6.16838E-05 6.23746E-21
6.51582E-05 5.59081E-21
6.87277E-05 5.02605E-21
7.23925E-05 4.53100E-21
7.61524E-05 4.09171E-21
9.21439E-05 2.78735E-21
1.09658E-04 1.96113E-21
1.28695E-04 1.41774E-21
1.49255E-04 1.04852E-21
1.71338E-04 7.90834E-22
1.94942E-04 6.06642E-22
2.20070E-04 4.72273E-22
2.46720E-04 3.72469E-22
2.74892E-04 2.97137E-22
3.04586E-04 2.39476E-22
3.35803E-04 1.94767E-22
3.68542E-04 1.59708E-22
4.02802E-04 1.31928E-22
4.38585E-04 1.09710E-22
4.75889E-04 9.17875E-23
5.14715E-04 7.72167E-23
5.55063E-04 6.52867E-23
5.96931E-04 5.54539E-23
6.40321E-04 4.73009E-23
6.85233E-04 4.05029E-23
7.31665E-04 3.48053E-23
7.79618E-04 3.00072E-23
8.29092E-04 2.59487E-23
8.80086E-04 2.25016E-23
9.32601E-04 1.95626E-23
9.86636E-04 1.70479E-23
1.04219E-03 1.48890E-23
1.09927E-03 1.30298E-23
1.15786E-03 1.14242E-23
1.21797E-03 1.00337E-23
1.27961E-03 8.82660E-24
1.34276E-03 7.77612E-24
1.40743E-03 6.85996E-24
1.47362E-03 6.05931E-24
1.54133E-03 5.35825E-24
1.61056E-03 4.74329E-24
1.68131E-03 4.20296E-24
1.75357E-03 3.72745E-24
1.82735E-03 3.30838E-24
1.90265E-03 2.93855E-24
1.97947E-03 2.61176E-24
2.05780E-03 2.32266E-24
2.13765E-03 2.06664E-24
2.21902E-03 1.83967E-24
2.30190E-03 1.63828E-24
2.38630E-03 1.45943E-24
2.47222E-03 1.30048E-24
2.55965E-03 1.15911E-24
2.64859E-03 1.03330E-24
2.73905E-03 9.21270E-25
2.83103E-03 8.21460E-25
2.92452E-03 7.32496E-25
3.01952E-03 6.53169E-25
3.11604E-03 5.82410E-25
3.21407E-03 5.19277E-25
3.31362E-03 4.62934E-25
3.41468E-03 4.12642E-25
3.51725E-03 3.67745E-25
3.62133E-03 3.27661E-25
3.72692E-03 2.91874E-25
3.83403E-03 2.59922E-25
3.94265E-03 2.31397E-25
4.05278E-03 2.05934E-25
4.16442E-03 1.83207E-25
4.27757E-03 1.62927E-25
4.39223E-03 1.44834E-25
4.50840E-03 1.28697E-25
4.62608E-03 1.14310E-25
4.74527E-03 1.01487E-25
4.86597E-03 9.00630E-26
4.98817E-03 7.98899E-26
5.11188E-03 7.08352E-26
5.23711E-03 6.27802E-26
5.36383E-03 5.56186E-26
5.49207E-03 4.92553E-26
5.62181E-03 4.36048E-26
5.75306E-03 3.85908E-26
5.88581E-03 3.41447E-26
6.02007E-03 3.02053E-26
6.15583E-03 2.67174E-26
6.29310E-03 2.36319E-26
6.43187E-03 2.09047E-26
6.57214E-03 1.84962E-26
6.71392E-03 1.63710E-26
6.85720E-03 1.44976E-26
7.00198E-03 1.28475E-26
7.14827E-03 1.13956E-26
7.29605E-03 1.01191E-26
7.44534E-03 8.99788E-27
7.59612E-03 8.01388E-27
7.97965E-03 6.05290E-27
8.37255E-03 4.64671E-27
8.77480E-03 3.64081E-27
9.18641E-03 2.92078E-27
9.60736E-03 2.40251E-27
1.00376E-02 2.02484E-27
1.04773E-02 1.74380E-27
1.09262E-02 1.52821E-27
1.13844E-02 1.35641E-27
1.18520E-02 1.21362E-27
1.23288E-02 1.09006E-27
1.28150E-02 9.79511E-28
1.33104E-02 8.78174E-28
1.38150E-02 7.83922E-28
1.43290E-02 6.95695E-28
1.48521E-02 6.13088E-28
1.53845E-02 5.36060E-28
1.59262E-02 4.64734E-28
1.64770E-02 3.99268E-28
1.70371E-02 3.39782E-28
1.76063E-02 2.86306E-28
1.81848E-02 2.38774E-28
1.87724E-02 1.97014E-28
1.93692E-02 1.60764E-28
1.99751E-02 1.29685E-28
2.05901E-02 1.03379E-28
2.12143E-02 8.14107E-29
2.18476E-02 6.33236E-29
2.24900E-02 4.86563E-29
2.31415E-02 3.69563E-29
2.38021E-02 2.77910E-29
2.44717E-02 2.07556E-29
2.51504E-02 1.54796E-29
2.58382E-02 1.16295E-29
2.65349E-02 8.91135E-30
2.72407E-02 7.07047E-30
2.79555E-02 5.89024E-30
2.86793E-02 5.19009E-30
2.94120E-02 4.82266E-30
3.01537E-02 4.67052E-30
3.09043E-02 4.64267E-30
3.16639E-02 4.67097E-30
3.24324E-02 4.70662E-30
3.32098E-02 4.71684E-30
3.39961E-02 4.68175E-30
3.47912E-02 4.59161E-30
3.55952E-02 4.44432E-30
3.64081E-02 4.24332E-30
3.72297E-02 3.99577E-30
3.80602E-02 3.71106E-30
3.88995E-02 3.39965E-30
3.97476E-02 3.07216E-30
4.06044E-02 2.73866E-30
4.14700E-02 2.40822E-30
4.23443E-02 2.08862E-30
4.32273E-02 1.78620E-30
4.41190E-02 1.50577E-30
4.50194E-02 1.25071E-30
4.59284E-02 1.02305E-30
4.68461E-02 8.23626E-31
4.87074E-02 5.07881E-31
5.06030E-02 2.93030E-31
5.25328E-02 1.60947E-31
5.44967E-02 9.06810E-32
5.64946E-02 6.20380E-32
5.85262E-02 5.78206E-32
6.05914E-02 6.48794E-32
6.26901E-02 7.42589E-32
6.48222E-02 8.07400E-32
6.69873E-02 8.20574E-32
6.91854E-02 7.80165E-32
7.14163E-02 6.96636E-32
7.36799E-02 5.86038E-32
7.59760E-02 4.65029E-32
7.83043E-02 3.47748E-32
8.06647E-02 2.44277E-32
8.30571E-02 1.60313E-32
8.54812E-02 9.76554E-33
8.79369E-02 5.51229E-33
9.04240E-02 2.96117E-33
9.29422E-02 1.70903E-33
9.54915E-02 1.34032E-33
9.80716E-02 1.48326E-33
1.00682E-01 1.84211E-33
1.03323E-01 2.20869E-33
1.05995E-01 2.45873E-33
1.08696E-01 2.53827E-33
1.11427E-01 2.44550E-33
1.14188E-01 2.21178E-33
1.16978E-01 1.88478E-33
1.19797E-01 1.51523E-33
1.22645E-01 1.14786E-33
1.25522E-01 8.16359E-34
1.28428E-01 5.41608E-34
1.31361E-01 3.32422E-34
1.34323E-01 1.87771E-34
1.37313E-01 9.97124E-35
1.40330E-01 5.63885E-35
1.43375E-01 4.46459E-35
1.46447E-01 5.20365E-35
1.49545E-01 6.81219E-35
1.52671E-01 8.51230E-35
1.55823E-01 9.80307E-35
1.59001E-01 1.04330E-34
1.62205E-01 1.03493E-34
1.65435E-01 9.63810E-35
1.68690E-01 8.46539E-35
1.71970E-01 7.02701E-35
1.75276E-01 5.51055E-35
1.78606E-01 4.07063E-35
1.81961E-01 2.81656E-35
1.85340E-01 1.80998E-35
1.88743E-01 1.06970E-35
1.92169E-01 5.80841E-36
1.95619E-01 3.05797E-36
1.99092E-01 1.94951E-36
2.02589E-01 1.95868E-36
2.06107E-01 2.60216E-36
2.09649E-01 3.48198E-36
2.13212E-01 4.30668E-36
2.16797E-01 4.89347E-36
2.20404E-01 5.15659E-36
2.24032E-01 5.08747E-36
2.27680E-01 4.73149E-36
2.31350E-01 4.16513E-36
2.35040E-01 3.47625E-36
2.38751E-01 2.74898E-36
2.42481E-01 2.05351E-36
2.46231E-01 1.44080E-36
2.50000E-01 9.41202E-37
2.53788E-01 5.66061E-37
2.57595E-01 3.11271E-37
2.61421E-01 1.61705E-37
2.65264E-01 9.57788E-38
2.69126E-01 8.95427E-38
2.73005E-01 1.19937E-37
2.76901E-01 1.67059E-37
2.80814E-01 2.15452E-37
2.84744E-01 2.54532E-37
2.88691E-01 2.78343E-37
2.92653E-01 2.84867E-37
2.96632E-01 2.75089E-37
3.00625E-01 2.51981E-37
3.04634E-01 2.19569E-37
3.08658E-01 1.82138E-37
3.12697E-01 1.43646E-37
3.16749E-01 1.07327E-37
3.20816E-01 7.55058E-38
3.24896E-01 4.95509E-38
3.28990E-01 1.00000E-45
3.33097E-01 1.00000E-45
3.37216E-01 1.00000E-45
3.41348E-01 1.00000E-45
3.45492E-01 1.00000E-45
3.49647E-01 1.00000E-45
3.53814E-01 1.00000E-45
3.57992E-01 1.00000E-45
3.62181E-01 1.00000E-45
3.66381E-01 1.00000E-45
3.70590E-01 1.00000E-45
3.74810E-01 1.00000E-45
3.79039E-01 1.00000E-45
3.83277E-01 1.00000E-45
3.87524E-01 1.00000E-45
3.91780E-01 1.00000E-45
3.96044E-01 1.00000E-45
4.00316E-01 1.00000E-45
4.04596E-01 1.00000E-45
4.08882E-01 1.00000E-45
4.13176E-01 1.00000E-45
4.17476E-01 1.00000E-45
4.21783E-01 1.00000E-45
4.26095E-01 1.00000E-45
4.30413E-01 1.00000E-45
4.34737E-01 1.00000E-45
4.39065E-01 1.00000E-45
4.43398E-01 1.00000E-45
4.47736E-01 1.00000E-45
4.52077E-01 1.00000E-45
4.56422E-01 1.00000E-45
4.60770E-01 1.00000E-45
4.65122E-01 1.00000E-45
4.69476E-01 1.00000E-45
4.73832E-01 1.00000E-45
4.78190E-01 1.00000E-45
4.82550E-01 1.00000E-45
4.86912E-01 1.00000E-45
4.91274E-01 1.00000E-45
4.95637E-01 1.00000E-45
5.00000E-01 1.00000E-45
5.04363E-01 1.00000E-45
5.08726E-01 1.00000E-45
5.13088E-01 1.00000E-45
5.17450E-01 1.00000E-45
5.21810E-01 1.00000E-45
5.26168E-01 1.00000E-45
5.30524E-01 1.00000E-45
5.34878E-01 1.00000E-45
5.39230E-01 1.00000E-45
5.43578E-01 1.00000E-45
5.47923E-01 1.00000E-45
5.52264E-01 1.00000E-45
5.56602E-01 1.00000E-45
5.60935E-01 1.00000E-45
5.65263E-01 1.00000E-45
5.69587E-01 1.00000E-45
5.73905E-01 1.00000E-45
5.78217E-01 1.00000E-45
5.82524E-01 1.00000E-45
5.86824E-01 1.00000E-45
5.91118E-01 1.00000E-45
5.95404E-01 1.00000E-45
5.99684E-01 1.00000E-45
6.03956E-01 1.00000E-45
6.08220E-01 1.00000E-45
6.12476E-01 1.00000E-45
6.16723E-01 1.00000E-45
6.20961E-01 1.00000E-45
6.25190E-01 1.00000E-45
6.29410E-01 1.00000E-45
6.33619E-01 1.00000E-45
6.37819E-01 1.00000E-45
6.42008E-01 1.00000E-45
6.46186E-01 1.00000E-45
6.50353E-01 1.00000E-45
6.54508E-01 1.00000E-45
6.58652E-01 1.00000E-45
6.62784E-01 1.00000E-45
6.66903E-01 1.00000E-45
6.71010E-01 1.00000E-45
6.75104E-01 1.00000E-45
6.79184E-01 1.00000E-45
6.83251E-01 1.00000E-45
6.87303E-01 1.00000E-45
6.91342E-01 1.00000E-45
6.95366E-01 1.00000E-45
6.99375E-01 1.00000E-45
7.03368E-01 1.00000E-45
7.07347E-01 1.00000E-45
7.11309E-01 1.00000E-45
7.15256E-01 1.00000E-45
7.19186E-01 1.00000E-45
7.23099E-01 1.00000E-45
7.26995E-01 1.00000E-45
7.30874E-01 1.00000E-45
7.34736E-01 1.00000E-45
7.38579E-01 1.00000E-45
7.42405E-01 1.00000E-45
7.46212E-01 1.00000E-45
7.50000E-01 1.00000E-45
7.53769E-01 1.00000E-45
7.57519E-01 1.00000E-45
7.61249E-01 1.00000E-45
7.64960E-01 1.00000E-45
7.68650E-01 1.00000E-45
7.72320E-01 1.00000E-45
7.75968E-01 1.00000E-45
7.79596E-01 1.00000E-45
7.83203E-01 1.00000E-45
7.86788E-01 1.00000E-45
7.90351E-01 1.00000E-45
7.93893E-01 1.00000E-45
7.97411E-01 1.00000E-45
8.00908E-01 1.00000E-45
8.04381E-01 1.00000E-45
8.07831E-01 1.00000E-45
8.11257E-01 1.00000E-45
8.14660E-01 1.00000E-45
8.18039E-01 1.00000E-45
8.21394E-01 1.00000E-45
8.24724E-01 1.00000E-45
8.28030E-01 1.00000E-45
8.31310E-01 1.00000E-45
8.34565E-01 1.00000E-45
8.37795E-01 1.00000E-45
8.40999E-01 1.00000E-45
8.44177E-01 1.00000E-45
8.47329E-01 1.00000E-45
8.50455E-01 1.00000E-45
8.53553E-01 1.00000E-45
8.56625E-01 1.00000E-45
8.59670E-01 1.00000E-45
8.62687E-01 1.00000E-45
8.65677E-01 1.00000E-45
8.68639E-01 1.00000E-45
8.71572E-01 1.00000E-45
8.74478E-01 1.00000E-45
8.77355E-01 1.00000E-45
8.80203E-01 1.00000E-45
8.83022E-01 1.00000E-45
8.85812E-01 1.00000E-45
8.88573E-01 1.00000E-45
8.91304E-01 1.00000E-45
8.94005E-01 1.00000E-45
8.96677E-01 1.00000E-45
8.99318E-01 1.00000E-45
9.01928E-01 1.00000E-45
9.04508E-01 1.00000E-45
9.07058E-01 1.00000E-45
9.09576E-01 1.00000E-45
9.12063E-01 1.00000E-45
9.14519E-01 1.00000E-45
9.16943E-01 1.00000E-45
9.19335E-01 1.00000E-45
9.21696E-01 1.00000E-45
9.24024E-01 1.00000E-45
9.26320E-01 1.00000E-45
9.28584E-01 1.00000E-45
9.30815E-01 1.00000E-45
9.33013E-01 1.00000E-45
9.35178E-01 1.00000E-45
9.37310E-01 1.00000E-45
9.39409E-01 1.00000E-45
9.41474E-01 1.00000E-45
9.43505E-01 1.00000E-45
9.45503E-01 1.00000E-45
9.47467E-01 1.00000E-45
9.49397E-01 1.00000E-45
9.51293E-01 1.00000E-45
9.53154E-01 1.00000E-45
9.54981E-01 1.00000E-45
9.56773E-01 1.00000E-45
9.58530E-01 1.00000E-45
9.60252E-01 1.00000E-45
9.61940E-01 1.00000E-45
9.63592E-01 1.00000E-45
9.65209E-01 1.00000E-45
9.66790E-01 1.00000E-45
9.68336E-01 1.00000E-45
9.69846E-01 1.00000E-45
9.71321E-01 1.00000E-45
9.72759E-01 1.00000E-45
9.74162E-01 1.00000E-45
9.75528E-01 1.00000E-45
9.76858E-01 1.00000E-45
9.78152E-01 1.00000E-45
9.79410E-01 1.00000E-45
9.80631E-01 1.00000E-45
9.81815E-01 1.00000E-45
9.82963E-01 1.00000E-45
9.84074E-01 1.00000E-45
9.85148E-01 1.00000E-45
9.86185E-01 1.00000E-45
9.87185E-01 1.00000E-45
9.88148E-01 1.00000E-45
9.89074E-01 1.00000E-45
9.89962E-01 1.00000E-45
9.90814E-01 1.00000E-45
9.91627E-01 1.00000E-45
9.92404E-01 1.00000E-45
9.93143E-01 1.00000E-45
9.93844E-01 1.00000E-45
9.94508E-01 1.00000E-45
9.95134E-01 1.00000E-45
9.95722E-01 1.00000E-45
9.96273E-01 1.00000E-45
9.96786E-01 1.00000E-45
9.97261E-01 1.00000E-45
9.97698E-01 1.00000E-45
9.98097E-01 1.00000E-45
9.98459E-01 1.00000E-45
9.98782E-01 1.00000E-45
9.99067E-01 1.00000E-45
9.99315E-01 1.00000E-45
9.99524E-01 1.00000E-45
9.99695E-01 1.00000E-45
9.99829E-01 1.00000E-45
9.99924E-01 1.00000E-45
9.99981E-01 1.00000E-45
1.00000E+00 1.00000E-45
