 #
 # Subroutine ELSEPA. Elastic scattering of electrons and positrons
 #                    by neutral atoms and positive ions
 #
 # Projectile: positron
 # Kinetic energy = 3.00000E+06 eV = 1.10248E+05 a.u.
 #
 # WARNING: High-energy factorization with free-atom DF screening.
 #          Absorption, polarization and exchange corrections are
 #          switched off.
 #          Phase shifts are calculated for the bare nucleus.
 #          Scattering amplitudes are not evaluated.
 #
 # Element: Co,  Z =  27,  atomic weight = 5.89332E+01 g/mol
 #
 # Nuclear model: Fermi distribution
 #                Average radius = 4.16393E-13 cm
 #                Skin thickness = 5.46000E-14 cm
 #
 # Number of electrons = 27
 #
 # Total elastic cross section = 2.00615E-18 cm**2 = 7.16410E-02 a0**2
 # 1st transport cross section = 7.92000E-23 cm**2 = 2.82828E-06 a0**2
 # 2nd transport cross section = 2.27062E-22 cm**2 = 8.10853E-06 a0**2
 #
 #
 # Differential cross section:                       MU=(1-COS(THETA))/2
 #
 #  THETA        MU          DCS          DCS        Sherman      error
 #  (deg)                 (cm**2/sr)   (a0**2/sr)    function
 #----------------------------------------------------------------------
0.00000E+00 2.19251E-13
7.61557E-13 2.19250E-13
1.18994E-12 2.19250E-13
1.71346E-12 2.19249E-13
2.33225E-12 2.19249E-13
3.04617E-12 2.19248E-13
3.85530E-12 2.19247E-13
4.75964E-12 2.19246E-13
5.75917E-12 2.19245E-13
6.85391E-12 2.19244E-13
8.04379E-12 2.19243E-13
9.32893E-12 2.19242E-13
1.07092E-11 2.19240E-13
1.21847E-11 2.19239E-13
1.37554E-11 2.19237E-13
1.54213E-11 2.19236E-13
1.71823E-11 2.19234E-13
1.90386E-11 2.19232E-13
2.09900E-11 2.19230E-13
2.30367E-11 2.19228E-13
2.51785E-11 2.19226E-13
2.74156E-11 2.19224E-13
2.97478E-11 2.19221E-13
3.21752E-11 2.19219E-13
3.46979E-11 2.19217E-13
3.73157E-11 2.19214E-13
4.00286E-11 2.19211E-13
4.28368E-11 2.19209E-13
4.57402E-11 2.19206E-13
4.87388E-11 2.19203E-13
5.18325E-11 2.19200E-13
5.50215E-11 2.19197E-13
5.83057E-11 2.19193E-13
6.16850E-11 2.19190E-13
6.51595E-11 2.19187E-13
6.87293E-11 2.19183E-13
7.23943E-11 2.19180E-13
7.61544E-11 2.19176E-13
1.18991E-10 2.19134E-13
1.71347E-10 2.19083E-13
2.33223E-10 2.19023E-13
3.04617E-10 2.18953E-13
3.85531E-10 2.18875E-13
4.75965E-10 2.18787E-13
5.75917E-10 2.18690E-13
6.85389E-10 2.18584E-13
8.04380E-10 2.18469E-13
9.32891E-10 2.18345E-13
1.07092E-09 2.18212E-13
1.21847E-09 2.18070E-13
1.37554E-09 2.17919E-13
1.54213E-09 2.17759E-13
1.71823E-09 2.17591E-13
1.90386E-09 2.17413E-13
2.09900E-09 2.17226E-13
2.30367E-09 2.17031E-13
2.51785E-09 2.16827E-13
2.74156E-09 2.16614E-13
2.97478E-09 2.16392E-13
3.21752E-09 2.16162E-13
3.46978E-09 2.15923E-13
3.73156E-09 2.15676E-13
4.00286E-09 2.15420E-13
4.28368E-09 2.15156E-13
4.57402E-09 2.14883E-13
4.87388E-09 2.14602E-13
5.18326E-09 2.14313E-13
5.50215E-09 2.14015E-13
5.83057E-09 2.13710E-13
6.16850E-09 2.13396E-13
6.51596E-09 2.13074E-13
6.87293E-09 2.12744E-13
7.23942E-09 2.12407E-13
7.61544E-09 2.12061E-13
1.18991E-08 2.08189E-13
1.71347E-08 2.03613E-13
2.33223E-08 1.98396E-13
3.04617E-08 1.92678E-13
3.85531E-08 1.86493E-13
4.75965E-08 1.79973E-13
5.75917E-08 1.73223E-13
6.85389E-08 1.66260E-13
8.04380E-08 1.59243E-13
9.32891E-08 1.52212E-13
1.07092E-07 1.45209E-13
1.21847E-07 1.38346E-13
1.37554E-07 1.31612E-13
1.54213E-07 1.25072E-13
1.71823E-07 1.18780E-13
1.90386E-07 1.12691E-13
2.09900E-07 1.06882E-13
2.30367E-07 1.01350E-13
2.51785E-07 9.60673E-14
2.74156E-07 9.10772E-14
2.97478E-07 8.63508E-14
3.21752E-07 8.18821E-14
3.46978E-07 7.76837E-14
3.73156E-07 7.37168E-14
4.00286E-07 6.99899E-14
4.28368E-07 6.64970E-14
4.57402E-07 6.31981E-14
4.87388E-07 6.01098E-14
5.18325E-07 5.72109E-14
5.50215E-07 5.44804E-14
5.83057E-07 5.19235E-14
6.16850E-07 4.95163E-14
6.51596E-07 4.72518E-14
6.87293E-07 4.51288E-14
7.23942E-07 4.31215E-14
7.61543E-07 4.12346E-14
1.18991E-06 2.72396E-14
1.71347E-06 1.88439E-14
2.33223E-06 1.32354E-14
3.04617E-06 9.72578E-15
3.85531E-06 7.12141E-15
4.75964E-06 5.32242E-15
5.75916E-06 4.03893E-15
6.85388E-06 3.06742E-15
8.04378E-06 2.37134E-15
9.32888E-06 1.85102E-15
1.07092E-05 1.45926E-15
1.21846E-05 1.16585E-15
1.37553E-05 9.40222E-16
1.54212E-05 7.66798E-16
1.71822E-05 6.32110E-16
1.90385E-05 5.25659E-16
2.09899E-05 4.41408E-16
2.30365E-05 3.73815E-16
2.51783E-05 3.18940E-16
2.74153E-05 2.74132E-16
2.97475E-05 2.37147E-16
3.21749E-05 2.06358E-16
3.46974E-05 1.80602E-16
3.73152E-05 1.58807E-16
4.00281E-05 1.40292E-16
4.28362E-05 1.24489E-16
4.57395E-05 1.10830E-16
4.87380E-05 9.90396E-17
5.18317E-05 8.87852E-17
5.50205E-05 7.98051E-17
5.83045E-05 7.19538E-17
6.16838E-05 6.50305E-17
6.51582E-05 5.89134E-17
6.87277E-05 5.35078E-17
7.23925E-05 4.86840E-17
7.61524E-05 4.43915E-17
9.21439E-05 3.12460E-17
1.09658E-04 2.25554E-17
1.28695E-04 1.66495E-17
1.49255E-04 1.25320E-17
1.71338E-04 9.60068E-18
1.94942E-04 7.46987E-18
2.20070E-04 5.89644E-18
2.46720E-04 4.71585E-18
2.74892E-04 3.81682E-18
3.04586E-04 3.12120E-18
3.35803E-04 2.57769E-18
3.68542E-04 2.14784E-18
4.02802E-04 1.80395E-18
4.38585E-04 1.52655E-18
4.75889E-04 1.30060E-18
5.14715E-04 1.11502E-18
5.55063E-04 9.61546E-19
5.96931E-04 8.33583E-19
6.40321E-04 7.26276E-19
6.85233E-04 6.35763E-19
7.31665E-04 5.58869E-19
7.79618E-04 4.93300E-19
8.29092E-04 4.37079E-19
8.80086E-04 3.88622E-19
9.32601E-04 3.46715E-19
9.86636E-04 3.10293E-19
1.04219E-03 2.78523E-19
1.09927E-03 2.50724E-19
1.15786E-03 2.26288E-19
1.21797E-03 2.04757E-19
1.27961E-03 1.85727E-19
1.34276E-03 1.68842E-19
1.40743E-03 1.53834E-19
1.47362E-03 1.40452E-19
1.54133E-03 1.28487E-19
1.61056E-03 1.17770E-19
1.68131E-03 1.08140E-19
1.75357E-03 9.94717E-20
1.82735E-03 9.16545E-20
1.90265E-03 8.45840E-20
1.97947E-03 7.81817E-20
2.05780E-03 7.23721E-20
2.13765E-03 6.70888E-20
2.21902E-03 6.22783E-20
2.30190E-03 5.78892E-20
2.38630E-03 5.38783E-20
2.47222E-03 5.02083E-20
2.55965E-03 4.68434E-20
2.64859E-03 4.37550E-20
2.73905E-03 4.09163E-20
2.83103E-03 3.83025E-20
2.92452E-03 3.58938E-20
3.01952E-03 3.36706E-20
3.11604E-03 3.16161E-20
3.21407E-03 2.97155E-20
3.31362E-03 2.79548E-20
3.41468E-03 2.63221E-20
3.51725E-03 2.48066E-20
3.62133E-03 2.33979E-20
3.72692E-03 2.20875E-20
3.83403E-03 2.08673E-20
3.94265E-03 1.97297E-20
4.05278E-03 1.86683E-20
4.16442E-03 1.76771E-20
4.27757E-03 1.67504E-20
4.39223E-03 1.58835E-20
4.50840E-03 1.50717E-20
4.62608E-03 1.43109E-20
4.74527E-03 1.35974E-20
4.86597E-03 1.29275E-20
4.98817E-03 1.22982E-20
5.11188E-03 1.17066E-20
5.23711E-03 1.11500E-20
5.36383E-03 1.06259E-20
5.49207E-03 1.01322E-20
5.62181E-03 9.66663E-21
5.75306E-03 9.22744E-21
5.88581E-03 8.81277E-21
6.02007E-03 8.42105E-21
6.15583E-03 8.05078E-21
6.29310E-03 7.70052E-21
6.43187E-03 7.36904E-21
6.57214E-03 7.05513E-21
6.71392E-03 6.75768E-21
6.85720E-03 6.47568E-21
7.00198E-03 6.20816E-21
7.14827E-03 5.95426E-21
7.29605E-03 5.71316E-21
7.44534E-03 5.48408E-21
7.59612E-03 5.26631E-21
7.97965E-03 4.76718E-21
8.37255E-03 4.32556E-21
8.77480E-03 3.93370E-21
9.18641E-03 3.58503E-21
9.60736E-03 3.27400E-21
1.00376E-02 2.99582E-21
1.04773E-02 2.74644E-21
1.09262E-02 2.52237E-21
1.13844E-02 2.32058E-21
1.18520E-02 2.13848E-21
1.23288E-02 1.97381E-21
1.28150E-02 1.82462E-21
1.33104E-02 1.68919E-21
1.38150E-02 1.56604E-21
1.43290E-02 1.45385E-21
1.48521E-02 1.35148E-21
1.53845E-02 1.25792E-21
1.59262E-02 1.17227E-21
1.64770E-02 1.09375E-21
1.70371E-02 1.02166E-21
1.76063E-02 9.55383E-22
1.81848E-02 8.94364E-22
1.87724E-02 8.38111E-22
1.93692E-02 7.86187E-22
1.99751E-02 7.38200E-22
2.05901E-02 6.93797E-22
2.12143E-02 6.52664E-22
2.18476E-02 6.14515E-22
2.24900E-02 5.79097E-22
2.31415E-02 5.46178E-22
2.38021E-02 5.15550E-22
2.44717E-02 4.87026E-22
2.51504E-02 4.60435E-22
2.58382E-02 4.35622E-22
2.65349E-02 4.12447E-22
2.72407E-02 3.90783E-22
2.79555E-02 3.70513E-22
2.86793E-02 3.51531E-22
2.94120E-02 3.33741E-22
3.01537E-02 3.17054E-22
3.09043E-02 3.01389E-22
3.16639E-02 2.86673E-22
3.24324E-02 2.72838E-22
3.32098E-02 2.59821E-22
3.39961E-02 2.47565E-22
3.47912E-02 2.36018E-22
3.55952E-02 2.25131E-22
3.64081E-02 2.14860E-22
3.72297E-02 2.05163E-22
3.80602E-02 1.96003E-22
3.88995E-02 1.87344E-22
3.97476E-02 1.79154E-22
4.06044E-02 1.71403E-22
4.14700E-02 1.64063E-22
4.23443E-02 1.57108E-22
4.32273E-02 1.50515E-22
4.41190E-02 1.44261E-22
4.50194E-02 1.38326E-22
4.59284E-02 1.32690E-22
4.68461E-02 1.27335E-22
4.87074E-02 1.17405E-22
5.06030E-02 1.08416E-22
5.25328E-02 1.00263E-22
5.44967E-02 9.28556E-23
5.64946E-02 8.61129E-23
5.85262E-02 7.99653E-23
6.05914E-02 7.43512E-23
6.26901E-02 6.92161E-23
6.48222E-02 6.45122E-23
6.69873E-02 6.01969E-23
6.91854E-02 5.62325E-23
7.14163E-02 5.25855E-23
7.36799E-02 4.92260E-23
7.59760E-02 4.61275E-23
7.83043E-02 4.32660E-23
8.06647E-02 4.06203E-23
8.30571E-02 3.81713E-23
8.54812E-02 3.59017E-23
8.79369E-02 3.37961E-23
9.04240E-02 3.18407E-23
9.29422E-02 3.00227E-23
9.54915E-02 2.83308E-23
9.80716E-02 2.67548E-23
1.00682E-01 2.52852E-23
1.03323E-01 2.39137E-23
1.05995E-01 2.26326E-23
1.08696E-01 2.14348E-23
1.11427E-01 2.03140E-23
1.14188E-01 1.92643E-23
1.16978E-01 1.82804E-23
1.19797E-01 1.73575E-23
1.22645E-01 1.64912E-23
1.25522E-01 1.56773E-23
1.28428E-01 1.49121E-23
1.31361E-01 1.41922E-23
1.34323E-01 1.35144E-23
1.37313E-01 1.28759E-23
1.40330E-01 1.22739E-23
1.43375E-01 1.17060E-23
1.46447E-01 1.11699E-23
1.49545E-01 1.06636E-23
1.52671E-01 1.01850E-23
1.55823E-01 9.73242E-24
1.59001E-01 9.30417E-24
1.62205E-01 8.89870E-24
1.65435E-01 8.51460E-24
1.68690E-01 8.15053E-24
1.71970E-01 7.80527E-24
1.75276E-01 7.47767E-24
1.78606E-01 7.16667E-24
1.81961E-01 6.87128E-24
1.85340E-01 6.59058E-24
1.88743E-01 6.32370E-24
1.92169E-01 6.06986E-24
1.95619E-01 5.82829E-24
1.99092E-01 5.59830E-24
2.02589E-01 5.37924E-24
2.06107E-01 5.17049E-24
2.09649E-01 4.97149E-24
2.13212E-01 4.78170E-24
2.16797E-01 4.60061E-24
2.20404E-01 4.42777E-24
2.24032E-01 4.26271E-24
2.27680E-01 4.10505E-24
2.31350E-01 3.95438E-24
2.35040E-01 3.81033E-24
2.38751E-01 3.67258E-24
2.42481E-01 3.54079E-24
2.46231E-01 3.41466E-24
2.50000E-01 3.29390E-24
2.53788E-01 3.17825E-24
2.57595E-01 3.06746E-24
2.61421E-01 2.96127E-24
2.65264E-01 2.85947E-24
2.69126E-01 2.76185E-24
2.73005E-01 2.66819E-24
2.76901E-01 2.57833E-24
2.80814E-01 2.49206E-24
2.84744E-01 2.40923E-24
2.88691E-01 2.32967E-24
2.92653E-01 2.25323E-24
2.96632E-01 2.17977E-24
3.00625E-01 2.10915E-24
3.04634E-01 2.04124E-24
3.08658E-01 1.97592E-24
3.12697E-01 1.91308E-24
3.16749E-01 1.85260E-24
3.20816E-01 1.79438E-24
3.24896E-01 1.73832E-24
3.28990E-01 1.68433E-24
3.33097E-01 1.63231E-24
3.37216E-01 1.58219E-24
3.41348E-01 1.53388E-24
3.45492E-01 1.48730E-24
3.49647E-01 1.44238E-24
3.53814E-01 1.39906E-24
3.57992E-01 1.35726E-24
3.62181E-01 1.31693E-24
3.66381E-01 1.27800E-24
3.70590E-01 1.24041E-24
3.74810E-01 1.20412E-24
3.79039E-01 1.16906E-24
3.83277E-01 1.13520E-24
3.87524E-01 1.10248E-24
3.91780E-01 1.07085E-24
3.96044E-01 1.04028E-24
4.00316E-01 1.01072E-24
4.04596E-01 9.82140E-25
4.08882E-01 9.54493E-25
4.13176E-01 9.27747E-25
4.17476E-01 9.01867E-25
4.21783E-01 8.76820E-25
4.26095E-01 8.52575E-25
4.30413E-01 8.29103E-25
4.34737E-01 8.06374E-25
4.39065E-01 7.84360E-25
4.43398E-01 7.63036E-25
4.47736E-01 7.42377E-25
4.52077E-01 7.22357E-25
4.56422E-01 7.02955E-25
4.60770E-01 6.84147E-25
4.65122E-01 6.65913E-25
4.69476E-01 6.48232E-25
4.73832E-01 6.31085E-25
4.78190E-01 6.14453E-25
4.82550E-01 5.98318E-25
4.86912E-01 5.82662E-25
4.91274E-01 5.67469E-25
4.95637E-01 5.52723E-25
5.00000E-01 5.38408E-25
5.04363E-01 5.24511E-25
5.08726E-01 5.11017E-25
5.13088E-01 4.97912E-25
5.17450E-01 4.85183E-25
5.21810E-01 4.72818E-25
5.26168E-01 4.60804E-25
5.30524E-01 4.49131E-25
5.34878E-01 4.37786E-25
5.39230E-01 4.26760E-25
5.43578E-01 4.16041E-25
5.47923E-01 4.05621E-25
5.52264E-01 3.95488E-25
5.56602E-01 3.85635E-25
5.60935E-01 3.76051E-25
5.65263E-01 3.66729E-25
5.69587E-01 3.57660E-25
5.73905E-01 3.48837E-25
5.78217E-01 3.40251E-25
5.82524E-01 3.31896E-25
5.86824E-01 3.23764E-25
5.91118E-01 3.15848E-25
5.95404E-01 3.08141E-25
5.99684E-01 3.00638E-25
6.03956E-01 2.93332E-25
6.08220E-01 2.86218E-25
6.12476E-01 2.79288E-25
6.16723E-01 2.72538E-25
6.20961E-01 2.65963E-25
6.25190E-01 2.59557E-25
6.29410E-01 2.53315E-25
6.33619E-01 2.47233E-25
6.37819E-01 2.41305E-25
6.42008E-01 2.35528E-25
6.46186E-01 2.29897E-25
6.50353E-01 2.24407E-25
6.54508E-01 2.19055E-25
6.58652E-01 2.13837E-25
6.62784E-01 2.08748E-25
6.66903E-01 2.03786E-25
6.71010E-01 1.98946E-25
6.75104E-01 1.94226E-25
6.79184E-01 1.89621E-25
6.83251E-01 1.85129E-25
6.87303E-01 1.80747E-25
6.91342E-01 1.76471E-25
6.95366E-01 1.72298E-25
6.99375E-01 1.68226E-25
7.03368E-01 1.64253E-25
7.07347E-01 1.60374E-25
7.11309E-01 1.56589E-25
7.15256E-01 1.52893E-25
7.19186E-01 1.49285E-25
7.23099E-01 1.45763E-25
7.26995E-01 1.42324E-25
7.30874E-01 1.38967E-25
7.34736E-01 1.35688E-25
7.38579E-01 1.32485E-25
7.42405E-01 1.29358E-25
7.46212E-01 1.26304E-25
7.50000E-01 1.23320E-25
7.53769E-01 1.20406E-25
7.57519E-01 1.17559E-25
7.61249E-01 1.14778E-25
7.64960E-01 1.12061E-25
7.68650E-01 1.09406E-25
7.72320E-01 1.06813E-25
7.75968E-01 1.04278E-25
7.79596E-01 1.01801E-25
7.83203E-01 9.93808E-26
7.86788E-01 9.70154E-26
7.90351E-01 9.47037E-26
7.93893E-01 9.24443E-26
7.97411E-01 9.02360E-26
8.00908E-01 8.80775E-26
8.04381E-01 8.59676E-26
8.07831E-01 8.39051E-26
8.11257E-01 8.18890E-26
8.14660E-01 7.99180E-26
8.18039E-01 7.79912E-26
8.21394E-01 7.61075E-26
8.24724E-01 7.42659E-26
8.28030E-01 7.24654E-26
8.31310E-01 7.07050E-26
8.34565E-01 6.89839E-26
8.37795E-01 6.73011E-26
8.40999E-01 6.56557E-26
8.44177E-01 6.40469E-26
8.47329E-01 6.24739E-26
8.50455E-01 6.09358E-26
8.53553E-01 5.94319E-26
8.56625E-01 5.79614E-26
8.59670E-01 5.65236E-26
8.62687E-01 5.51177E-26
8.65677E-01 5.37431E-26
8.68639E-01 5.23990E-26
8.71572E-01 5.10848E-26
8.74478E-01 4.97999E-26
8.77355E-01 4.85437E-26
8.80203E-01 4.73154E-26
8.83022E-01 4.61146E-26
8.85812E-01 4.49406E-26
8.88573E-01 4.37930E-26
8.91304E-01 4.26711E-26
8.94005E-01 4.15744E-26
8.96677E-01 4.05024E-26
8.99318E-01 3.94546E-26
9.01928E-01 3.84305E-26
9.04508E-01 3.74297E-26
9.07058E-01 3.64516E-26
9.09576E-01 3.54959E-26
9.12063E-01 3.45620E-26
9.14519E-01 3.36496E-26
9.16943E-01 3.27583E-26
9.19335E-01 3.18876E-26
9.21696E-01 3.10371E-26
9.24024E-01 3.02065E-26
9.26320E-01 2.93955E-26
9.28584E-01 2.86035E-26
9.30815E-01 2.78304E-26
9.33013E-01 2.70757E-26
9.35178E-01 2.63392E-26
9.37310E-01 2.56204E-26
9.39409E-01 2.49191E-26
9.41474E-01 2.42350E-26
9.43505E-01 2.35678E-26
9.45503E-01 2.29172E-26
9.47467E-01 2.22830E-26
9.49397E-01 2.16647E-26
9.51293E-01 2.10623E-26
9.53154E-01 2.04754E-26
9.54981E-01 1.99038E-26
9.56773E-01 1.93472E-26
9.58530E-01 1.88054E-26
9.60252E-01 1.82783E-26
9.61940E-01 1.77654E-26
9.63592E-01 1.72668E-26
9.65209E-01 1.67821E-26
9.66790E-01 1.63111E-26
9.68336E-01 1.58536E-26
9.69846E-01 1.54096E-26
9.71321E-01 1.49787E-26
9.72759E-01 1.45608E-26
9.74162E-01 1.41557E-26
9.75528E-01 1.37634E-26
9.76858E-01 1.33835E-26
9.78152E-01 1.30160E-26
9.79410E-01 1.26606E-26
9.80631E-01 1.23174E-26
9.81815E-01 1.19861E-26
9.82963E-01 1.16665E-26
9.84074E-01 1.13587E-26
9.85148E-01 1.10624E-26
9.86185E-01 1.07775E-26
9.87185E-01 1.05039E-26
9.88148E-01 1.02415E-26
9.89074E-01 9.99022E-27
9.89962E-01 9.74994E-27
9.90814E-01 9.52056E-27
9.91627E-01 9.30200E-27
9.92404E-01 9.09417E-27
9.93143E-01 8.89698E-27
9.93844E-01 8.71036E-27
9.94508E-01 8.53424E-27
9.95134E-01 8.36855E-27
9.95722E-01 8.21321E-27
9.96273E-01 8.06818E-27
9.96786E-01 7.93340E-27
9.97261E-01 7.80881E-27
9.97698E-01 7.69436E-27
9.98097E-01 7.59002E-27
9.98459E-01 7.49573E-27
9.98782E-01 7.41147E-27
9.99067E-01 7.33719E-27
9.99315E-01 7.27288E-27
9.99524E-01 7.21850E-27
9.99695E-01 7.17404E-27
9.99829E-01 7.13948E-27
9.99924E-01 7.11480E-27
9.99981E-01 7.10000E-27
1.00000E+00 7.09507E-27
