 #
 # Subroutine ELSEPA. Elastic scattering of electrons and positrons
 #                    by neutral atoms and positive ions
 #
 # Projectile: positron
 # Kinetic energy = 4.50000E+08 eV = 1.65372E+07 a.u.
 #
 # WARNING: High-energy factorization with free-atom DF screening.
 #          Absorption, polarization and exchange corrections are
 #          switched off.
 #          Phase shifts are calculated for the bare nucleus.
 #          Scattering amplitudes are not evaluated.
 #
 # Element: Co,  Z =  27,  atomic weight = 5.89332E+01 g/mol
 #
 # Nuclear model: Fermi distribution
 #                Average radius = 4.16393E-13 cm
 #                Skin thickness = 5.46000E-14 cm
 #
 # Number of electrons = 27
 #
 # Total elastic cross section = 1.96457E-18 cm**2 = 7.01560E-02 a0**2
 # 1st transport cross section = 7.40869E-27 cm**2 = 2.64569E-10 a0**2
 # 2nd transport cross section = 2.22125E-26 cm**2 = 7.93222E-10 a0**2
 #
 #
 # Differential cross section:                       MU=(1-COS(THETA))/2
 #
 #  THETA        MU          DCS          DCS        Sherman      error
 #  (deg)                 (cm**2/sr)   (a0**2/sr)    function
 #----------------------------------------------------------------------
0.00000E+00 3.60987E-09
7.61557E-13 3.41463E-09
1.18994E-12 3.31222E-09
1.71346E-12 3.19391E-09
2.33225E-12 3.06262E-09
3.04617E-12 2.92201E-09
3.85530E-12 2.77540E-09
4.75964E-12 2.62581E-09
5.75917E-12 2.47591E-09
6.85391E-12 2.32738E-09
8.04379E-12 2.18257E-09
9.32893E-12 2.04305E-09
1.07092E-11 1.90987E-09
1.21847E-11 1.78371E-09
1.37554E-11 1.66486E-09
1.54213E-11 1.55331E-09
1.71823E-11 1.44939E-09
1.90386E-11 1.35292E-09
2.09900E-11 1.26359E-09
2.30367E-11 1.18105E-09
2.51785E-11 1.10472E-09
2.74156E-11 1.03428E-09
2.97478E-11 9.69393E-10
3.21752E-11 9.09610E-10
3.46979E-11 8.54515E-10
3.73157E-11 8.03703E-10
4.00286E-11 7.56666E-10
4.28368E-11 7.13222E-10
4.57402E-11 6.73050E-10
4.87388E-11 6.35857E-10
5.18325E-11 6.01377E-10
5.50215E-11 5.69308E-10
5.83057E-11 5.39431E-10
6.16850E-11 5.11615E-10
6.51595E-11 4.85682E-10
6.87293E-11 4.61468E-10
7.23943E-11 4.38827E-10
7.61544E-11 4.17541E-10
1.18991E-10 2.61194E-10
1.71347E-10 1.71453E-10
2.33223E-10 1.14766E-10
3.04617E-10 7.87683E-11
3.85531E-10 5.51950E-11
4.75965E-10 3.94116E-11
5.75917E-10 2.86601E-11
6.85389E-10 2.11852E-11
8.04380E-10 1.59691E-11
9.32891E-10 1.22630E-11
1.07092E-09 9.57999E-12
1.21847E-09 7.60322E-12
1.37554E-09 6.12179E-12
1.54213E-09 4.99297E-12
1.71823E-09 4.12047E-12
1.90386E-09 3.43619E-12
2.09900E-09 2.89233E-12
2.30367E-09 2.45477E-12
2.51785E-09 2.09820E-12
2.74156E-09 1.80499E-12
2.97478E-09 1.56177E-12
3.21752E-09 1.35843E-12
3.46978E-09 1.18726E-12
3.73156E-09 1.04219E-12
4.00286E-09 9.18219E-13
4.28368E-09 8.12019E-13
4.57402E-09 7.20588E-13
4.87388E-09 6.41507E-13
5.18326E-09 5.72819E-13
5.50215E-09 5.12863E-13
5.83057E-09 4.60362E-13
6.16850E-09 4.14304E-13
6.51596E-09 3.73773E-13
6.87293E-09 3.38000E-13
7.23942E-09 3.06341E-13
7.61544E-09 2.78215E-13
1.18991E-08 1.17687E-13
1.71347E-08 5.77811E-14
2.33223E-08 3.16103E-14
3.04617E-08 1.87447E-14
3.85531E-08 1.18215E-14
4.75965E-08 7.82452E-15
5.75917E-08 5.38442E-15
6.85389E-08 3.82581E-15
8.04380E-08 2.79231E-15
9.32891E-08 2.08512E-15
1.07092E-07 1.58805E-15
1.21847E-07 1.23046E-15
1.37554E-07 9.67952E-16
1.54213E-07 7.71758E-16
1.71823E-07 6.22775E-16
1.90386E-07 5.08015E-16
2.09900E-07 4.18477E-16
2.30367E-07 3.47799E-16
2.51785E-07 2.91413E-16
2.74156E-07 2.45991E-16
2.97478E-07 2.09075E-16
3.21752E-07 1.78824E-16
3.46978E-07 1.53846E-16
3.73156E-07 1.33077E-16
4.00286E-07 1.15695E-16
4.28368E-07 1.01058E-16
4.57402E-07 8.86625E-17
4.87388E-07 7.81093E-17
5.18325E-07 6.90795E-17
5.50215E-07 6.13170E-17
5.83057E-07 5.46141E-17
6.16850E-07 4.88022E-17
6.51596E-07 4.37429E-17
6.87293E-07 3.93222E-17
7.23942E-07 3.54459E-17
7.61543E-07 3.20354E-17
1.18991E-06 1.31301E-17
1.71347E-06 6.33352E-18
2.33223E-06 3.41892E-18
3.04617E-06 2.00410E-18
3.85531E-06 1.25109E-18
4.75964E-06 8.20787E-19
5.75916E-06 5.60562E-19
6.85388E-06 3.95758E-19
8.04378E-06 2.87302E-19
9.32888E-06 2.13577E-19
1.07092E-05 1.62053E-19
1.21846E-05 1.25169E-19
1.37553E-05 9.82047E-20
1.54212E-05 7.81250E-20
1.71822E-05 6.29241E-20
1.90385E-05 5.12422E-20
2.09899E-05 4.21568E-20
2.30365E-05 3.49975E-20
2.51783E-05 2.92939E-20
2.74153E-05 2.47049E-20
2.97475E-05 2.09795E-20
3.21749E-05 1.79303E-20
3.46974E-05 1.54156E-20
3.73152E-05 1.33270E-20
4.00281E-05 1.15806E-20
4.28362E-05 1.01112E-20
4.57395E-05 8.86759E-21
4.87380E-05 7.80927E-21
5.18317E-05 6.90406E-21
5.50205E-05 6.12616E-21
5.83045E-05 5.45472E-21
6.16838E-05 4.87278E-21
6.51582E-05 4.36642E-21
6.87277E-05 3.92418E-21
7.23925E-05 3.53655E-21
7.61524E-05 3.18431E-21
9.21439E-05 2.17174E-21
1.09658E-04 1.53091E-21
1.28695E-04 1.10956E-21
1.49255E-04 8.23350E-22
1.71338E-04 6.23526E-22
1.94942E-04 4.80612E-22
2.20070E-04 3.76246E-22
2.46720E-04 2.98614E-22
2.74892E-04 2.39911E-22
3.04586E-04 1.94872E-22
3.35803E-04 1.59856E-22
3.68542E-04 1.32309E-22
4.02802E-04 1.10403E-22
4.38585E-04 9.28089E-23
4.75889E-04 7.85516E-23
5.14715E-04 6.69014E-23
5.55063E-04 5.73090E-23
5.96931E-04 4.93548E-23
6.40321E-04 4.27157E-23
6.85233E-04 3.71404E-23
7.31665E-04 3.24318E-23
7.79618E-04 2.84341E-23
8.29092E-04 2.50229E-23
8.80086E-04 2.20987E-23
9.32601E-04 1.95809E-23
9.86636E-04 1.74041E-23
1.04219E-03 1.55148E-23
1.09927E-03 1.38689E-23
1.15786E-03 1.24301E-23
1.21797E-03 1.11682E-23
1.27961E-03 1.00581E-23
1.34276E-03 9.07843E-24
1.40743E-03 8.21156E-24
1.47362E-03 7.44241E-24
1.54133E-03 6.75823E-24
1.61056E-03 6.14813E-24
1.68131E-03 5.60283E-24
1.75357E-03 5.11437E-24
1.82735E-03 4.67589E-24
1.90265E-03 4.28146E-24
1.97947E-03 3.92599E-24
2.05780E-03 3.60501E-24
2.13765E-03 3.31466E-24
2.21902E-03 3.05157E-24
2.30190E-03 2.81278E-24
2.38630E-03 2.59570E-24
2.47222E-03 2.39807E-24
2.55965E-03 2.21786E-24
2.64859E-03 2.05332E-24
2.73905E-03 1.90288E-24
2.83103E-03 1.76514E-24
2.92452E-03 1.63888E-24
3.01952E-03 1.52299E-24
3.11604E-03 1.41651E-24
3.21407E-03 1.31855E-24
3.31362E-03 1.22834E-24
3.41468E-03 1.14517E-24
3.51725E-03 1.06841E-24
3.62133E-03 9.97504E-25
3.72692E-03 9.31940E-25
3.83403E-03 8.71258E-25
3.94265E-03 8.15044E-25
4.05278E-03 7.62925E-25
4.16442E-03 7.14561E-25
4.27757E-03 6.69646E-25
4.39223E-03 6.27899E-25
4.50840E-03 5.89069E-25
4.62608E-03 5.52925E-25
4.74527E-03 5.19256E-25
4.86597E-03 4.87871E-25
4.98817E-03 4.58596E-25
5.11188E-03 4.31271E-25
5.23711E-03 4.05749E-25
5.36383E-03 3.81898E-25
5.49207E-03 3.59594E-25
5.62181E-03 3.38724E-25
5.75306E-03 3.19186E-25
5.88581E-03 3.00885E-25
6.02007E-03 2.83733E-25
6.15583E-03 2.67650E-25
6.29310E-03 2.52561E-25
6.43187E-03 2.38398E-25
6.57214E-03 2.25099E-25
6.71392E-03 2.12604E-25
6.85720E-03 2.00861E-25
7.00198E-03 1.89818E-25
7.14827E-03 1.79430E-25
7.29605E-03 1.69654E-25
7.44534E-03 1.60450E-25
7.59612E-03 1.51782E-25
7.97965E-03 1.32235E-25
8.37255E-03 1.15356E-25
8.77480E-03 1.00751E-25
9.18641E-03 8.80891E-26
9.60736E-03 7.70926E-26
1.00376E-02 6.75268E-26
1.04773E-02 5.91930E-26
1.09262E-02 5.19226E-26
1.13844E-02 4.55717E-26
1.18520E-02 4.00175E-26
1.23288E-02 3.51550E-26
1.28150E-02 3.08938E-26
1.33104E-02 2.71564E-26
1.38150E-02 2.38757E-26
1.43290E-02 2.09939E-26
1.48521E-02 1.84610E-26
1.53845E-02 1.62334E-26
1.59262E-02 1.42736E-26
1.64770E-02 1.25486E-26
1.70371E-02 1.10298E-26
1.76063E-02 9.69227E-27
1.81848E-02 8.51414E-27
1.87724E-02 7.47631E-27
1.93692E-02 6.56203E-27
1.99751E-02 5.75661E-27
2.05901E-02 5.04717E-27
2.12143E-02 4.42235E-27
2.18476E-02 3.87219E-27
2.24900E-02 3.38791E-27
2.31415E-02 2.96176E-27
2.38021E-02 2.58693E-27
2.44717E-02 2.25739E-27
2.51504E-02 1.96783E-27
2.58382E-02 1.71357E-27
2.65349E-02 1.49044E-27
2.72407E-02 1.29478E-27
2.79555E-02 1.12336E-27
2.86793E-02 9.73315E-28
2.94120E-02 8.42101E-28
3.01537E-02 7.27481E-28
3.09043E-02 6.27471E-28
3.16639E-02 5.40317E-28
3.24324E-02 4.64469E-28
3.32098E-02 3.98555E-28
3.39961E-02 3.41361E-28
3.47912E-02 2.91817E-28
3.55952E-02 2.48974E-28
3.64081E-02 2.11997E-28
3.72297E-02 1.80148E-28
3.80602E-02 1.52775E-28
3.88995E-02 1.29304E-28
3.97476E-02 1.09230E-28
4.06044E-02 9.21079E-29
4.14700E-02 7.75453E-29
4.23443E-02 6.51988E-29
4.32273E-02 5.47665E-29
4.41190E-02 4.59840E-29
4.50194E-02 3.86197E-29
4.59284E-02 3.24711E-29
4.68461E-02 2.73616E-29
4.87074E-02 1.96641E-29
5.06030E-02 1.45228E-29
5.25328E-02 1.11838E-29
5.44967E-02 9.08743E-30
5.64946E-02 7.82305E-30
5.85262E-02 7.09381E-30
6.05914E-02 6.68912E-30
6.26901E-02 6.46320E-30
6.48222E-02 6.31832E-30
6.69873E-02 6.19200E-30
6.91854E-02 6.04707E-30
7.14163E-02 5.86422E-30
7.36799E-02 5.63630E-30
7.59760E-02 5.36411E-30
7.83043E-02 5.05336E-30
8.06647E-02 4.71239E-30
8.30571E-02 4.35063E-30
8.54812E-02 3.97756E-30
8.79369E-02 3.60200E-30
9.04240E-02 3.23173E-30
9.29422E-02 2.87326E-30
9.54915E-02 2.53178E-30
9.80716E-02 2.21121E-30
1.00682E-01 1.91424E-30
1.03323E-01 1.64253E-30
1.05995E-01 1.39680E-30
1.08696E-01 1.17701E-30
1.11427E-01 9.82533E-31
1.14188E-01 8.12236E-31
1.16978E-01 6.64658E-31
1.19797E-01 5.38098E-31
1.22645E-01 4.30712E-31
1.25522E-01 3.40594E-31
1.28428E-01 2.65836E-31
1.31361E-01 2.04578E-31
1.34323E-01 1.55049E-31
1.37313E-01 1.15590E-31
1.40330E-01 8.46724E-32
1.43375E-01 6.09107E-32
1.46447E-01 4.30637E-32
1.49545E-01 3.00352E-32
1.52671E-01 2.08690E-32
1.55823E-01 1.47416E-32
1.59001E-01 1.09533E-32
1.62205E-01 8.91733E-33
1.65435E-01 8.14881E-33
1.68690E-01 8.25361E-33
1.71970E-01 8.91707E-33
1.75276E-01 9.89325E-33
1.78606E-01 1.09949E-32
1.81961E-01 1.20843E-32
1.85340E-01 1.30643E-32
1.88743E-01 1.38714E-32
1.92169E-01 1.44686E-32
1.95619E-01 1.48397E-32
1.99092E-01 1.49842E-32
2.02589E-01 1.49134E-32
2.06107E-01 1.46464E-32
2.09649E-01 1.42076E-32
2.13212E-01 1.36241E-32
2.16797E-01 1.29242E-32
2.20404E-01 1.21356E-32
2.24032E-01 1.12848E-32
2.27680E-01 1.03960E-32
2.31350E-01 9.49099E-33
2.35040E-01 8.58861E-33
2.38751E-01 7.70483E-33
2.42481E-01 6.85271E-33
2.46231E-01 6.04253E-33
2.50000E-01 5.28203E-33
2.53788E-01 4.57662E-33
2.57595E-01 3.92962E-33
2.61421E-01 3.34259E-33
2.65264E-01 2.81556E-33
2.69126E-01 2.34732E-33
2.73005E-01 1.93566E-33
2.76901E-01 1.57760E-33
2.80814E-01 1.26961E-33
2.84744E-01 1.00777E-33
2.88691E-01 7.87951E-34
2.92653E-01 6.05919E-34
2.96632E-01 4.57478E-34
3.00625E-01 3.38541E-34
3.04634E-01 2.45199E-34
3.08658E-01 1.73781E-34
3.12697E-01 1.20883E-34
3.16749E-01 8.33954E-35
3.20816E-01 5.85114E-35
3.24896E-01 4.37347E-35
3.28990E-01 3.68670E-35
3.33097E-01 3.60033E-35
3.37216E-01 3.95135E-35
3.41348E-01 4.60229E-35
3.45492E-01 5.43925E-35
3.49647E-01 6.36962E-35
3.53814E-01 7.31977E-35
3.57992E-01 8.23287E-35
3.62181E-01 9.06663E-35
3.66381E-01 9.79127E-35
3.70590E-01 1.03875E-34
3.74810E-01 1.08449E-34
3.79039E-01 1.11600E-34
3.83277E-01 1.13351E-34
3.87524E-01 1.13767E-34
3.91780E-01 1.12947E-34
3.96044E-01 1.11011E-34
4.00316E-01 1.08094E-34
4.04596E-01 1.04338E-34
4.08882E-01 9.98870E-35
4.13176E-01 9.48817E-35
4.17476E-01 8.94570E-35
4.21783E-01 8.37394E-35
4.26095E-01 7.78443E-35
4.30413E-01 7.18758E-35
4.34737E-01 6.59251E-35
4.39065E-01 6.00715E-35
4.43398E-01 5.43814E-35
4.47736E-01 4.89096E-35
4.52077E-01 4.36998E-35
4.56422E-01 3.87848E-35
4.60770E-01 3.41884E-35
4.65122E-01 2.99259E-35
4.69476E-01 2.60049E-35
4.73832E-01 2.24267E-35
4.78190E-01 1.91868E-35
4.82550E-01 1.62769E-35
4.86912E-01 1.36841E-35
4.91274E-01 1.13929E-35
4.95637E-01 9.38572E-36
5.00000E-01 7.64335E-36
5.04363E-01 6.14570E-36
5.08726E-01 4.87189E-36
5.13088E-01 3.80143E-36
5.17450E-01 2.91362E-36
5.21810E-01 2.18885E-36
5.26168E-01 1.60793E-36
5.30524E-01 1.15287E-36
5.34878E-01 8.06739E-37
5.39230E-01 5.53848E-37
5.43578E-01 3.79742E-37
5.47923E-01 2.71287E-37
5.52264E-01 2.16593E-37
5.56602E-01 2.05112E-37
5.60935E-01 2.27425E-37
5.65263E-01 2.75305E-37
5.69587E-01 3.41651E-37
5.73905E-01 4.20339E-37
5.78217E-01 5.06208E-37
5.82524E-01 5.94955E-37
5.86824E-01 6.83055E-37
5.91118E-01 7.67689E-37
5.95404E-01 8.46654E-37
5.99684E-01 9.18295E-37
6.03956E-01 9.81429E-37
6.08220E-01 1.03529E-36
6.12476E-01 1.07947E-36
6.16723E-01 1.11382E-36
6.20961E-01 1.13848E-36
6.25190E-01 1.15377E-36
6.29410E-01 1.16012E-36
6.33619E-01 1.15811E-36
6.37819E-01 1.14845E-36
6.42008E-01 1.13182E-36
6.46186E-01 1.10901E-36
6.50353E-01 1.08076E-36
6.54508E-01 1.04786E-36
6.58652E-01 1.01103E-36
6.62784E-01 9.70997E-37
6.66903E-01 9.28465E-37
6.71010E-01 8.84023E-37
6.75104E-01 8.38264E-37
6.79184E-01 7.91768E-37
6.83251E-01 7.44979E-37
6.87303E-01 6.98364E-37
6.91342E-01 6.52248E-37
6.95366E-01 6.06992E-37
6.99375E-01 5.62893E-37
7.03368E-01 5.20161E-37
7.07347E-01 4.78991E-37
7.11309E-01 4.39572E-37
7.15256E-01 4.01971E-37
7.19186E-01 3.66292E-37
7.23099E-01 3.32632E-37
7.26995E-01 3.00968E-37
7.30874E-01 2.71326E-37
7.34736E-01 2.43700E-37
7.38579E-01 2.18039E-37
7.42405E-01 1.94341E-37
7.46212E-01 1.72509E-37
7.50000E-01 1.52486E-37
7.53769E-01 1.34197E-37
7.57519E-01 1.17561E-37
7.61249E-01 1.02483E-37
7.64960E-01 8.88858E-38
7.68650E-01 7.66673E-38
7.72320E-01 6.57433E-38
7.75968E-01 5.60286E-38
7.79596E-01 4.74132E-38
7.83203E-01 3.98326E-38
7.86788E-01 3.31813E-38
7.90351E-01 2.73922E-38
7.93893E-01 2.23878E-38
7.97411E-01 1.80880E-38
8.00908E-01 1.44252E-38
8.04381E-01 1.13344E-38
8.07831E-01 8.75823E-39
8.11257E-01 6.63363E-39
8.14660E-01 4.91080E-39
8.18039E-01 3.54236E-39
8.21394E-01 2.48230E-39
8.24724E-01 1.68811E-39
8.28030E-01 1.12522E-39
8.31310E-01 7.58180E-40
8.34565E-01 5.59073E-40
8.37795E-01 4.97009E-40
8.40999E-01 5.49492E-40
8.44177E-01 6.93028E-40
8.47329E-01 9.08880E-40
8.50455E-01 1.17980E-39
8.53553E-01 1.49129E-39
8.56625E-01 1.83030E-39
8.59670E-01 2.18599E-39
8.62687E-01 2.54880E-39
8.65677E-01 2.91044E-39
8.68639E-01 3.26616E-39
8.71572E-01 3.60769E-39
8.74478E-01 3.93344E-39
8.77355E-01 4.23827E-39
8.80203E-01 4.52037E-39
8.83022E-01 4.77916E-39
8.85812E-01 5.01222E-39
8.88573E-01 5.21856E-39
8.91304E-01 5.39531E-39
8.94005E-01 5.54769E-39
8.96677E-01 5.67135E-39
8.99318E-01 5.77223E-39
9.01928E-01 5.84555E-39
9.04508E-01 5.89462E-39
9.07058E-01 5.91975E-39
9.09576E-01 5.92532E-39
9.12063E-01 5.90774E-39
9.14519E-01 5.87393E-39
9.16943E-01 5.82181E-39
9.19335E-01 5.75397E-39
9.21696E-01 5.67164E-39
9.24024E-01 5.57476E-39
9.26320E-01 5.46881E-39
9.28584E-01 5.35060E-39
9.30815E-01 5.22530E-39
9.33013E-01 5.09102E-39
9.35178E-01 4.95024E-39
9.37310E-01 4.80436E-39
9.39409E-01 4.65824E-39
9.41474E-01 4.50620E-39
9.43505E-01 4.35424E-39
9.45503E-01 4.19984E-39
9.47467E-01 4.04278E-39
9.49397E-01 3.88787E-39
9.51293E-01 3.73339E-39
9.53154E-01 3.57802E-39
9.54981E-01 3.42449E-39
9.56773E-01 3.27275E-39
9.58530E-01 3.12485E-39
9.60252E-01 2.97766E-39
9.61940E-01 2.83310E-39
9.63592E-01 2.69180E-39
9.65209E-01 2.55166E-39
9.66790E-01 2.41780E-39
9.68336E-01 2.28699E-39
9.69846E-01 2.15944E-39
9.71321E-01 2.03658E-39
9.72759E-01 1.91571E-39
9.74162E-01 1.80173E-39
9.75528E-01 1.69111E-39
9.76858E-01 1.58331E-39
9.78152E-01 1.48071E-39
9.79410E-01 1.38307E-39
9.80631E-01 1.29095E-39
9.81815E-01 1.20031E-39
9.82963E-01 1.11534E-39
9.84074E-01 1.03382E-39
9.85148E-01 9.56251E-40
9.86185E-01 8.83059E-40
9.87185E-01 8.11484E-40
9.88148E-01 7.45686E-40
9.89074E-01 6.81429E-40
9.89962E-01 6.23792E-40
9.90814E-01 5.66680E-40
9.91627E-01 5.12089E-40
9.92404E-01 4.61056E-40
9.93143E-01 4.13713E-40
9.93844E-01 3.67986E-40
9.94508E-01 3.26509E-40
9.95134E-01 2.86694E-40
9.95722E-01 2.49648E-40
9.96273E-01 2.16418E-40
9.96786E-01 1.84497E-40
9.97261E-01 1.56406E-40
9.97698E-01 1.30194E-40
9.98097E-01 1.07395E-40
9.98459E-01 8.60076E-41
9.98782E-01 6.80509E-41
9.99067E-01 5.27547E-41
9.99315E-01 3.75735E-41
9.99524E-01 2.65327E-41
9.99695E-01 1.68713E-41
9.99829E-01 9.95059E-42
9.99924E-01 4.90453E-42
9.99981E-01 1.48811E-42
1.00000E+00 5.60477E-43
