 #
 # Subroutine ELSEPA. Elastic scattering of electrons and positrons
 #                    by neutral atoms and positive ions
 #
 # Projectile: positron
 # Kinetic energy = 3.50000E+08 eV = 1.28623E+07 a.u.
 #
 # WARNING: High-energy factorization with free-atom DF screening.
 #          Absorption, polarization and exchange corrections are
 #          switched off.
 #          Phase shifts are calculated for the bare nucleus.
 #          Scattering amplitudes are not evaluated.
 #
 # Element: Co,  Z =  27,  atomic weight = 5.89332E+01 g/mol
 #
 # Nuclear model: Fermi distribution
 #                Average radius = 4.16393E-13 cm
 #                Skin thickness = 5.46000E-14 cm
 #
 # Number of electrons = 27
 #
 # Total elastic cross section = 1.96516E-18 cm**2 = 7.01772E-02 a0**2
 # 1st transport cross section = 1.22258E-26 cm**2 = 4.36593E-10 a0**2
 # 2nd transport cross section = 3.66406E-26 cm**2 = 1.30846E-09 a0**2
 #
 #
 # Differential cross section:                       MU=(1-COS(THETA))/2
 #
 #  THETA        MU          DCS          DCS        Sherman      error
 #  (deg)                 (cm**2/sr)   (a0**2/sr)    function
 #----------------------------------------------------------------------
0.00000E+00 2.18516E-09
7.61557E-13 2.11233E-09
1.18994E-12 2.07311E-09
1.71346E-12 2.02678E-09
2.33225E-12 1.97399E-09
3.04617E-12 1.91614E-09
3.85530E-12 1.85371E-09
4.75964E-12 1.78786E-09
5.75917E-12 1.71982E-09
6.85391E-12 1.64969E-09
8.04379E-12 1.57901E-09
9.32893E-12 1.50846E-09
1.07092E-11 1.43809E-09
1.21847E-11 1.36918E-09
1.37554E-11 1.30186E-09
1.54213E-11 1.23635E-09
1.71823E-11 1.17339E-09
1.90386E-11 1.11274E-09
2.09900E-11 1.05474E-09
2.30367E-11 9.99681E-10
2.51785E-11 9.47121E-10
2.74156E-11 8.97449E-10
2.97478E-11 8.50617E-10
3.21752E-11 8.06215E-10
3.46979E-11 7.64534E-10
3.73157E-11 7.25333E-10
4.00286E-11 6.88389E-10
4.28368E-11 6.53795E-10
4.57402E-11 6.21263E-10
4.87388E-11 5.90704E-10
5.18325E-11 5.62108E-10
5.50215E-11 5.35167E-10
5.83057E-11 5.09901E-10
6.16850E-11 4.86239E-10
6.51595E-11 4.63878E-10
6.87293E-11 4.42918E-10
7.23943E-11 4.23217E-10
7.61544E-11 4.04596E-10
1.18991E-10 2.66941E-10
1.71347E-10 1.84361E-10
2.33223E-10 1.29279E-10
3.04617E-10 9.46889E-11
3.85531E-10 6.94133E-11
4.75965E-10 5.17180E-11
5.75917E-10 3.92296E-11
6.85389E-10 2.97566E-11
8.04380E-10 2.29617E-11
9.32891E-10 1.79336E-11
1.07092E-09 1.41198E-11
1.21847E-09 1.12728E-11
1.37554E-09 9.09471E-12
1.54213E-09 7.41457E-12
1.71823E-09 6.11168E-12
1.90386E-09 5.08464E-12
2.09900E-09 4.26944E-12
2.30367E-09 3.61631E-12
2.51785E-09 3.08603E-12
2.74156E-09 2.65284E-12
2.97478E-09 2.29587E-12
3.21752E-09 1.99806E-12
3.46978E-09 1.74880E-12
3.73156E-09 1.53830E-12
4.00286E-09 1.35889E-12
4.28368E-09 1.20573E-12
4.57402E-09 1.07373E-12
4.87388E-09 9.59349E-13
5.18326E-09 8.60127E-13
5.50215E-09 7.73172E-13
5.83057E-09 6.97011E-13
6.16850E-09 6.30137E-13
6.51596E-09 5.70766E-13
6.87293E-09 5.18302E-13
7.23942E-09 4.71691E-13
7.61544E-09 4.30015E-13
1.18991E-08 1.87220E-13
1.71347E-08 9.30242E-14
2.33223E-08 5.10648E-14
3.04617E-08 3.02999E-14
3.85531E-08 1.91100E-14
4.75965E-08 1.26536E-14
5.75917E-08 8.71355E-15
6.85389E-08 6.19833E-15
8.04380E-08 4.52986E-15
9.32891E-08 3.38741E-15
1.07092E-07 2.58370E-15
1.21847E-07 2.00464E-15
1.37554E-07 1.57906E-15
1.54213E-07 1.26052E-15
1.71823E-07 1.01831E-15
1.90386E-07 8.31509E-16
2.09900E-07 6.85562E-16
2.30367E-07 5.70240E-16
2.51785E-07 4.78133E-16
2.74156E-07 4.03867E-16
2.97478E-07 3.43456E-16
3.21752E-07 2.93910E-16
3.46978E-07 2.52973E-16
3.73156E-07 2.18911E-16
4.00286E-07 1.90386E-16
4.28368E-07 1.66354E-16
4.57402E-07 1.45992E-16
4.87388E-07 1.28649E-16
5.18325E-07 1.13803E-16
5.50215E-07 1.01036E-16
5.83057E-07 9.00090E-17
6.16850E-07 8.04443E-17
6.51596E-07 7.21160E-17
6.87293E-07 6.48371E-17
7.23942E-07 5.84531E-17
7.61543E-07 5.28354E-17
1.18991E-06 2.16716E-17
1.71347E-06 1.04573E-17
2.33223E-06 5.64603E-18
3.04617E-06 3.30994E-18
3.85531E-06 2.06642E-18
4.75964E-06 1.35574E-18
5.75916E-06 9.25941E-19
6.85388E-06 6.53730E-19
8.04378E-06 4.74585E-19
9.32888E-06 3.52807E-19
1.07092E-05 2.67696E-19
1.21846E-05 2.06768E-19
1.37553E-05 1.62227E-19
1.54212E-05 1.29057E-19
1.71822E-05 1.03947E-19
1.90385E-05 8.46494E-20
2.09899E-05 6.96410E-20
2.30365E-05 5.78143E-20
2.51783E-05 4.83923E-20
2.74153E-05 4.08115E-20
2.97475E-05 3.46573E-20
3.21749E-05 2.96203E-20
3.46974E-05 2.54662E-20
3.73152E-05 2.20158E-20
4.00281E-05 1.91308E-20
4.28362E-05 1.67035E-20
4.57395E-05 1.46490E-20
4.87380E-05 1.29007E-20
5.18317E-05 1.14054E-20
5.50205E-05 1.01203E-20
5.83045E-05 9.01111E-21
6.16838E-05 8.04976E-21
6.51582E-05 7.21327E-21
6.87277E-05 6.48271E-21
7.23925E-05 5.84235E-21
7.61524E-05 5.26978E-21
9.21439E-05 3.59576E-21
1.09658E-04 2.53607E-21
1.28695E-04 1.83916E-21
1.49255E-04 1.36565E-21
1.71338E-04 1.03495E-21
1.94942E-04 7.98353E-22
2.20070E-04 6.25512E-22
2.46720E-04 4.96894E-22
2.74892E-04 3.99596E-22
3.04586E-04 3.24911E-22
3.35803E-04 2.66818E-22
3.68542E-04 2.21093E-22
4.02802E-04 1.84709E-22
4.38585E-04 1.55472E-22
4.75889E-04 1.31764E-22
5.14715E-04 1.12378E-22
5.55063E-04 9.64062E-23
5.96931E-04 8.31519E-23
6.40321E-04 7.20806E-23
6.85233E-04 6.27760E-23
7.31665E-04 5.49111E-23
7.79618E-04 4.82279E-23
8.29092E-04 4.25200E-23
8.80086E-04 3.76224E-23
9.32601E-04 3.34014E-23
9.86636E-04 2.97483E-23
1.04219E-03 2.65743E-23
1.09927E-03 2.38063E-23
1.15786E-03 2.13838E-23
1.21797E-03 1.92568E-23
1.27961E-03 1.73831E-23
1.34276E-03 1.57278E-23
1.40743E-03 1.42611E-23
1.47362E-03 1.29580E-23
1.54133E-03 1.17973E-23
1.61056E-03 1.07608E-23
1.68131E-03 9.83306E-24
1.75357E-03 9.00078E-24
1.82735E-03 8.25252E-24
1.90265E-03 7.57840E-24
1.97947E-03 6.96985E-24
2.05780E-03 6.41946E-24
2.13765E-03 5.92074E-24
2.21902E-03 5.46806E-24
2.30190E-03 5.05646E-24
2.38630E-03 4.68160E-24
2.47222E-03 4.33967E-24
2.55965E-03 4.02731E-24
2.64859E-03 3.74153E-24
2.73905E-03 3.47971E-24
2.83103E-03 3.23951E-24
2.92452E-03 3.01887E-24
3.01952E-03 2.81592E-24
3.11604E-03 2.62902E-24
3.21407E-03 2.45671E-24
3.31362E-03 2.29765E-24
3.41468E-03 2.15066E-24
3.51725E-03 2.01469E-24
3.62133E-03 1.88878E-24
3.72692E-03 1.77206E-24
3.83403E-03 1.66376E-24
3.94265E-03 1.56317E-24
4.05278E-03 1.46966E-24
4.16442E-03 1.38266E-24
4.27757E-03 1.30163E-24
4.39223E-03 1.22612E-24
4.50840E-03 1.15568E-24
4.62608E-03 1.08992E-24
4.74527E-03 1.02848E-24
4.86597E-03 9.71036E-25
4.98817E-03 9.17290E-25
5.11188E-03 8.66967E-25
5.23711E-03 8.19816E-25
5.36383E-03 7.75607E-25
5.49207E-03 7.34130E-25
5.62181E-03 6.95191E-25
5.75306E-03 6.58612E-25
5.88581E-03 6.24230E-25
6.02007E-03 5.91892E-25
6.15583E-03 5.61461E-25
6.29310E-03 5.32807E-25
6.43187E-03 5.05813E-25
6.57214E-03 4.80368E-25
6.71392E-03 4.56371E-25
6.85720E-03 4.33728E-25
7.00198E-03 4.12352E-25
7.14827E-03 3.92163E-25
7.29605E-03 3.73086E-25
7.44534E-03 3.55051E-25
7.59612E-03 3.37994E-25
7.97965E-03 2.99244E-25
8.37255E-03 2.65410E-25
8.77480E-03 2.35794E-25
9.18641E-03 2.09811E-25
9.60736E-03 1.86964E-25
1.00376E-02 1.66833E-25
1.04773E-02 1.49061E-25
1.09262E-02 1.33342E-25
1.13844E-02 1.19414E-25
1.18520E-02 1.07053E-25
1.23288E-02 9.60656E-26
1.28150E-02 8.62845E-26
1.33104E-02 7.75652E-26
1.38150E-02 6.97822E-26
1.43290E-02 6.28262E-26
1.48521E-02 5.66022E-26
1.53845E-02 5.10268E-26
1.59262E-02 4.60274E-26
1.64770E-02 4.15400E-26
1.70371E-02 3.75084E-26
1.76063E-02 3.38831E-26
1.81848E-02 3.06207E-26
1.87724E-02 2.76824E-26
1.93692E-02 2.50342E-26
1.99751E-02 2.26459E-26
2.05901E-02 2.04906E-26
2.12143E-02 1.85445E-26
2.18476E-02 1.67862E-26
2.24900E-02 1.51970E-26
2.31415E-02 1.37598E-26
2.38021E-02 1.24596E-26
2.44717E-02 1.12829E-26
2.51504E-02 1.02175E-26
2.58382E-02 9.25275E-27
2.65349E-02 8.37879E-27
2.72407E-02 7.58689E-27
2.79555E-02 6.86922E-27
2.86793E-02 6.21869E-27
2.94120E-02 5.62895E-27
3.01537E-02 5.09424E-27
3.09043E-02 4.60940E-27
3.16639E-02 4.16975E-27
3.24324E-02 3.77107E-27
3.32098E-02 3.40954E-27
3.39961E-02 3.08172E-27
3.47912E-02 2.78448E-27
3.55952E-02 2.51500E-27
3.64081E-02 2.27070E-27
3.72297E-02 2.04928E-27
3.80602E-02 1.84862E-27
3.88995E-02 1.66682E-27
3.97476E-02 1.50214E-27
4.06044E-02 1.35302E-27
4.14700E-02 1.21802E-27
4.23443E-02 1.09584E-27
4.32273E-02 9.85306E-28
4.41190E-02 8.85349E-28
4.50194E-02 7.94993E-28
4.59284E-02 7.13353E-28
4.68461E-02 6.39623E-28
4.87074E-02 5.13034E-28
5.06030E-02 4.10127E-28
5.25328E-02 3.26687E-28
5.44967E-02 2.59224E-28
5.64946E-02 2.04855E-28
5.85262E-02 1.61193E-28
6.05914E-02 1.26269E-28
6.26901E-02 9.84571E-29
6.48222E-02 7.64172E-29
6.69873E-02 5.90462E-29
6.91854E-02 4.54381E-29
7.14163E-02 3.48499E-29
7.36799E-02 2.66740E-29
7.59760E-02 2.04145E-29
7.83043E-02 1.56686E-29
8.06647E-02 1.21095E-29
8.30571E-02 9.47362E-30
8.54812E-02 7.54935E-30
8.79369E-02 6.16746E-30
9.04240E-02 5.19360E-30
9.29422E-02 4.52181E-30
9.54915E-02 4.06921E-30
9.80716E-02 3.77157E-30
1.00682E-01 3.57973E-30
1.03323E-01 3.45654E-30
1.05995E-01 3.37446E-30
1.08696E-01 3.31350E-30
1.11427E-01 3.25959E-30
1.14188E-01 3.20327E-30
1.16978E-01 3.13855E-30
1.19797E-01 3.06209E-30
1.22645E-01 2.97251E-30
1.25522E-01 2.86980E-30
1.28428E-01 2.75492E-30
1.31361E-01 2.62944E-30
1.34323E-01 2.49532E-30
1.37313E-01 2.35467E-30
1.40330E-01 2.20964E-30
1.43375E-01 2.06231E-30
1.46447E-01 1.91460E-30
1.49545E-01 1.76826E-30
1.52671E-01 1.62481E-30
1.55823E-01 1.48555E-30
1.59001E-01 1.35155E-30
1.62205E-01 1.22366E-30
1.65435E-01 1.10254E-30
1.68690E-01 9.88642E-31
1.71970E-01 8.82257E-31
1.75276E-01 7.83528E-31
1.78606E-01 6.92466E-31
1.81961E-01 6.08976E-31
1.85340E-01 5.32871E-31
1.88743E-01 4.63889E-31
1.92169E-01 4.01715E-31
1.95619E-01 3.45988E-31
1.99092E-01 2.96317E-31
2.02589E-01 2.52294E-31
2.06107E-01 2.13498E-31
2.09649E-01 1.79510E-31
2.13212E-01 1.49913E-31
2.16797E-01 1.24303E-31
2.20404E-01 1.02289E-31
2.24032E-01 8.34989E-32
2.27680E-01 6.75813E-32
2.31350E-01 5.42071E-32
2.35040E-01 4.30703E-32
2.38751E-01 3.38889E-32
2.42481E-01 2.64044E-32
2.46231E-01 2.03820E-32
2.50000E-01 1.56093E-32
2.53788E-01 1.18958E-32
2.57595E-01 9.07177E-33
2.61421E-01 6.98679E-33
2.65264E-01 5.50868E-33
2.69126E-01 4.52198E-33
2.73005E-01 3.92669E-33
2.76901E-01 3.63683E-33
2.80814E-01 3.57918E-33
2.84744E-01 3.69190E-33
2.88691E-01 3.92338E-33
2.92653E-01 4.23107E-33
2.96632E-01 4.58035E-33
3.00625E-01 4.94357E-33
3.04634E-01 5.29911E-33
3.08658E-01 5.63051E-33
3.12697E-01 5.92574E-33
3.16749E-01 6.17645E-33
3.20816E-01 6.37742E-33
3.24896E-01 6.52595E-33
3.28990E-01 6.62140E-33
3.33097E-01 6.66478E-33
3.37216E-01 6.65833E-33
3.41348E-01 6.60527E-33
3.45492E-01 6.50948E-33
3.49647E-01 6.37530E-33
3.53814E-01 6.20731E-33
3.57992E-01 6.01021E-33
3.62181E-01 5.78868E-33
3.66381E-01 5.54724E-33
3.70590E-01 5.29025E-33
3.74810E-01 5.02179E-33
3.79039E-01 4.74563E-33
3.83277E-01 4.46523E-33
3.87524E-01 4.18370E-33
3.91780E-01 3.90380E-33
3.96044E-01 3.62794E-33
4.00316E-01 3.35821E-33
4.04596E-01 3.09635E-33
4.08882E-01 2.84382E-33
4.13176E-01 2.60178E-33
4.17476E-01 2.37114E-33
4.21783E-01 2.15255E-33
4.26095E-01 1.94648E-33
4.30413E-01 1.75317E-33
4.34737E-01 1.57271E-33
4.39065E-01 1.40503E-33
4.43398E-01 1.24996E-33
4.47736E-01 1.10720E-33
4.52077E-01 9.76358E-34
4.56422E-01 8.56990E-34
4.60770E-01 7.48583E-34
4.65122E-01 6.50582E-34
4.69476E-01 5.62406E-34
4.73832E-01 4.83454E-34
4.78190E-01 4.13115E-34
4.82550E-01 3.50773E-34
4.86912E-01 2.95826E-34
4.91274E-01 2.47678E-34
4.95637E-01 2.05752E-34
5.00000E-01 1.69490E-34
5.04363E-01 1.38359E-34
5.08726E-01 1.11855E-34
5.13088E-01 8.94965E-35
5.17450E-01 7.08373E-35
5.21810E-01 5.54559E-35
5.26168E-01 4.29640E-35
5.30524E-01 3.30014E-35
5.34878E-01 2.52378E-35
5.39230E-01 1.93709E-35
5.43578E-01 1.51262E-35
5.47923E-01 1.22550E-35
5.52264E-01 1.05342E-35
5.56602E-01 9.76330E-36
5.60935E-01 9.76472E-36
5.65263E-01 1.03813E-35
5.69587E-01 1.14747E-35
5.73905E-01 1.29248E-35
5.78217E-01 1.46273E-35
5.82524E-01 1.64928E-35
5.86824E-01 1.84456E-35
5.91118E-01 2.04218E-35
5.95404E-01 2.23689E-35
5.99684E-01 2.42437E-35
6.03956E-01 2.60119E-35
6.08220E-01 2.76471E-35
6.12476E-01 2.91291E-35
6.16723E-01 3.04441E-35
6.20961E-01 3.15829E-35
6.25190E-01 3.25407E-35
6.29410E-01 3.33166E-35
6.33619E-01 3.39128E-35
6.37819E-01 3.43334E-35
6.42008E-01 3.45854E-35
6.46186E-01 3.46765E-35
6.50353E-01 3.46166E-35
6.54508E-01 3.44157E-35
6.58652E-01 3.40850E-35
6.62784E-01 3.36356E-35
6.66903E-01 3.30790E-35
6.71010E-01 3.24269E-35
6.75104E-01 3.16906E-35
6.79184E-01 3.08808E-35
6.83251E-01 3.00084E-35
6.87303E-01 2.90833E-35
6.91342E-01 2.81155E-35
6.95366E-01 2.71139E-35
6.99375E-01 2.60867E-35
7.03368E-01 2.50420E-35
7.07347E-01 2.39871E-35
7.11309E-01 2.29281E-35
7.15256E-01 2.18715E-35
7.19186E-01 2.08225E-35
7.23099E-01 1.97855E-35
7.26995E-01 1.87651E-35
7.30874E-01 1.77649E-35
7.34736E-01 1.67880E-35
7.38579E-01 1.58373E-35
7.42405E-01 1.49146E-35
7.46212E-01 1.40220E-35
7.50000E-01 1.31611E-35
7.53769E-01 1.23328E-35
7.57519E-01 1.15380E-35
7.61249E-01 1.07773E-35
7.64960E-01 1.00507E-35
7.68650E-01 9.35843E-36
7.72320E-01 8.70023E-36
7.75968E-01 8.07561E-36
7.79596E-01 7.48436E-36
7.83203E-01 6.92548E-36
7.86788E-01 6.39852E-36
7.90351E-01 5.90238E-36
7.93893E-01 5.43612E-36
7.97411E-01 4.99883E-36
8.00908E-01 4.58941E-36
8.04381E-01 4.20676E-36
8.07831E-01 3.84968E-36
8.11257E-01 3.51714E-36
8.14660E-01 3.20796E-36
8.18039E-01 2.92093E-36
8.21394E-01 2.65496E-36
8.24724E-01 2.40898E-36
8.28030E-01 2.18179E-36
8.31310E-01 1.97237E-36
8.34565E-01 1.77954E-36
8.37795E-01 1.60245E-36
8.40999E-01 1.43997E-36
8.44177E-01 1.29126E-36
8.47329E-01 1.15537E-36
8.50455E-01 1.03146E-36
8.53553E-01 9.18633E-37
8.56625E-01 8.16105E-37
8.59670E-01 7.23179E-37
8.62687E-01 6.39085E-37
8.65677E-01 5.63130E-37
8.68639E-01 4.94755E-37
8.71572E-01 4.33246E-37
8.74478E-01 3.78153E-37
8.77355E-01 3.28860E-37
8.80203E-01 2.84902E-37
8.83022E-01 2.45853E-37
8.85812E-01 2.11238E-37
8.88573E-01 1.80656E-37
8.91304E-01 1.53690E-37
8.94005E-01 1.30086E-37
8.96677E-01 1.09450E-37
8.99318E-01 9.15486E-38
9.01928E-01 7.60410E-38
9.04508E-01 6.27081E-38
9.07058E-01 5.13076E-38
9.09576E-01 4.16525E-38
9.12063E-01 3.35118E-38
9.14519E-01 2.67455E-38
9.16943E-01 2.11659E-38
9.19335E-01 1.66333E-38
9.21696E-01 1.30151E-38
9.24024E-01 1.01815E-38
9.26320E-01 8.04158E-39
9.28584E-01 6.47680E-39
9.30815E-01 5.41613E-39
9.33013E-01 4.77023E-39
9.35178E-01 4.47347E-39
9.37310E-01 4.46288E-39
9.39409E-01 4.68820E-39
9.41474E-01 5.09237E-39
9.43505E-01 5.63869E-39
9.45503E-01 6.28434E-39
9.47467E-01 6.99952E-39
9.49397E-01 7.75742E-39
9.51293E-01 8.53267E-39
9.53154E-01 9.30544E-39
9.54981E-01 1.00589E-38
9.56773E-01 1.07773E-38
9.58530E-01 1.14479E-38
9.60252E-01 1.20644E-38
9.61940E-01 1.26187E-38
9.63592E-01 1.31045E-38
9.65209E-01 1.35219E-38
9.66790E-01 1.38598E-38
9.68336E-01 1.41231E-38
9.69846E-01 1.43120E-38
9.71321E-01 1.44244E-38
9.72759E-01 1.44695E-38
9.74162E-01 1.44375E-38
9.75528E-01 1.43400E-38
9.76858E-01 1.41834E-38
9.78152E-01 1.39647E-38
9.79410E-01 1.36874E-38
9.80631E-01 1.33544E-38
9.81815E-01 1.29839E-38
9.82963E-01 1.25659E-38
9.84074E-01 1.21122E-38
9.85148E-01 1.16254E-38
9.86185E-01 1.11079E-38
9.87185E-01 1.05754E-38
9.88148E-01 1.00142E-38
9.89074E-01 9.44630E-39
9.89962E-01 8.85322E-39
9.90814E-01 8.26565E-39
9.91627E-01 7.67860E-39
9.92404E-01 7.09055E-39
9.93143E-01 6.50426E-39
9.93844E-01 5.93282E-39
9.94508E-01 5.36649E-39
9.95134E-01 4.82095E-39
9.95722E-01 4.29346E-39
9.96273E-01 3.78128E-39
9.96786E-01 3.29963E-39
9.97261E-01 2.83771E-39
9.97698E-01 2.40781E-39
9.98097E-01 2.00368E-39
9.98459E-01 1.63751E-39
9.98782E-01 1.30009E-39
9.99067E-01 9.96881E-40
9.99315E-01 7.42413E-40
9.99524E-01 5.15964E-40
9.99695E-01 3.33321E-40
9.99829E-01 1.87452E-40
9.99924E-01 8.37624E-41
9.99981E-01 2.36265E-41
1.00000E+00 2.01651E-42
