 #
 # Subroutine ELSEPA. Elastic scattering of electrons and positrons
 #                    by neutral atoms and positive ions
 #
 # Projectile: positron
 # Kinetic energy = 1.50000E+06 eV = 5.51240E+04 a.u.
 #
 # WARNING: High-energy factorization with free-atom DF screening.
 #          Absorption, polarization and exchange corrections are
 #          switched off.
 #          Phase shifts are calculated for the bare nucleus.
 #          Scattering amplitudes are not evaluated.
 #
 # Element: Co,  Z =  27,  atomic weight = 5.89332E+01 g/mol
 #
 # Nuclear model: Fermi distribution
 #                Average radius = 4.16393E-13 cm
 #                Skin thickness = 5.46000E-14 cm
 #
 # Number of electrons = 27
 #
 # Total elastic cross section = 2.09789E-18 cm**2 = 7.49169E-02 a0**2
 # 1st transport cross section = 2.34952E-22 cm**2 = 8.39030E-06 a0**2
 # 2nd transport cross section = 6.67711E-22 cm**2 = 2.38444E-05 a0**2
 #
 #
 # Differential cross section:                       MU=(1-COS(THETA))/2
 #
 #  THETA        MU          DCS          DCS        Sherman      error
 #  (deg)                 (cm**2/sr)   (a0**2/sr)    function
 #----------------------------------------------------------------------
0.00000E+00 7.19290E-14
7.61557E-13 7.19289E-14
1.18994E-12 7.19289E-14
1.71346E-12 7.19288E-14
2.33225E-12 7.19287E-14
3.04617E-12 7.19287E-14
3.85530E-12 7.19286E-14
4.75964E-12 7.19285E-14
5.75917E-12 7.19284E-14
6.85391E-12 7.19282E-14
8.04379E-12 7.19281E-14
9.32893E-12 7.19280E-14
1.07092E-11 7.19278E-14
1.21847E-11 7.19276E-14
1.37554E-11 7.19275E-14
1.54213E-11 7.19273E-14
1.71823E-11 7.19271E-14
1.90386E-11 7.19269E-14
2.09900E-11 7.19267E-14
2.30367E-11 7.19265E-14
2.51785E-11 7.19263E-14
2.74156E-11 7.19260E-14
2.97478E-11 7.19258E-14
3.21752E-11 7.19255E-14
3.46979E-11 7.19253E-14
3.73157E-11 7.19250E-14
4.00286E-11 7.19247E-14
4.28368E-11 7.19244E-14
4.57402E-11 7.19241E-14
4.87388E-11 7.19238E-14
5.18325E-11 7.19235E-14
5.50215E-11 7.19232E-14
5.83057E-11 7.19229E-14
6.16850E-11 7.19225E-14
6.51595E-11 7.19221E-14
6.87293E-11 7.19218E-14
7.23943E-11 7.19214E-14
7.61544E-11 7.19210E-14
1.18991E-10 7.19166E-14
1.71347E-10 7.19113E-14
2.33223E-10 7.19051E-14
3.04617E-10 7.18978E-14
3.85531E-10 7.18897E-14
4.75965E-10 7.18806E-14
5.75917E-10 7.18705E-14
6.85389E-10 7.18595E-14
8.04380E-10 7.18476E-14
9.32891E-10 7.18347E-14
1.07092E-09 7.18209E-14
1.21847E-09 7.18061E-14
1.37554E-09 7.17904E-14
1.54213E-09 7.17738E-14
1.71823E-09 7.17562E-14
1.90386E-09 7.17377E-14
2.09900E-09 7.17182E-14
2.30367E-09 7.16979E-14
2.51785E-09 7.16765E-14
2.74156E-09 7.16543E-14
2.97478E-09 7.16311E-14
3.21752E-09 7.16070E-14
3.46978E-09 7.15820E-14
3.73156E-09 7.15560E-14
4.00286E-09 7.15291E-14
4.28368E-09 7.15013E-14
4.57402E-09 7.14726E-14
4.87388E-09 7.14429E-14
5.18326E-09 7.14124E-14
5.50215E-09 7.13809E-14
5.83057E-09 7.13485E-14
6.16850E-09 7.13152E-14
6.51596E-09 7.12810E-14
6.87293E-09 7.12459E-14
7.23942E-09 7.12099E-14
7.61544E-09 7.11730E-14
1.18991E-08 7.07547E-14
1.71347E-08 7.02491E-14
2.33223E-08 6.96593E-14
3.04617E-08 6.89890E-14
3.85531E-08 6.82421E-14
4.75965E-08 6.74230E-14
5.75917E-08 6.65364E-14
6.85389E-08 6.55827E-14
8.04380E-08 6.45746E-14
9.32891E-08 6.35211E-14
1.07092E-07 6.24098E-14
1.21847E-07 6.12627E-14
1.37554E-07 6.00862E-14
1.54213E-07 5.88651E-14
1.71823E-07 5.76278E-14
1.90386E-07 5.63728E-14
2.09900E-07 5.50916E-14
2.30367E-07 5.38097E-14
2.51785E-07 5.25192E-14
2.74156E-07 5.12204E-14
2.97478E-07 4.99336E-14
3.21752E-07 4.86447E-14
3.46978E-07 4.73635E-14
3.73156E-07 4.61039E-14
4.00286E-07 4.48468E-14
4.28368E-07 4.36104E-14
4.57402E-07 4.24023E-14
4.87388E-07 4.11995E-14
5.18325E-07 4.00273E-14
5.50215E-07 3.88841E-14
5.83057E-07 3.77545E-14
6.16850E-07 3.66589E-14
6.51596E-07 3.55908E-14
6.87293E-07 3.45436E-14
7.23942E-07 3.35310E-14
7.61543E-07 3.25438E-14
1.18991E-06 2.41824E-14
1.71347E-06 1.82230E-14
2.33223E-06 1.40187E-14
3.04617E-06 1.10075E-14
3.85531E-06 8.79801E-15
4.75964E-06 7.13057E-15
5.75916E-06 5.84440E-15
6.85388E-06 4.77691E-15
8.04378E-06 3.96489E-15
9.32888E-06 3.35602E-15
1.07092E-05 2.79860E-15
1.21846E-05 2.36232E-15
1.37553E-05 2.01905E-15
1.54212E-05 1.70485E-15
1.71822E-05 1.45671E-15
1.90385E-05 1.25220E-15
2.09899E-05 1.07200E-15
2.30365E-05 9.25982E-16
2.51783E-05 8.02197E-16
2.74153E-05 6.95279E-16
2.97475E-05 6.06803E-16
3.21749E-05 5.30548E-16
3.46974E-05 4.65252E-16
3.73152E-05 4.10271E-16
4.00281E-05 3.62380E-16
4.28362E-05 3.21315E-16
4.57395E-05 2.86191E-16
4.87380E-05 2.55347E-16
5.18317E-05 2.28709E-16
5.50205E-05 2.05574E-16
5.83045E-05 1.85199E-16
6.16838E-05 1.67404E-16
6.51582E-05 1.51757E-16
6.87277E-05 1.37904E-16
7.23925E-05 1.25677E-16
7.61524E-05 1.14808E-16
9.21439E-05 8.17631E-17
1.09658E-04 6.00874E-17
1.28695E-04 4.52694E-17
1.49255E-04 3.48302E-17
1.71338E-04 2.72475E-17
1.94942E-04 2.16228E-17
2.20070E-04 1.73732E-17
2.46720E-04 1.41038E-17
2.74892E-04 1.15610E-17
3.04586E-04 9.55397E-18
3.35803E-04 7.95762E-18
3.68542E-04 6.67544E-18
4.02802E-04 5.63705E-18
4.38585E-04 4.79055E-18
4.75889E-04 4.09447E-18
5.14715E-04 3.51912E-18
5.55063E-04 3.04014E-18
5.96931E-04 2.63923E-18
6.40321E-04 2.30109E-18
6.85233E-04 2.01566E-18
7.31665E-04 1.77367E-18
7.79618E-04 1.56596E-18
8.29092E-04 1.38804E-18
8.80086E-04 1.23485E-18
9.32601E-04 1.10190E-18
9.86636E-04 9.86526E-19
1.04219E-03 8.85915E-19
1.09927E-03 7.97732E-19
1.15786E-03 7.20356E-19
1.21797E-03 6.52134E-19
1.27961E-03 5.91789E-19
1.34276E-03 5.38330E-19
1.40743E-03 4.90754E-19
1.47362E-03 4.48335E-19
1.54133E-03 4.10446E-19
1.61056E-03 3.76445E-19
1.68131E-03 3.45914E-19
1.75357E-03 3.18445E-19
1.82735E-03 2.93617E-19
1.90265E-03 2.71184E-19
1.97947E-03 2.50864E-19
2.05780E-03 2.32395E-19
2.13765E-03 2.15611E-19
2.21902E-03 2.00315E-19
2.30190E-03 1.86342E-19
2.38630E-03 1.73577E-19
2.47222E-03 1.61882E-19
2.55965E-03 1.51153E-19
2.64859E-03 1.41305E-19
2.73905E-03 1.32238E-19
2.83103E-03 1.23887E-19
2.92452E-03 1.16191E-19
3.01952E-03 1.09073E-19
3.11604E-03 1.02494E-19
3.21407E-03 9.64076E-20
3.31362E-03 9.07577E-20
3.41468E-03 8.55188E-20
3.51725E-03 8.06526E-20
3.62133E-03 7.61228E-20
3.72692E-03 7.19087E-20
3.83403E-03 6.79809E-20
3.94265E-03 6.43151E-20
4.05278E-03 6.08946E-20
4.16442E-03 5.76962E-20
4.27757E-03 5.47040E-20
4.39223E-03 5.19044E-20
4.50840E-03 4.92789E-20
4.62608E-03 4.68172E-20
4.74527E-03 4.45081E-20
4.86597E-03 4.23368E-20
4.98817E-03 4.02968E-20
5.11188E-03 3.83784E-20
5.23711E-03 3.65707E-20
5.36383E-03 3.48687E-20
5.49207E-03 3.32643E-20
5.62181E-03 3.17498E-20
5.75306E-03 3.03209E-20
5.88581E-03 2.89709E-20
6.02007E-03 2.76944E-20
6.15583E-03 2.64878E-20
6.29310E-03 2.53454E-20
6.43187E-03 2.42635E-20
6.57214E-03 2.32390E-20
6.71392E-03 2.22672E-20
6.85720E-03 2.13455E-20
7.00198E-03 2.04711E-20
7.14827E-03 1.96403E-20
7.29605E-03 1.88512E-20
7.44534E-03 1.81013E-20
7.59612E-03 1.73877E-20
7.97965E-03 1.57515E-20
8.37255E-03 1.43024E-20
8.77480E-03 1.30153E-20
9.18641E-03 1.18689E-20
9.60736E-03 1.08454E-20
1.00376E-02 9.92927E-21
1.04773E-02 9.10737E-21
1.09262E-02 8.36833E-21
1.13844E-02 7.70235E-21
1.18520E-02 7.10098E-21
1.23288E-02 6.55684E-21
1.28150E-02 6.06356E-21
1.33104E-02 5.61552E-21
1.38150E-02 5.20788E-21
1.43290E-02 4.83636E-21
1.48521E-02 4.49720E-21
1.53845E-02 4.18709E-21
1.59262E-02 3.90310E-21
1.64770E-02 3.64265E-21
1.70371E-02 3.40343E-21
1.76063E-02 3.18341E-21
1.81848E-02 2.98079E-21
1.87724E-02 2.79393E-21
1.93692E-02 2.62140E-21
1.99751E-02 2.46190E-21
2.05901E-02 2.31428E-21
2.12143E-02 2.17749E-21
2.18476E-02 2.05059E-21
2.24900E-02 1.93275E-21
2.31415E-02 1.82320E-21
2.38021E-02 1.72125E-21
2.44717E-02 1.62628E-21
2.51504E-02 1.53773E-21
2.58382E-02 1.45508E-21
2.65349E-02 1.37788E-21
2.72407E-02 1.30569E-21
2.79555E-02 1.23814E-21
2.86793E-02 1.17487E-21
2.94120E-02 1.11557E-21
3.01537E-02 1.05993E-21
3.09043E-02 1.00769E-21
3.16639E-02 9.58610E-22
3.24324E-02 9.12460E-22
3.32098E-02 8.69034E-22
3.39961E-02 8.28141E-22
3.47912E-02 7.89608E-22
3.55952E-02 7.53274E-22
3.64081E-02 7.18989E-22
3.72297E-02 6.86619E-22
3.80602E-02 6.56036E-22
3.88995E-02 6.27123E-22
3.97476E-02 5.99773E-22
4.06044E-02 5.73887E-22
4.14700E-02 5.49370E-22
4.23443E-02 5.26139E-22
4.32273E-02 5.04112E-22
4.41190E-02 4.83217E-22
4.50194E-02 4.63384E-22
4.59284E-02 4.44550E-22
4.68461E-02 4.26655E-22
4.87074E-02 3.93464E-22
5.06030E-02 3.63412E-22
5.25328E-02 3.36151E-22
5.44967E-02 3.11378E-22
5.64946E-02 2.88824E-22
5.85262E-02 2.68259E-22
6.05914E-02 2.49474E-22
6.26901E-02 2.32290E-22
6.48222E-02 2.16547E-22
6.69873E-02 2.02102E-22
6.91854E-02 1.88830E-22
7.14163E-02 1.76619E-22
7.36799E-02 1.65368E-22
7.59760E-02 1.54991E-22
7.83043E-02 1.45406E-22
8.06647E-02 1.36542E-22
8.30571E-02 1.28336E-22
8.54812E-02 1.20731E-22
8.79369E-02 1.13674E-22
9.04240E-02 1.07120E-22
9.29422E-02 1.01025E-22
9.54915E-02 9.53525E-23
9.80716E-02 9.00677E-23
1.00682E-01 8.51393E-23
1.03323E-01 8.05392E-23
1.05995E-01 7.62415E-23
1.08696E-01 7.22229E-23
1.11427E-01 6.84620E-23
1.14188E-01 6.49394E-23
1.16978E-01 6.16372E-23
1.19797E-01 5.85394E-23
1.22645E-01 5.56309E-23
1.25522E-01 5.28981E-23
1.28428E-01 5.03285E-23
1.31361E-01 4.79107E-23
1.34323E-01 4.56341E-23
1.37313E-01 4.34890E-23
1.40330E-01 4.14664E-23
1.43375E-01 3.95581E-23
1.46447E-01 3.77565E-23
1.49545E-01 3.60545E-23
1.52671E-01 3.44457E-23
1.55823E-01 3.29241E-23
1.59001E-01 3.14841E-23
1.62205E-01 3.01204E-23
1.65435E-01 2.88285E-23
1.68690E-01 2.76038E-23
1.71970E-01 2.64421E-23
1.75276E-01 2.53398E-23
1.78606E-01 2.42931E-23
1.81961E-01 2.32989E-23
1.85340E-01 2.23539E-23
1.88743E-01 2.14554E-23
1.92169E-01 2.06006E-23
1.95619E-01 1.97870E-23
1.99092E-01 1.90123E-23
2.02589E-01 1.82743E-23
2.06107E-01 1.75710E-23
2.09649E-01 1.69004E-23
2.13212E-01 1.62607E-23
2.16797E-01 1.56503E-23
2.20404E-01 1.50675E-23
2.24032E-01 1.45110E-23
2.27680E-01 1.39793E-23
2.31350E-01 1.34710E-23
2.35040E-01 1.29851E-23
2.38751E-01 1.25203E-23
2.42481E-01 1.20756E-23
2.46231E-01 1.16499E-23
2.50000E-01 1.12422E-23
2.53788E-01 1.08518E-23
2.57595E-01 1.04776E-23
2.61421E-01 1.01190E-23
2.65264E-01 9.77510E-24
2.69126E-01 9.44528E-24
2.73005E-01 9.12882E-24
2.76901E-01 8.82509E-24
2.80814E-01 8.53349E-24
2.84744E-01 8.25345E-24
2.88691E-01 7.98443E-24
2.92653E-01 7.72591E-24
2.96632E-01 7.47742E-24
3.00625E-01 7.23850E-24
3.04634E-01 7.00872E-24
3.08658E-01 6.78766E-24
3.12697E-01 6.57493E-24
3.16749E-01 6.37017E-24
3.20816E-01 6.17302E-24
3.24896E-01 5.98315E-24
3.28990E-01 5.80025E-24
3.33097E-01 5.62401E-24
3.37216E-01 5.45415E-24
3.41348E-01 5.29040E-24
3.45492E-01 5.13250E-24
3.49647E-01 4.98020E-24
3.53814E-01 4.83327E-24
3.57992E-01 4.69149E-24
3.62181E-01 4.55465E-24
3.66381E-01 4.42254E-24
3.70590E-01 4.29497E-24
3.74810E-01 4.17177E-24
3.79039E-01 4.05274E-24
3.83277E-01 3.93773E-24
3.87524E-01 3.82658E-24
3.91780E-01 3.71913E-24
3.96044E-01 3.61525E-24
4.00316E-01 3.51479E-24
4.04596E-01 3.41762E-24
4.08882E-01 3.32361E-24
4.13176E-01 3.23264E-24
4.17476E-01 3.14461E-24
4.21783E-01 3.05938E-24
4.26095E-01 2.97687E-24
4.30413E-01 2.89698E-24
4.34737E-01 2.81959E-24
4.39065E-01 2.74463E-24
4.43398E-01 2.67199E-24
4.47736E-01 2.60161E-24
4.52077E-01 2.53339E-24
4.56422E-01 2.46726E-24
4.60770E-01 2.40314E-24
4.65122E-01 2.34096E-24
4.69476E-01 2.28065E-24
4.73832E-01 2.22216E-24
4.78190E-01 2.16540E-24
4.82550E-01 2.11033E-24
4.86912E-01 2.05688E-24
4.91274E-01 2.00500E-24
4.95637E-01 1.95464E-24
5.00000E-01 1.90574E-24
5.04363E-01 1.85825E-24
5.08726E-01 1.81213E-24
5.13088E-01 1.76732E-24
5.17450E-01 1.72380E-24
5.21810E-01 1.68150E-24
5.26168E-01 1.64040E-24
5.30524E-01 1.60046E-24
5.34878E-01 1.56163E-24
5.39230E-01 1.52388E-24
5.43578E-01 1.48717E-24
5.47923E-01 1.45147E-24
5.52264E-01 1.41676E-24
5.56602E-01 1.38299E-24
5.60935E-01 1.35014E-24
5.65263E-01 1.31817E-24
5.69587E-01 1.28707E-24
5.73905E-01 1.25680E-24
5.78217E-01 1.22734E-24
5.82524E-01 1.19866E-24
5.86824E-01 1.17074E-24
5.91118E-01 1.14356E-24
5.95404E-01 1.11708E-24
5.99684E-01 1.09130E-24
6.03956E-01 1.06619E-24
6.08220E-01 1.04174E-24
6.12476E-01 1.01791E-24
6.16723E-01 9.94692E-25
6.20961E-01 9.72070E-25
6.25190E-01 9.50024E-25
6.29410E-01 9.28538E-25
6.33619E-01 9.07595E-25
6.37819E-01 8.87180E-25
6.42008E-01 8.67277E-25
6.46186E-01 8.47871E-25
6.50353E-01 8.28949E-25
6.54508E-01 8.10495E-25
6.58652E-01 7.92498E-25
6.62784E-01 7.74944E-25
6.66903E-01 7.57821E-25
6.71010E-01 7.41116E-25
6.75104E-01 7.24818E-25
6.79184E-01 7.08915E-25
6.83251E-01 6.93397E-25
6.87303E-01 6.78254E-25
6.91342E-01 6.63474E-25
6.95366E-01 6.49048E-25
6.99375E-01 6.34966E-25
7.03368E-01 6.21219E-25
7.07347E-01 6.07799E-25
7.11309E-01 5.94695E-25
7.15256E-01 5.81900E-25
7.19186E-01 5.69406E-25
7.23099E-01 5.57205E-25
7.26995E-01 5.45288E-25
7.30874E-01 5.33649E-25
7.34736E-01 5.22280E-25
7.38579E-01 5.11175E-25
7.42405E-01 5.00326E-25
7.46212E-01 4.89726E-25
7.50000E-01 4.79370E-25
7.53769E-01 4.69252E-25
7.57519E-01 4.59364E-25
7.61249E-01 4.49702E-25
7.64960E-01 4.40260E-25
7.68650E-01 4.31032E-25
7.72320E-01 4.22013E-25
7.75968E-01 4.13197E-25
7.79596E-01 4.04580E-25
7.83203E-01 3.96157E-25
7.86788E-01 3.87923E-25
7.90351E-01 3.79874E-25
7.93893E-01 3.72004E-25
7.97411E-01 3.64310E-25
8.00908E-01 3.56788E-25
8.04381E-01 3.49432E-25
8.07831E-01 3.42241E-25
8.11257E-01 3.35208E-25
8.14660E-01 3.28332E-25
8.18039E-01 3.21607E-25
8.21394E-01 3.15031E-25
8.24724E-01 3.08601E-25
8.28030E-01 3.02311E-25
8.31310E-01 2.96161E-25
8.34565E-01 2.90146E-25
8.37795E-01 2.84263E-25
8.40999E-01 2.78509E-25
8.44177E-01 2.72882E-25
8.47329E-01 2.67378E-25
8.50455E-01 2.61995E-25
8.53553E-01 2.56731E-25
8.56625E-01 2.51582E-25
8.59670E-01 2.46545E-25
8.62687E-01 2.41620E-25
8.65677E-01 2.36802E-25
8.68639E-01 2.32091E-25
8.71572E-01 2.27483E-25
8.74478E-01 2.22976E-25
8.77355E-01 2.18569E-25
8.80203E-01 2.14259E-25
8.83022E-01 2.10044E-25
8.85812E-01 2.05922E-25
8.88573E-01 2.01892E-25
8.91304E-01 1.97951E-25
8.94005E-01 1.94097E-25
8.96677E-01 1.90329E-25
8.99318E-01 1.86646E-25
9.01928E-01 1.83045E-25
9.04508E-01 1.79525E-25
9.07058E-01 1.76084E-25
9.09576E-01 1.72720E-25
9.12063E-01 1.69433E-25
9.14519E-01 1.66221E-25
9.16943E-01 1.63082E-25
9.19335E-01 1.60015E-25
9.21696E-01 1.57019E-25
9.24024E-01 1.54092E-25
9.26320E-01 1.51233E-25
9.28584E-01 1.48441E-25
9.30815E-01 1.45714E-25
9.33013E-01 1.43052E-25
9.35178E-01 1.40454E-25
9.37310E-01 1.37917E-25
9.39409E-01 1.35442E-25
9.41474E-01 1.33027E-25
9.43505E-01 1.30671E-25
9.45503E-01 1.28373E-25
9.47467E-01 1.26133E-25
9.49397E-01 1.23948E-25
9.51293E-01 1.21819E-25
9.53154E-01 1.19745E-25
9.54981E-01 1.17724E-25
9.56773E-01 1.15756E-25
9.58530E-01 1.13840E-25
9.60252E-01 1.11975E-25
9.61940E-01 1.10161E-25
9.63592E-01 1.08396E-25
9.65209E-01 1.06681E-25
9.66790E-01 1.05014E-25
9.68336E-01 1.03394E-25
9.69846E-01 1.01822E-25
9.71321E-01 1.00296E-25
9.72759E-01 9.88154E-26
9.74162E-01 9.73804E-26
9.75528E-01 9.59901E-26
9.76858E-01 9.46439E-26
9.78152E-01 9.33413E-26
9.79410E-01 9.20818E-26
9.80631E-01 9.08649E-26
9.81815E-01 8.96902E-26
9.82963E-01 8.85571E-26
9.84074E-01 8.74652E-26
9.85148E-01 8.64141E-26
9.86185E-01 8.54035E-26
9.87185E-01 8.44329E-26
9.88148E-01 8.35019E-26
9.89074E-01 8.26102E-26
9.89962E-01 8.17574E-26
9.90814E-01 8.09433E-26
9.91627E-01 8.01674E-26
9.92404E-01 7.94296E-26
9.93143E-01 7.87296E-26
9.93844E-01 7.80670E-26
9.94508E-01 7.74416E-26
9.95134E-01 7.68532E-26
9.95722E-01 7.63016E-26
9.96273E-01 7.57865E-26
9.96786E-01 7.53078E-26
9.97261E-01 7.48652E-26
9.97698E-01 7.44587E-26
9.98097E-01 7.40880E-26
9.98459E-01 7.37530E-26
9.98782E-01 7.34537E-26
9.99067E-01 7.31898E-26
9.99315E-01 7.29613E-26
9.99524E-01 7.27681E-26
9.99695E-01 7.26101E-26
9.99829E-01 7.24873E-26
9.99924E-01 7.23997E-26
9.99981E-01 7.23471E-26
1.00000E+00 7.23295E-26
