 #
 # Subroutine ELSEPA. Elastic scattering of electrons and positrons
 #                    by neutral atoms and positive ions
 #
 # Projectile: positron
 # Kinetic energy = 8.00000E+08 eV = 2.93995E+07 a.u.
 #
 # WARNING: High-energy factorization with free-atom DF screening.
 #          Absorption, polarization and exchange corrections are
 #          switched off.
 #          Phase shifts are calculated for the bare nucleus.
 #          Scattering amplitudes are not evaluated.
 #
 # Element: Co,  Z =  27,  atomic weight = 5.89332E+01 g/mol
 #
 # Nuclear model: Fermi distribution
 #                Average radius = 4.16393E-13 cm
 #                Skin thickness = 5.46000E-14 cm
 #
 # Number of electrons = 27
 #
 # Total elastic cross section = 1.95730E-18 cm**2 = 6.98963E-02 a0**2
 # 1st transport cross section = 2.35080E-27 cm**2 = 8.39485E-11 a0**2
 # 2nd transport cross section = 7.05103E-27 cm**2 = 2.51797E-10 a0**2
 #
 #
 # Differential cross section:                       MU=(1-COS(THETA))/2
 #
 #  THETA        MU          DCS          DCS        Sherman      error
 #  (deg)                 (cm**2/sr)   (a0**2/sr)    function
 #----------------------------------------------------------------------
0.00000E+00 1.13976E-08
7.61557E-13 9.62355E-09
1.18994E-12 8.81722E-09
1.71346E-12 7.97660E-09
2.33225E-12 7.14623E-09
3.04617E-12 6.35853E-09
3.85530E-12 5.63491E-09
4.75964E-12 4.98323E-09
5.75917E-12 4.40774E-09
6.85391E-12 3.90296E-09
8.04379E-12 3.46518E-09
9.32893E-12 3.08512E-09
1.07092E-11 2.75682E-09
1.21847E-11 2.47201E-09
1.37554E-11 2.22490E-09
1.54213E-11 2.00943E-09
1.71823E-11 1.82091E-09
1.90386E-11 1.65525E-09
2.09900E-11 1.50883E-09
2.30367E-11 1.37914E-09
2.51785E-11 1.26332E-09
2.74156E-11 1.15998E-09
2.97478E-11 1.06680E-09
3.21752E-11 9.83062E-10
3.46979E-11 9.07090E-10
3.73157E-11 8.34503E-10
4.00286E-11 7.67647E-10
4.28368E-11 7.08813E-10
4.57402E-11 6.56842E-10
4.87388E-11 6.10763E-10
5.18325E-11 5.69765E-10
5.50215E-11 5.33163E-10
5.83057E-11 4.94984E-10
6.16850E-11 4.58984E-10
6.51595E-11 4.26782E-10
6.87293E-11 3.97890E-10
7.23943E-11 3.71896E-10
7.61544E-11 3.48446E-10
1.18991E-10 1.81572E-10
1.71347E-10 1.00435E-10
2.33223E-10 5.89705E-11
3.04617E-10 3.66650E-11
3.85531E-10 2.40491E-11
4.75965E-10 1.65054E-11
5.75917E-10 1.17701E-11
6.85389E-10 8.65297E-12
8.04380E-10 6.52500E-12
9.32891E-10 5.01859E-12
1.07092E-09 3.92605E-12
1.21847E-09 3.11412E-12
1.37554E-09 2.50069E-12
1.54213E-09 2.02921E-12
1.71823E-09 1.66211E-12
1.90386E-09 1.37308E-12
2.09900E-09 1.14307E-12
2.30367E-09 9.58635E-13
2.51785E-09 8.09317E-13
2.74156E-09 6.87689E-13
2.97478E-09 5.87728E-13
3.21752E-09 5.05147E-13
3.46978E-09 4.36419E-13
3.73156E-09 3.78829E-13
4.00286E-09 3.30432E-13
4.28368E-09 2.89622E-13
4.57402E-09 2.54800E-13
4.87388E-09 2.25082E-13
5.18326E-09 1.99612E-13
5.50215E-09 1.77591E-13
5.83057E-09 1.58557E-13
6.16850E-09 1.42016E-13
6.51596E-09 1.27569E-13
6.87293E-09 1.14933E-13
7.23942E-09 1.03821E-13
7.61544E-09 9.40245E-14
1.18991E-08 3.92633E-14
1.71347E-08 1.92210E-14
2.33223E-08 1.04909E-14
3.04617E-08 6.19953E-15
3.85531E-08 3.89296E-15
4.75965E-08 2.56497E-15
5.75917E-08 1.75736E-15
6.85389E-08 1.24367E-15
8.04380E-08 9.04503E-16
9.32891E-08 6.73360E-16
1.07092E-07 5.11491E-16
1.21847E-07 3.95431E-16
1.37554E-07 3.10479E-16
1.54213E-07 2.47148E-16
1.71823E-07 1.99164E-16
1.90386E-07 1.62275E-16
2.09900E-07 1.33541E-16
2.30367E-07 1.10892E-16
2.51785E-07 9.28459E-17
2.74156E-07 7.83247E-17
2.97478E-07 6.65338E-17
3.21752E-07 5.68799E-17
3.46978E-07 4.89147E-17
3.73156E-07 4.22959E-17
4.00286E-07 3.67595E-17
4.28368E-07 3.20999E-17
4.57402E-07 2.81556E-17
4.87388E-07 2.47988E-17
5.18325E-07 2.19277E-17
5.50215E-07 1.94602E-17
5.83057E-07 1.73302E-17
6.16850E-07 1.54838E-17
6.51596E-07 1.38768E-17
6.87293E-07 1.24730E-17
7.23942E-07 1.12422E-17
7.61543E-07 1.01596E-17
1.18991E-06 4.16156E-18
1.71347E-06 2.00685E-18
2.33223E-06 1.08317E-18
3.04617E-06 6.34877E-19
3.85531E-06 3.96311E-19
4.75964E-06 2.59993E-19
5.75916E-06 1.77559E-19
6.85388E-06 1.25355E-19
8.04378E-06 9.10007E-20
9.32888E-06 6.76483E-20
1.07092E-05 5.13281E-20
1.21846E-05 3.96452E-20
1.37553E-05 3.11046E-20
1.54212E-05 2.47446E-20
1.71822E-05 1.99299E-20
1.90385E-05 1.62298E-20
2.09899E-05 1.33522E-20
2.30365E-05 1.10846E-20
2.51783E-05 9.27810E-21
2.74153E-05 7.82462E-21
2.97475E-05 6.64469E-21
3.21749E-05 5.67894E-21
3.46974E-05 4.88248E-21
3.73152E-05 4.22095E-21
4.00281E-05 3.66783E-21
4.28362E-05 3.20243E-21
4.57395E-05 2.80854E-21
4.87380E-05 2.47335E-21
5.18317E-05 2.18665E-21
5.50205E-05 1.94028E-21
5.83045E-05 1.72762E-21
6.16838E-05 1.54331E-21
6.51582E-05 1.38293E-21
6.87277E-05 1.24287E-21
7.23925E-05 1.12010E-21
7.61524E-05 9.96618E-22
9.21439E-05 6.77700E-22
1.09658E-04 4.76152E-22
1.28695E-04 3.43846E-22
1.49255E-04 2.54136E-22
1.71338E-04 1.91626E-22
1.94942E-04 1.47015E-22
2.20070E-04 1.14513E-22
2.46720E-04 9.03979E-23
2.74892E-04 7.22127E-23
3.04586E-04 5.83011E-23
3.35803E-04 4.75193E-23
3.68542E-04 3.90655E-23
4.02802E-04 3.23663E-23
4.38585E-04 2.70061E-23
4.75889E-04 2.26796E-23
5.14715E-04 1.91590E-23
5.55063E-04 1.62729E-23
5.96931E-04 1.38907E-23
6.40321E-04 1.19119E-23
6.85233E-04 1.02586E-23
7.31665E-04 8.86966E-24
7.79618E-04 7.69691E-24
8.29092E-04 6.70197E-24
8.80086E-04 5.85416E-24
9.32601E-04 5.12873E-24
9.86636E-04 4.50559E-24
1.04219E-03 3.96839E-24
1.09927E-03 3.50366E-24
1.15786E-03 3.10036E-24
1.21797E-03 2.74928E-24
1.27961E-03 2.44280E-24
1.34276E-03 2.17454E-24
1.40743E-03 1.93911E-24
1.47362E-03 1.73202E-24
1.54133E-03 1.54943E-24
1.61056E-03 1.38810E-24
1.68131E-03 1.24526E-24
1.75357E-03 1.11855E-24
1.82735E-03 1.00594E-24
1.90265E-03 9.05696E-25
1.97947E-03 8.16303E-25
2.05780E-03 7.36466E-25
2.13765E-03 6.65059E-25
2.21902E-03 6.01102E-25
2.30190E-03 5.43741E-25
2.38630E-03 4.92231E-25
2.47222E-03 4.45921E-25
2.55965E-03 4.04238E-25
2.64859E-03 3.66680E-25
2.73905E-03 3.32804E-25
2.83103E-03 3.02220E-25
2.92452E-03 2.74583E-25
3.01952E-03 2.49588E-25
3.11604E-03 2.26963E-25
3.21407E-03 2.06469E-25
3.31362E-03 1.87891E-25
3.41468E-03 1.71038E-25
3.51725E-03 1.55741E-25
3.62133E-03 1.41848E-25
3.72692E-03 1.29223E-25
3.83403E-03 1.17745E-25
3.94265E-03 1.07303E-25
4.05278E-03 9.78003E-26
4.16442E-03 8.91487E-26
4.27757E-03 8.12689E-26
4.39223E-03 7.40895E-26
4.50840E-03 6.75461E-26
4.62608E-03 6.15807E-26
4.74527E-03 5.61408E-26
4.86597E-03 5.11789E-26
4.98817E-03 4.66521E-26
5.11188E-03 4.25216E-26
5.23711E-03 3.87521E-26
5.36383E-03 3.53116E-26
5.49207E-03 3.21711E-26
5.62181E-03 2.93042E-26
5.75306E-03 2.66870E-26
5.88581E-03 2.42978E-26
6.02007E-03 2.21166E-26
6.15583E-03 2.01254E-26
6.29310E-03 1.83078E-26
6.43187E-03 1.66488E-26
6.57214E-03 1.51347E-26
6.71392E-03 1.37530E-26
6.85720E-03 1.24924E-26
7.00198E-03 1.13425E-26
7.14827E-03 1.02937E-26
7.29605E-03 9.33739E-27
7.44534E-03 8.46565E-27
7.59612E-03 7.67122E-27
7.97965E-03 5.98124E-27
8.37255E-03 4.64544E-27
8.77480E-03 3.59241E-27
9.18641E-03 2.76490E-27
9.60736E-03 2.11696E-27
1.00376E-02 1.61175E-27
1.04773E-02 1.21968E-27
1.09262E-02 9.17073E-28
1.13844E-02 6.84939E-28
1.18520E-02 5.08107E-28
1.23288E-02 3.74470E-28
1.28150E-02 2.74390E-28
1.33104E-02 2.00217E-28
1.38150E-02 1.45901E-28
1.43290E-02 1.06675E-28
1.48521E-02 7.88059E-29
1.53845E-02 5.93817E-29
1.59262E-02 4.61492E-29
1.64770E-02 3.73777E-29
1.70371E-02 3.17504E-29
1.76063E-02 2.82765E-29
1.81848E-02 2.62206E-29
1.87724E-02 2.50463E-29
1.93692E-02 2.43705E-29
1.99751E-02 2.39275E-29
2.05901E-02 2.35404E-29
2.12143E-02 2.30979E-29
2.18476E-02 2.25376E-29
2.24900E-02 2.18312E-29
2.31415E-02 2.09743E-29
2.38021E-02 1.99785E-29
2.44717E-02 1.88649E-29
2.51504E-02 1.76598E-29
2.58382E-02 1.63914E-29
2.65349E-02 1.50876E-29
2.72407E-02 1.37746E-29
2.79555E-02 1.24755E-29
2.86793E-02 1.12101E-29
2.94120E-02 9.99493E-30
3.01537E-02 8.84275E-30
3.09043E-02 7.76312E-30
3.16639E-02 6.76251E-30
3.24324E-02 5.84470E-30
3.32098E-02 5.01112E-30
3.39961E-02 4.26125E-30
3.47912E-02 3.59295E-30
3.55952E-02 3.00284E-30
3.64081E-02 2.48655E-30
3.72297E-02 2.03906E-30
3.80602E-02 1.65491E-30
3.88995E-02 1.32840E-30
3.97476E-02 1.05378E-30
4.06044E-02 8.25366E-31
4.14700E-02 6.37672E-31
4.23443E-02 4.85484E-31
4.32273E-02 3.63920E-31
4.41190E-02 2.68473E-31
4.50194E-02 1.95035E-31
4.59284E-02 1.39907E-31
4.68461E-02 9.97952E-32
4.87074E-02 5.34091E-32
5.06030E-02 3.70937E-32
5.25328E-02 3.73085E-32
5.44967E-02 4.48417E-32
5.64946E-02 5.38790E-32
5.85262E-02 6.11409E-32
6.05914E-02 6.51357E-32
6.26901E-02 6.55486E-32
6.48222E-02 6.27667E-32
6.69873E-02 5.75300E-32
6.91854E-02 5.06906E-32
7.14163E-02 4.30589E-32
7.36799E-02 3.53172E-32
7.59760E-02 2.79830E-32
7.83043E-02 2.14041E-32
8.06647E-02 1.57759E-32
8.30571E-02 1.11682E-32
8.54812E-02 7.55619E-33
8.79369E-02 4.85094E-33
9.04240E-02 2.92590E-33
9.29422E-02 1.63846E-33
9.54915E-02 8.46160E-34
9.80716E-02 4.17734E-34
1.00682E-01 2.39704E-34
1.03323E-01 2.19420E-34
1.05995E-01 2.85412E-34
1.08696E-01 3.85902E-34
1.11427E-01 4.86208E-34
1.14188E-01 5.65611E-34
1.16978E-01 6.14129E-34
1.19797E-01 6.29496E-34
1.22645E-01 6.14521E-34
1.25522E-01 5.74936E-34
1.28428E-01 5.17733E-34
1.31361E-01 4.49977E-34
1.34323E-01 3.78025E-34
1.37313E-01 3.07093E-34
1.40330E-01 2.41071E-34
1.43375E-01 1.82540E-34
1.46447E-01 1.32902E-34
1.49545E-01 9.25834E-35
1.52671E-01 6.12658E-35
1.55823E-01 3.81137E-35
1.59001E-01 2.19809E-35
1.62205E-01 1.15826E-35
1.65435E-01 5.62870E-36
1.68690E-01 2.91958E-36
1.71970E-01 2.40699E-36
1.75276E-01 3.22491E-36
1.78606E-01 4.69815E-36
1.81961E-01 6.33331E-36
1.85340E-01 7.79894E-36
1.88743E-01 8.89934E-36
1.92169E-01 9.54605E-36
1.95619E-01 9.72982E-36
1.99092E-01 9.49522E-36
2.02589E-01 8.91888E-36
2.06107E-01 8.09212E-36
2.09649E-01 7.10779E-36
2.13212E-01 6.05115E-36
2.16797E-01 4.99429E-36
2.20404E-01 3.99341E-36
2.24032E-01 3.08824E-36
2.27680E-01 2.30311E-36
2.31350E-01 1.64901E-36
2.35040E-01 1.12607E-36
2.38751E-01 7.26424E-37
2.42481E-01 4.36666E-37
2.46231E-01 2.40294E-37
2.50000E-01 1.19562E-37
2.53788E-01 5.69964E-38
2.57595E-01 3.64883E-38
2.61421E-01 4.39699E-38
2.65264E-01 6.77553E-38
2.69126E-01 9.87079E-38
2.73005E-01 1.30064E-37
2.76901E-01 1.57265E-37
2.80814E-01 1.77592E-37
2.84744E-01 1.89837E-37
2.88691E-01 1.93919E-37
2.92653E-01 1.90558E-37
2.96632E-01 1.80968E-37
3.00625E-01 1.66612E-37
3.04634E-01 1.49018E-37
3.08658E-01 1.29623E-37
3.12697E-01 1.09695E-37
3.16749E-01 9.02768E-38
3.20816E-01 7.21688E-38
3.24896E-01 5.59164E-38
3.28990E-01 4.18567E-38
3.33097E-01 3.01265E-38
3.37216E-01 2.07035E-38
3.41348E-01 1.34481E-38
3.45492E-01 8.13644E-39
3.49647E-01 1.00000E-45
3.53814E-01 1.00000E-45
3.57992E-01 1.00000E-45
3.62181E-01 1.00000E-45
3.66381E-01 1.00000E-45
3.70590E-01 1.00000E-45
3.74810E-01 1.00000E-45
3.79039E-01 1.00000E-45
3.83277E-01 1.00000E-45
3.87524E-01 1.00000E-45
3.91780E-01 1.00000E-45
3.96044E-01 1.00000E-45
4.00316E-01 1.00000E-45
4.04596E-01 1.00000E-45
4.08882E-01 1.00000E-45
4.13176E-01 1.00000E-45
4.17476E-01 1.00000E-45
4.21783E-01 1.00000E-45
4.26095E-01 1.00000E-45
4.30413E-01 1.00000E-45
4.34737E-01 1.00000E-45
4.39065E-01 1.00000E-45
4.43398E-01 1.00000E-45
4.47736E-01 1.00000E-45
4.52077E-01 1.00000E-45
4.56422E-01 1.00000E-45
4.60770E-01 1.00000E-45
4.65122E-01 1.00000E-45
4.69476E-01 1.00000E-45
4.73832E-01 1.00000E-45
4.78190E-01 1.00000E-45
4.82550E-01 1.00000E-45
4.86912E-01 1.00000E-45
4.91274E-01 1.00000E-45
4.95637E-01 1.00000E-45
5.00000E-01 1.00000E-45
5.04363E-01 1.00000E-45
5.08726E-01 1.00000E-45
5.13088E-01 1.00000E-45
5.17450E-01 1.00000E-45
5.21810E-01 1.00000E-45
5.26168E-01 1.00000E-45
5.30524E-01 1.00000E-45
5.34878E-01 1.00000E-45
5.39230E-01 1.00000E-45
5.43578E-01 1.00000E-45
5.47923E-01 1.00000E-45
5.52264E-01 1.00000E-45
5.56602E-01 1.00000E-45
5.60935E-01 1.00000E-45
5.65263E-01 1.00000E-45
5.69587E-01 1.00000E-45
5.73905E-01 1.00000E-45
5.78217E-01 1.00000E-45
5.82524E-01 1.00000E-45
5.86824E-01 1.00000E-45
5.91118E-01 1.00000E-45
5.95404E-01 1.00000E-45
5.99684E-01 1.00000E-45
6.03956E-01 1.00000E-45
6.08220E-01 1.00000E-45
6.12476E-01 1.00000E-45
6.16723E-01 1.00000E-45
6.20961E-01 1.00000E-45
6.25190E-01 1.00000E-45
6.29410E-01 1.00000E-45
6.33619E-01 1.00000E-45
6.37819E-01 1.00000E-45
6.42008E-01 1.00000E-45
6.46186E-01 1.00000E-45
6.50353E-01 1.00000E-45
6.54508E-01 1.00000E-45
6.58652E-01 1.00000E-45
6.62784E-01 1.00000E-45
6.66903E-01 1.00000E-45
6.71010E-01 1.00000E-45
6.75104E-01 1.00000E-45
6.79184E-01 1.00000E-45
6.83251E-01 1.00000E-45
6.87303E-01 1.00000E-45
6.91342E-01 1.00000E-45
6.95366E-01 1.00000E-45
6.99375E-01 1.00000E-45
7.03368E-01 1.00000E-45
7.07347E-01 1.00000E-45
7.11309E-01 1.00000E-45
7.15256E-01 1.00000E-45
7.19186E-01 1.00000E-45
7.23099E-01 1.00000E-45
7.26995E-01 1.00000E-45
7.30874E-01 1.00000E-45
7.34736E-01 1.00000E-45
7.38579E-01 1.00000E-45
7.42405E-01 1.00000E-45
7.46212E-01 1.00000E-45
7.50000E-01 1.00000E-45
7.53769E-01 1.00000E-45
7.57519E-01 1.00000E-45
7.61249E-01 1.00000E-45
7.64960E-01 1.00000E-45
7.68650E-01 1.00000E-45
7.72320E-01 1.00000E-45
7.75968E-01 1.00000E-45
7.79596E-01 1.00000E-45
7.83203E-01 1.00000E-45
7.86788E-01 1.00000E-45
7.90351E-01 1.00000E-45
7.93893E-01 1.00000E-45
7.97411E-01 1.00000E-45
8.00908E-01 1.00000E-45
8.04381E-01 1.00000E-45
8.07831E-01 1.00000E-45
8.11257E-01 1.00000E-45
8.14660E-01 1.00000E-45
8.18039E-01 1.00000E-45
8.21394E-01 1.00000E-45
8.24724E-01 1.00000E-45
8.28030E-01 1.00000E-45
8.31310E-01 1.00000E-45
8.34565E-01 1.00000E-45
8.37795E-01 1.00000E-45
8.40999E-01 1.00000E-45
8.44177E-01 1.00000E-45
8.47329E-01 1.00000E-45
8.50455E-01 1.00000E-45
8.53553E-01 1.00000E-45
8.56625E-01 1.00000E-45
8.59670E-01 1.00000E-45
8.62687E-01 1.00000E-45
8.65677E-01 1.00000E-45
8.68639E-01 1.00000E-45
8.71572E-01 1.00000E-45
8.74478E-01 1.00000E-45
8.77355E-01 1.00000E-45
8.80203E-01 1.00000E-45
8.83022E-01 1.00000E-45
8.85812E-01 1.00000E-45
8.88573E-01 1.00000E-45
8.91304E-01 1.00000E-45
8.94005E-01 1.00000E-45
8.96677E-01 1.00000E-45
8.99318E-01 1.00000E-45
9.01928E-01 1.00000E-45
9.04508E-01 1.00000E-45
9.07058E-01 1.00000E-45
9.09576E-01 1.00000E-45
9.12063E-01 1.00000E-45
9.14519E-01 1.00000E-45
9.16943E-01 1.00000E-45
9.19335E-01 1.00000E-45
9.21696E-01 1.00000E-45
9.24024E-01 1.00000E-45
9.26320E-01 1.00000E-45
9.28584E-01 1.00000E-45
9.30815E-01 1.00000E-45
9.33013E-01 1.00000E-45
9.35178E-01 1.00000E-45
9.37310E-01 1.00000E-45
9.39409E-01 1.00000E-45
9.41474E-01 1.00000E-45
9.43505E-01 1.00000E-45
9.45503E-01 1.00000E-45
9.47467E-01 1.00000E-45
9.49397E-01 1.00000E-45
9.51293E-01 1.00000E-45
9.53154E-01 1.00000E-45
9.54981E-01 1.00000E-45
9.56773E-01 1.00000E-45
9.58530E-01 1.00000E-45
9.60252E-01 1.00000E-45
9.61940E-01 1.00000E-45
9.63592E-01 1.00000E-45
9.65209E-01 1.00000E-45
9.66790E-01 1.00000E-45
9.68336E-01 1.00000E-45
9.69846E-01 1.00000E-45
9.71321E-01 1.00000E-45
9.72759E-01 1.00000E-45
9.74162E-01 1.00000E-45
9.75528E-01 1.00000E-45
9.76858E-01 1.00000E-45
9.78152E-01 1.00000E-45
9.79410E-01 1.00000E-45
9.80631E-01 1.00000E-45
9.81815E-01 1.00000E-45
9.82963E-01 1.00000E-45
9.84074E-01 1.00000E-45
9.85148E-01 1.00000E-45
9.86185E-01 1.00000E-45
9.87185E-01 1.00000E-45
9.88148E-01 1.00000E-45
9.89074E-01 1.00000E-45
9.89962E-01 1.00000E-45
9.90814E-01 1.00000E-45
9.91627E-01 1.00000E-45
9.92404E-01 1.00000E-45
9.93143E-01 1.00000E-45
9.93844E-01 1.00000E-45
9.94508E-01 1.00000E-45
9.95134E-01 1.00000E-45
9.95722E-01 1.00000E-45
9.96273E-01 1.00000E-45
9.96786E-01 1.00000E-45
9.97261E-01 1.00000E-45
9.97698E-01 1.00000E-45
9.98097E-01 1.00000E-45
9.98459E-01 1.00000E-45
9.98782E-01 1.00000E-45
9.99067E-01 1.00000E-45
9.99315E-01 1.00000E-45
9.99524E-01 1.00000E-45
9.99695E-01 1.00000E-45
9.99829E-01 1.00000E-45
9.99924E-01 1.00000E-45
9.99981E-01 1.00000E-45
1.00000E+00 1.00000E-45
