 #
 # Subroutine ELSEPA. Elastic scattering of electrons and positrons
 #                    by neutral atoms and positive ions
 #
 # Projectile: positron
 # Kinetic energy = 2.00000E+08 eV = 7.34987E+06 a.u.
 #
 # WARNING: High-energy factorization with free-atom DF screening.
 #          Absorption, polarization and exchange corrections are
 #          switched off.
 #          Phase shifts are calculated for the bare nucleus.
 #          Scattering amplitudes are not evaluated.
 #
 # Element: Co,  Z =  27,  atomic weight = 5.89332E+01 g/mol
 #
 # Nuclear model: Fermi distribution
 #                Average radius = 4.16393E-13 cm
 #                Skin thickness = 5.46000E-14 cm
 #
 # Number of electrons = 27
 #
 # Total elastic cross section = 1.96568E-18 cm**2 = 7.01958E-02 a0**2
 # 1st transport cross section = 3.72067E-26 cm**2 = 1.32868E-09 a0**2
 # 2nd transport cross section = 1.11282E-25 cm**2 = 3.97395E-09 a0**2
 #
 #
 # Differential cross section:                       MU=(1-COS(THETA))/2
 #
 #  THETA        MU          DCS          DCS        Sherman      error
 #  (deg)                 (cm**2/sr)   (a0**2/sr)    function
 #----------------------------------------------------------------------
0.00000E+00 7.15084E-10
7.61557E-13 7.07134E-10
1.18994E-12 7.02728E-10
1.71346E-12 6.97406E-10
2.33225E-12 6.91200E-10
3.04617E-12 6.84152E-10
3.85530E-12 6.76305E-10
4.75964E-12 6.67709E-10
5.75917E-12 6.58411E-10
6.85391E-12 6.48421E-10
8.04379E-12 6.37908E-10
9.32893E-12 6.26874E-10
1.07092E-11 6.15305E-10
1.21847E-11 6.03411E-10
1.37554E-11 5.91109E-10
1.54213E-11 5.78502E-10
1.71823E-11 5.65756E-10
1.90386E-11 5.52689E-10
2.09900E-11 5.39552E-10
2.30367E-11 5.26406E-10
2.51785E-11 5.13068E-10
2.74156E-11 4.99844E-10
2.97478E-11 4.86665E-10
3.21752E-11 4.73493E-10
3.46979E-11 4.60543E-10
3.73157E-11 4.47665E-10
4.00286E-11 4.34961E-10
4.28368E-11 4.22554E-10
4.57402E-11 4.10228E-10
4.87388E-11 3.98206E-10
5.18325E-11 3.86487E-10
5.50215E-11 3.74922E-10
5.83057E-11 3.63717E-10
6.16850E-11 3.52783E-10
6.51595E-11 3.42096E-10
6.87293E-11 3.31774E-10
7.23943E-11 3.21689E-10
7.61544E-11 3.11911E-10
1.18991E-10 2.29985E-10
1.71347E-10 1.72416E-10
2.33223E-10 1.32145E-10
3.04617E-10 1.03475E-10
3.85531E-10 8.24822E-11
4.75965E-10 6.66662E-11
5.75917E-10 5.44181E-11
6.85389E-10 4.42722E-11
8.04380E-10 3.68364E-11
9.32891E-10 3.08954E-11
1.07092E-09 2.57158E-11
1.21847E-09 2.17545E-11
1.37554E-09 1.83730E-11
1.54213E-09 1.55392E-11
1.71823E-09 1.33009E-11
1.90386E-09 1.13225E-11
2.09900E-09 9.70428E-12
2.30367E-09 8.38163E-12
2.51785E-09 7.21695E-12
2.74156E-09 6.26122E-12
2.97478E-09 5.45436E-12
3.21752E-09 4.75844E-12
3.46978E-09 4.17612E-12
3.73156E-09 3.67465E-12
4.00286E-09 3.24453E-12
4.28368E-09 2.87861E-12
4.57402E-09 2.55942E-12
4.87388E-09 2.28465E-12
5.18326E-09 2.04704E-12
5.50215E-09 1.83869E-12
5.83057E-09 1.65742E-12
6.16850E-09 1.49847E-12
6.51596E-09 1.35833E-12
6.87293E-09 1.23504E-12
7.23942E-09 1.12563E-12
7.61544E-09 1.02849E-12
1.18991E-08 4.66899E-13
1.71347E-08 2.44640E-13
2.33223E-08 1.40156E-13
3.04617E-08 8.55248E-14
3.85531E-08 5.48135E-14
4.75965E-08 3.66001E-14
5.75917E-08 2.53060E-14
6.85389E-08 1.80345E-14
8.04380E-08 1.31924E-14
9.32891E-08 9.87261E-15
1.07092E-07 7.53662E-15
1.21847E-07 5.85431E-15
1.37554E-07 4.61778E-15
1.54213E-07 3.69223E-15
1.71823E-07 2.98810E-15
1.90386E-07 2.44457E-15
2.09900E-07 2.01951E-15
2.30367E-07 1.68311E-15
2.51785E-07 1.41405E-15
2.74156E-07 1.19668E-15
2.97478E-07 1.01953E-15
3.21752E-07 8.74000E-16
3.46978E-07 7.53527E-16
3.73156E-07 6.53107E-16
4.00286E-07 5.68859E-16
4.28368E-07 4.97756E-16
4.57402E-07 4.37410E-16
4.87388E-07 3.85926E-16
5.18325E-07 3.41787E-16
5.50215E-07 3.03773E-16
5.83057E-07 2.70890E-16
6.16850E-07 2.42328E-16
6.51596E-07 2.17427E-16
6.87293E-07 1.95639E-16
7.23942E-07 1.76508E-16
7.61543E-07 1.59655E-16
1.18991E-06 6.58026E-17
1.71347E-06 3.18305E-17
2.33223E-06 1.72090E-17
3.04617E-06 1.00966E-17
3.85531E-06 6.30649E-18
4.75964E-06 4.13891E-18
5.75916E-06 2.82740E-18
6.85388E-06 1.99650E-18
8.04378E-06 1.44956E-18
9.32888E-06 1.07769E-18
1.07092E-05 8.17762E-19
1.21846E-05 6.31670E-19
1.37553E-05 4.95618E-19
1.54212E-05 3.94295E-19
1.71822E-05 3.17586E-19
1.90385E-05 2.58632E-19
2.09899E-05 2.12780E-19
2.30365E-05 1.76648E-19
2.51783E-05 1.47861E-19
2.74153E-05 1.24700E-19
2.97475E-05 1.05897E-19
3.21749E-05 9.05068E-20
3.46974E-05 7.78141E-20
3.73152E-05 6.72717E-20
4.00281E-05 5.84567E-20
4.28362E-05 5.10397E-20
4.57395E-05 4.47623E-20
4.87380E-05 3.94203E-20
5.18317E-05 3.48511E-20
5.50205E-05 3.09245E-20
5.83045E-05 2.75352E-20
6.16838E-05 2.45977E-20
6.51582E-05 2.20417E-20
6.87277E-05 1.98093E-20
7.23925E-05 1.78526E-20
7.61524E-05 1.61264E-20
9.21439E-05 1.10083E-20
1.09658E-04 7.76786E-21
1.28695E-04 5.63629E-21
1.49255E-04 4.18764E-21
1.71338E-04 3.17566E-21
1.94942E-04 2.45143E-21
2.20070E-04 1.92218E-21
2.46720E-04 1.52822E-21
2.74892E-04 1.23007E-21
3.04586E-04 1.00112E-21
3.35803E-04 8.22958E-22
3.68542E-04 6.82660E-22
4.02802E-04 5.70970E-22
4.38585E-04 4.81169E-22
4.75889E-04 4.08311E-22
5.14715E-04 3.48701E-22
5.55063E-04 2.99556E-22
5.96931E-04 2.58747E-22
6.40321E-04 2.24636E-22
6.85233E-04 1.95947E-22
7.31665E-04 1.71679E-22
7.79618E-04 1.51041E-22
8.29092E-04 1.33401E-22
8.80086E-04 1.18251E-22
9.32601E-04 1.05183E-22
9.86636E-04 9.38623E-23
1.04219E-03 8.40170E-23
1.09927E-03 7.54225E-23
1.15786E-03 6.78933E-23
1.21797E-03 6.12751E-23
1.27961E-03 5.54390E-23
1.34276E-03 5.02769E-23
1.40743E-03 4.56978E-23
1.47362E-03 4.16246E-23
1.54133E-03 3.79919E-23
1.61056E-03 3.47438E-23
1.68131E-03 3.18327E-23
1.75357E-03 2.92176E-23
1.82735E-03 2.68633E-23
1.90265E-03 2.47391E-23
1.97947E-03 2.28188E-23
2.05780E-03 2.10794E-23
2.13765E-03 1.95008E-23
2.21902E-03 1.80657E-23
2.30190E-03 1.67587E-23
2.38630E-03 1.55665E-23
2.47222E-03 1.44771E-23
2.55965E-03 1.34801E-23
2.64859E-03 1.25664E-23
2.73905E-03 1.17278E-23
2.83103E-03 1.09570E-23
2.92452E-03 1.02476E-23
3.01952E-03 9.59389E-24
3.11604E-03 8.99065E-24
3.21407E-03 8.43335E-24
3.31362E-03 7.91786E-24
3.41468E-03 7.44051E-24
3.51725E-03 6.99798E-24
3.62133E-03 6.58728E-24
3.72692E-03 6.20572E-24
3.83403E-03 5.85088E-24
3.94265E-03 5.52055E-24
4.05278E-03 5.21275E-24
4.16442E-03 4.92567E-24
4.27757E-03 4.65767E-24
4.39223E-03 4.40727E-24
4.50840E-03 4.17310E-24
4.62608E-03 3.95393E-24
4.74527E-03 3.74863E-24
4.86597E-03 3.55617E-24
4.98817E-03 3.37560E-24
5.11188E-03 3.20607E-24
5.23711E-03 3.04678E-24
5.36383E-03 2.89701E-24
5.49207E-03 2.75608E-24
5.62181E-03 2.62339E-24
5.75306E-03 2.49837E-24
5.88581E-03 2.38050E-24
6.02007E-03 2.26929E-24
6.15583E-03 2.16432E-24
6.29310E-03 2.06516E-24
6.43187E-03 1.97144E-24
6.57214E-03 1.88281E-24
6.71392E-03 1.79895E-24
6.85720E-03 1.71955E-24
7.00198E-03 1.64434E-24
7.14827E-03 1.57306E-24
7.29605E-03 1.50547E-24
7.44534E-03 1.44134E-24
7.59612E-03 1.38047E-24
7.97965E-03 1.24129E-24
8.37255E-03 1.11862E-24
8.77480E-03 1.01017E-24
9.18641E-03 9.14060E-25
9.60736E-03 8.28657E-25
1.00376E-02 7.52587E-25
1.04773E-02 6.84674E-25
1.09262E-02 6.23908E-25
1.13844E-02 5.69424E-25
1.18520E-02 5.20473E-25
1.23288E-02 4.76408E-25
1.28150E-02 4.36668E-25
1.33104E-02 4.00765E-25
1.38150E-02 3.68274E-25
1.43290E-02 3.38821E-25
1.48521E-02 3.12082E-25
1.53845E-02 2.87768E-25
1.59262E-02 2.65629E-25
1.64770E-02 2.45442E-25
1.70371E-02 2.27009E-25
1.76063E-02 2.10157E-25
1.81848E-02 1.94731E-25
1.87724E-02 1.80593E-25
1.93692E-02 1.67620E-25
1.99751E-02 1.55704E-25
2.05901E-02 1.44746E-25
2.12143E-02 1.34659E-25
2.18476E-02 1.25364E-25
2.24900E-02 1.16791E-25
2.31415E-02 1.08876E-25
2.38021E-02 1.01563E-25
2.44717E-02 9.47988E-26
2.51504E-02 8.85377E-26
2.58382E-02 8.27373E-26
2.65349E-02 7.73596E-26
2.72407E-02 7.23698E-26
2.79555E-02 6.77367E-26
2.86793E-02 6.34314E-26
2.94120E-02 5.94282E-26
3.01537E-02 5.57032E-26
3.09043E-02 5.22350E-26
3.16639E-02 4.90036E-26
3.24324E-02 4.59912E-26
3.32098E-02 4.31812E-26
3.39961E-02 4.05584E-26
3.47912E-02 3.81091E-26
3.55952E-02 3.58206E-26
3.64081E-02 3.36811E-26
3.72297E-02 3.16800E-26
3.80602E-02 2.98073E-26
3.88995E-02 2.80540E-26
3.97476E-02 2.64118E-26
4.06044E-02 2.48728E-26
4.14700E-02 2.34300E-26
4.23443E-02 2.20768E-26
4.32273E-02 2.08071E-26
4.41190E-02 1.96153E-26
4.50194E-02 1.84962E-26
4.59284E-02 1.74449E-26
4.68461E-02 1.64570E-26
4.87074E-02 1.46551E-26
5.06030E-02 1.30607E-26
5.25328E-02 1.16481E-26
5.44967E-02 1.03952E-26
5.64946E-02 9.28270E-27
5.85262E-02 8.29379E-27
6.05914E-02 7.41394E-27
6.26901E-02 6.63040E-27
6.48222E-02 5.93206E-27
6.69873E-02 5.30917E-27
6.91854E-02 4.75318E-27
7.14163E-02 4.25656E-27
7.36799E-02 3.81272E-27
7.59760E-02 3.41580E-27
7.83043E-02 3.06068E-27
8.06647E-02 2.74280E-27
8.30571E-02 2.45813E-27
8.54812E-02 2.20311E-27
8.79369E-02 1.97457E-27
9.04240E-02 1.76970E-27
9.29422E-02 1.58599E-27
9.54915E-02 1.42124E-27
9.80716E-02 1.27345E-27
1.00682E-01 1.14085E-27
1.03323E-01 1.02188E-27
1.05995E-01 9.15123E-28
1.08696E-01 8.19320E-28
1.11427E-01 7.33349E-28
1.14188E-01 6.56201E-28
1.16978E-01 5.86974E-28
1.19797E-01 5.24862E-28
1.22645E-01 4.69140E-28
1.25522E-01 4.19157E-28
1.28428E-01 3.74331E-28
1.31361E-01 3.34138E-28
1.34323E-01 2.98109E-28
1.37313E-01 2.65822E-28
1.40330E-01 2.36896E-28
1.43375E-01 2.10990E-28
1.46447E-01 1.87799E-28
1.49545E-01 1.67045E-28
1.52671E-01 1.48482E-28
1.55823E-01 1.31886E-28
1.59001E-01 1.17055E-28
1.62205E-01 1.03810E-28
1.65435E-01 9.19881E-29
1.68690E-01 8.14424E-29
1.71970E-01 7.20415E-29
1.75276E-01 6.36672E-29
1.78606E-01 5.62127E-29
1.81961E-01 4.95822E-29
1.85340E-01 4.36896E-29
1.88743E-01 3.84573E-29
1.92169E-01 3.38156E-29
1.95619E-01 2.97019E-29
1.99092E-01 2.60597E-29
2.02589E-01 2.28386E-29
2.06107E-01 1.99931E-29
2.09649E-01 1.74825E-29
2.13212E-01 1.52700E-29
2.16797E-01 1.33230E-29
2.20404E-01 1.16120E-29
2.24032E-01 1.01106E-29
2.27680E-01 8.79517E-30
2.31350E-01 7.64463E-30
2.35040E-01 6.64006E-30
2.38751E-01 5.76456E-30
2.42481E-01 5.00305E-30
2.46231E-01 4.34207E-30
2.50000E-01 3.76959E-30
2.53788E-01 3.27493E-30
2.57595E-01 2.84857E-30
2.61421E-01 2.48204E-30
2.65264E-01 2.16782E-30
2.69126E-01 1.89924E-30
2.73005E-01 1.67040E-30
2.76901E-01 1.47606E-30
2.80814E-01 1.31161E-30
2.84744E-01 1.17296E-30
2.88691E-01 1.05653E-30
2.92653E-01 9.59164E-31
2.96632E-01 8.78082E-31
3.00625E-01 8.10862E-31
3.04634E-01 7.55380E-31
3.08658E-01 7.09788E-31
3.12697E-01 6.72476E-31
3.16749E-01 6.42050E-31
3.20816E-01 6.17304E-31
3.24896E-01 5.97198E-31
3.28990E-01 5.80842E-31
3.33097E-01 5.67472E-31
3.37216E-01 5.56442E-31
3.41348E-01 5.47203E-31
3.45492E-01 5.39294E-31
3.49647E-01 5.32332E-31
3.53814E-01 5.25997E-31
3.57992E-01 5.20030E-31
3.62181E-01 5.14221E-31
3.66381E-01 5.08401E-31
3.70590E-01 5.02439E-31
3.74810E-01 4.96238E-31
3.79039E-01 4.89723E-31
3.83277E-01 4.82845E-31
3.87524E-01 4.75573E-31
3.91780E-01 4.67891E-31
3.96044E-01 4.59798E-31
4.00316E-01 4.51301E-31
4.04596E-01 4.42417E-31
4.08882E-01 4.33170E-31
4.13176E-01 4.23587E-31
4.17476E-01 4.13701E-31
4.21783E-01 4.03547E-31
4.26095E-01 3.93160E-31
4.30413E-01 3.82579E-31
4.34737E-01 3.71840E-31
4.39065E-01 3.60981E-31
4.43398E-01 3.50038E-31
4.47736E-01 3.39045E-31
4.52077E-01 3.28037E-31
4.56422E-01 3.17045E-31
4.60770E-01 3.06099E-31
4.65122E-01 2.95226E-31
4.69476E-01 2.84454E-31
4.73832E-01 2.73805E-31
4.78190E-01 2.63302E-31
4.82550E-01 2.52964E-31
4.86912E-01 2.42809E-31
4.91274E-01 2.32851E-31
4.95637E-01 2.23106E-31
5.00000E-01 2.13585E-31
5.04363E-01 2.04298E-31
5.08726E-01 1.95254E-31
5.13088E-01 1.86460E-31
5.17450E-01 1.77920E-31
5.21810E-01 1.69639E-31
5.26168E-01 1.61621E-31
5.30524E-01 1.53866E-31
5.34878E-01 1.46376E-31
5.39230E-01 1.39149E-31
5.43578E-01 1.32185E-31
5.47923E-01 1.25482E-31
5.52264E-01 1.19036E-31
5.56602E-01 1.12845E-31
5.60935E-01 1.06904E-31
5.65263E-01 1.01209E-31
5.69587E-01 9.57552E-32
5.73905E-01 9.05364E-32
5.78217E-01 8.55475E-32
5.82524E-01 8.07825E-32
5.86824E-01 7.62352E-32
5.91118E-01 7.18994E-32
5.95404E-01 6.77685E-32
5.99684E-01 6.38361E-32
6.03956E-01 6.00956E-32
6.08220E-01 5.65403E-32
6.12476E-01 5.31635E-32
6.16723E-01 4.99588E-32
6.20961E-01 4.69195E-32
6.25190E-01 4.40391E-32
6.29410E-01 4.13113E-32
6.33619E-01 3.87297E-32
6.37819E-01 3.62882E-32
6.42008E-01 3.39808E-32
6.46186E-01 3.18015E-32
6.50353E-01 2.97446E-32
6.54508E-01 2.78044E-32
6.58652E-01 2.59755E-32
6.62784E-01 2.42527E-32
6.66903E-01 2.26308E-32
6.71010E-01 2.11048E-32
6.75104E-01 1.96700E-32
6.79184E-01 1.83219E-32
6.83251E-01 1.70558E-32
6.87303E-01 1.58676E-32
6.91342E-01 1.47532E-32
6.95366E-01 1.37086E-32
6.99375E-01 1.27301E-32
7.03368E-01 1.18140E-32
7.07347E-01 1.09570E-32
7.11309E-01 1.01556E-32
7.15256E-01 9.40677E-33
7.19186E-01 8.70748E-33
7.23099E-01 8.05484E-33
7.26995E-01 7.44615E-33
7.30874E-01 6.87880E-33
7.34736E-01 6.35033E-33
7.38579E-01 5.85839E-33
7.42405E-01 5.40075E-33
7.46212E-01 4.97531E-33
7.50000E-01 4.58007E-33
7.53769E-01 4.21313E-33
7.57519E-01 3.87270E-33
7.61249E-01 3.55710E-33
7.64960E-01 3.26471E-33
7.68650E-01 2.99403E-33
7.72320E-01 2.74362E-33
7.75968E-01 2.51215E-33
7.79596E-01 2.29835E-33
7.83203E-01 2.10102E-33
7.86788E-01 1.91905E-33
7.90351E-01 1.75137E-33
7.93893E-01 1.59699E-33
7.97411E-01 1.45498E-33
8.00908E-01 1.32446E-33
8.04381E-01 1.20462E-33
8.07831E-01 1.09468E-33
8.11257E-01 9.93922E-34
8.14660E-01 9.01672E-34
8.18039E-01 8.17296E-34
8.21394E-01 7.40205E-34
8.24724E-01 6.69850E-34
8.28030E-01 6.05711E-34
8.31310E-01 5.47310E-34
8.34565E-01 4.94193E-34
8.37795E-01 4.45949E-34
8.40999E-01 4.02184E-34
8.44177E-01 3.62539E-34
8.47329E-01 3.26677E-34
8.50455E-01 2.94285E-34
8.53553E-01 2.65070E-34
8.56625E-01 2.38764E-34
8.59670E-01 2.15118E-34
8.62687E-01 1.93900E-34
8.65677E-01 1.74893E-34
8.68639E-01 1.57902E-34
8.71572E-01 1.42741E-34
8.74478E-01 1.29245E-34
8.77355E-01 1.17254E-34
8.80203E-01 1.06625E-34
8.83022E-01 9.72277E-35
8.85812E-01 8.89392E-35
8.88573E-01 8.16473E-35
8.91304E-01 7.52477E-35
8.94005E-01 6.96504E-35
8.96677E-01 6.47664E-35
8.99318E-01 6.05194E-35
9.01928E-01 5.68350E-35
9.04508E-01 5.36491E-35
9.07058E-01 5.09018E-35
9.09576E-01 4.85398E-35
9.12063E-01 4.65128E-35
9.14519E-01 4.47777E-35
9.16943E-01 4.32934E-35
9.19335E-01 4.20240E-35
9.21696E-01 4.09372E-35
9.24024E-01 4.00034E-35
9.26320E-01 3.91971E-35
9.28584E-01 3.84944E-35
9.30815E-01 3.78753E-35
9.33013E-01 3.73212E-35
9.35178E-01 3.68163E-35
9.37310E-01 3.63463E-35
9.39409E-01 3.58992E-35
9.41474E-01 3.54642E-35
9.43505E-01 3.50324E-35
9.45503E-01 3.45958E-35
9.47467E-01 3.41483E-35
9.49397E-01 3.36843E-35
9.51293E-01 3.31996E-35
9.53154E-01 3.26909E-35
9.54981E-01 3.21555E-35
9.56773E-01 3.15914E-35
9.58530E-01 3.09975E-35
9.60252E-01 3.03732E-35
9.61940E-01 2.97185E-35
9.63592E-01 2.90336E-35
9.65209E-01 2.83196E-35
9.66790E-01 2.75770E-35
9.68336E-01 2.68076E-35
9.69846E-01 2.60131E-35
9.71321E-01 2.51953E-35
9.72759E-01 2.43565E-35
9.74162E-01 2.34985E-35
9.75528E-01 2.26239E-35
9.76858E-01 2.17356E-35
9.78152E-01 2.08356E-35
9.79410E-01 1.99265E-35
9.80631E-01 1.90108E-35
9.81815E-01 1.80921E-35
9.82963E-01 1.71720E-35
9.84074E-01 1.62537E-35
9.85148E-01 1.53396E-35
9.86185E-01 1.44322E-35
9.87185E-01 1.35348E-35
9.88148E-01 1.26487E-35
9.89074E-01 1.17773E-35
9.89962E-01 1.09218E-35
9.90814E-01 1.00860E-35
9.91627E-01 9.27154E-36
9.92404E-01 8.48025E-36
9.93143E-01 7.71416E-36
9.93844E-01 6.97575E-36
9.94508E-01 6.26616E-36
9.95134E-01 5.58788E-36
9.95722E-01 4.94224E-36
9.96273E-01 4.33053E-36
9.96786E-01 3.75492E-36
9.97261E-01 3.21607E-36
9.97698E-01 2.71580E-36
9.98097E-01 2.25484E-36
9.98459E-01 1.83482E-36
9.98782E-01 1.45612E-36
9.99067E-01 1.11982E-36
9.99315E-01 8.27446E-37
9.99524E-01 5.78392E-37
9.99695E-01 3.74095E-37
9.99829E-01 2.14540E-37
9.99924E-01 1.00384E-37
9.99981E-01 3.19180E-38
1.00000E+00 8.98822E-39
