 #
 # Subroutine ELSEPA. Elastic scattering of electrons and positrons
 #                    by neutral atoms and positive ions
 #
 # Projectile: positron
 # Kinetic energy = 1.00000E+08 eV = 3.67493E+06 a.u.
 #
 # WARNING: High-energy factorization with free-atom DF screening.
 #          Absorption, polarization and exchange corrections are
 #          switched off.
 #          Phase shifts are calculated for the bare nucleus.
 #          Scattering amplitudes are not evaluated.
 #
 # Element: Co,  Z =  27,  atomic weight = 5.89332E+01 g/mol
 #
 # Nuclear model: Fermi distribution
 #                Average radius = 4.16393E-13 cm
 #                Skin thickness = 5.46000E-14 cm
 #
 # Number of electrons = 27
 #
 # Total elastic cross section = 1.96564E-18 cm**2 = 7.01943E-02 a0**2
 # 1st transport cross section = 1.45907E-25 cm**2 = 5.21044E-09 a0**2
 # 2nd transport cross section = 4.33107E-25 cm**2 = 1.54665E-08 a0**2
 #
 #
 # Differential cross section:                       MU=(1-COS(THETA))/2
 #
 #  THETA        MU          DCS          DCS        Sherman      error
 #  (deg)                 (cm**2/sr)   (a0**2/sr)    function
 #----------------------------------------------------------------------
0.00000E+00 1.79683E-10
7.61557E-13 1.79177E-10
1.18994E-12 1.78894E-10
1.71346E-12 1.78549E-10
2.33225E-12 1.78142E-10
3.04617E-12 1.77675E-10
3.85530E-12 1.77149E-10
4.75964E-12 1.76563E-10
5.75917E-12 1.75919E-10
6.85391E-12 1.75219E-10
8.04379E-12 1.74463E-10
9.32893E-12 1.73652E-10
1.07092E-11 1.72788E-10
1.21847E-11 1.71873E-10
1.37554E-11 1.70907E-10
1.54213E-11 1.69892E-10
1.71823E-11 1.68830E-10
1.90386E-11 1.67722E-10
2.09900E-11 1.66570E-10
2.30367E-11 1.65375E-10
2.51785E-11 1.64132E-10
2.74156E-11 1.62854E-10
2.97478E-11 1.61543E-10
3.21752E-11 1.60201E-10
3.46979E-11 1.58831E-10
3.73157E-11 1.57416E-10
4.00286E-11 1.55969E-10
4.28368E-11 1.54499E-10
4.57402E-11 1.53008E-10
4.87388E-11 1.51500E-10
5.18325E-11 1.49967E-10
5.50215E-11 1.48395E-10
5.83057E-11 1.46812E-10
6.16850E-11 1.45218E-10
6.51595E-11 1.43615E-10
6.87293E-11 1.42005E-10
7.23943E-11 1.40363E-10
7.61544E-11 1.38710E-10
1.18991E-10 1.22075E-10
1.71347E-10 1.05943E-10
2.33223E-10 9.11470E-11
3.04617E-10 7.81308E-11
3.85531E-10 6.69767E-11
4.75965E-10 5.75703E-11
5.75917E-10 4.97040E-11
6.85389E-10 4.31424E-11
8.04380E-10 3.76559E-11
9.32891E-10 3.30548E-11
1.07092E-09 2.91733E-11
1.21847E-09 2.58762E-11
1.37554E-09 2.30551E-11
1.54213E-09 2.06231E-11
1.71823E-09 1.85094E-11
1.90386E-09 1.66639E-11
2.09900E-09 1.50431E-11
2.30367E-09 1.35907E-11
2.51785E-09 1.22229E-11
2.74156E-09 1.10587E-11
2.97478E-09 1.00618E-11
3.21752E-09 9.20319E-12
3.46978E-09 8.45970E-12
3.73156E-09 7.71038E-12
4.00286E-09 7.01996E-12
4.28368E-09 6.41878E-12
4.57402E-09 5.89294E-12
4.87388E-09 5.43100E-12
5.18326E-09 5.00641E-12
5.50215E-09 4.58214E-12
5.83057E-09 4.20764E-12
6.16850E-09 3.87590E-12
6.51596E-09 3.58103E-12
6.87293E-09 3.31807E-12
7.23942E-09 3.05938E-12
7.61544E-09 2.82217E-12
1.18991E-08 1.35844E-12
1.71347E-08 7.16874E-13
2.33223E-08 4.12699E-13
3.04617E-08 2.56103E-13
3.85531E-08 1.68652E-13
4.75965E-08 1.16266E-13
5.75917E-08 8.30232E-14
6.85389E-08 6.09166E-14
8.04380E-08 4.56812E-14
9.32891E-08 3.48903E-14
1.07092E-07 2.70665E-14
1.21847E-07 2.12848E-14
1.37554E-07 1.69441E-14
1.54213E-07 1.36398E-14
1.71823E-07 1.10923E-14
1.90386E-07 9.10622E-15
2.09900E-07 7.54123E-15
2.30367E-07 6.29539E-15
2.51785E-07 5.29411E-15
2.74156E-07 4.48659E-15
2.97478E-07 3.82476E-15
3.21752E-07 3.28180E-15
3.46978E-07 2.83127E-15
3.73156E-07 2.45588E-15
4.00286E-07 2.14074E-15
4.28368E-07 1.87475E-15
4.57402E-07 1.64899E-15
4.87388E-07 1.45625E-15
5.18325E-07 1.29107E-15
5.50215E-07 1.14865E-15
5.83057E-07 1.02553E-15
6.16850E-07 9.18413E-16
6.51596E-07 8.25074E-16
6.87293E-07 7.43255E-16
7.23942E-07 6.71420E-16
7.61543E-07 6.08050E-16
1.18991E-06 2.53575E-16
1.71347E-06 1.23787E-16
2.33223E-06 6.73612E-17
3.04617E-06 3.96977E-17
3.85531E-06 2.48726E-17
4.75964E-06 1.63591E-17
5.75916E-06 1.11926E-17
6.85388E-06 7.91224E-18
8.04378E-06 5.74942E-18
9.32888E-06 4.27715E-18
1.07092E-05 3.24710E-18
1.21846E-05 2.50912E-18
1.37553E-05 1.96927E-18
1.54212E-05 1.56704E-18
1.71822E-05 1.26242E-18
1.90385E-05 1.02824E-18
2.09899E-05 8.46054E-19
2.30365E-05 7.02460E-19
2.51783E-05 5.88040E-19
2.74153E-05 4.95966E-19
2.97475E-05 4.21208E-19
3.21749E-05 3.60014E-19
3.46974E-05 3.09540E-19
3.73152E-05 2.67615E-19
4.00281E-05 2.32556E-19
4.28362E-05 2.03056E-19
4.57395E-05 1.78087E-19
4.87380E-05 1.56838E-19
5.18317E-05 1.38662E-19
5.50205E-05 1.23042E-19
5.83045E-05 1.09559E-19
6.16838E-05 9.78722E-20
6.51582E-05 8.77034E-20
6.87277E-05 7.88219E-20
7.23925E-05 7.10370E-20
7.61524E-05 6.41883E-20
9.21439E-05 4.38228E-20
1.09658E-04 3.09275E-20
1.28695E-04 2.24443E-20
1.49255E-04 1.66785E-20
1.71338E-04 1.26504E-20
1.94942E-04 9.76737E-21
2.20070E-04 7.66037E-21
2.46720E-04 6.09177E-21
2.74892E-04 4.90456E-21
3.04586E-04 3.99280E-21
3.35803E-04 3.28321E-21
3.68542E-04 2.72435E-21
4.02802E-04 2.27938E-21
4.38585E-04 1.92156E-21
4.75889E-04 1.63121E-21
5.14715E-04 1.39362E-21
5.55063E-04 1.19771E-21
5.96931E-04 1.03499E-21
6.40321E-04 8.98956E-22
6.85233E-04 7.84523E-22
7.31665E-04 6.87703E-22
7.79618E-04 6.05345E-22
8.29092E-04 5.34934E-22
8.80086E-04 4.74450E-22
9.32601E-04 4.22263E-22
9.86636E-04 3.77043E-22
1.04219E-03 3.37705E-22
1.09927E-03 3.03355E-22
1.15786E-03 2.73254E-22
1.21797E-03 2.46786E-22
1.27961E-03 2.23439E-22
1.34276E-03 2.02782E-22
1.40743E-03 1.84452E-22
1.47362E-03 1.68141E-22
1.54133E-03 1.53589E-22
1.61056E-03 1.40572E-22
1.68131E-03 1.28902E-22
1.75357E-03 1.18414E-22
1.82735E-03 1.08968E-22
1.90265E-03 1.00443E-22
1.97947E-03 9.27316E-23
2.05780E-03 8.57439E-23
2.13765E-03 7.93997E-23
2.21902E-03 7.36293E-23
2.30190E-03 6.83716E-23
2.38630E-03 6.35730E-23
2.47222E-03 5.91863E-23
2.55965E-03 5.51699E-23
2.64859E-03 5.14869E-23
2.73905E-03 4.81048E-23
2.83103E-03 4.49945E-23
2.92452E-03 4.21304E-23
3.01952E-03 3.94895E-23
3.11604E-03 3.70512E-23
3.21407E-03 3.47972E-23
3.31362E-03 3.27111E-23
3.41468E-03 3.07782E-23
3.51725E-03 2.89851E-23
3.62133E-03 2.73199E-23
3.72692E-03 2.57719E-23
3.83403E-03 2.43313E-23
3.94265E-03 2.29894E-23
4.05278E-03 2.17381E-23
4.16442E-03 2.05702E-23
4.27757E-03 1.94792E-23
4.39223E-03 1.84591E-23
4.50840E-03 1.75044E-23
4.62608E-03 1.66101E-23
4.74527E-03 1.57719E-23
4.86597E-03 1.49854E-23
4.98817E-03 1.42470E-23
5.11188E-03 1.35532E-23
5.23711E-03 1.29007E-23
5.36383E-03 1.22867E-23
5.49207E-03 1.17085E-23
5.62181E-03 1.11636E-23
5.75306E-03 1.06498E-23
5.88581E-03 1.01649E-23
6.02007E-03 9.70709E-24
6.15583E-03 9.27450E-24
6.29310E-03 8.86551E-24
6.43187E-03 8.47860E-24
6.57214E-03 8.11236E-24
6.71392E-03 7.76548E-24
6.85720E-03 7.43676E-24
7.00198E-03 7.12506E-24
7.14827E-03 6.82935E-24
7.29605E-03 6.54866E-24
7.44534E-03 6.28209E-24
7.59612E-03 6.02878E-24
7.97965E-03 5.44860E-24
8.37255E-03 4.93580E-24
8.77480E-03 4.48125E-24
9.18641E-03 4.07721E-24
9.60736E-03 3.71714E-24
1.00376E-02 3.39543E-24
1.04773E-02 3.10732E-24
1.09262E-02 2.84871E-24
1.13844E-02 2.61605E-24
1.18520E-02 2.40631E-24
1.23288E-02 2.21684E-24
1.28150E-02 2.04536E-24
1.33104E-02 1.88987E-24
1.38150E-02 1.74861E-24
1.43290E-02 1.62008E-24
1.48521E-02 1.50291E-24
1.53845E-02 1.39595E-24
1.59262E-02 1.29815E-24
1.64770E-02 1.20859E-24
1.70371E-02 1.12646E-24
1.76063E-02 1.05104E-24
1.81848E-02 9.81681E-25
1.87724E-02 9.17821E-25
1.93692E-02 8.58947E-25
1.99751E-02 8.04604E-25
2.05901E-02 7.54383E-25
2.12143E-02 7.07920E-25
2.18476E-02 6.64885E-25
2.24900E-02 6.24983E-25
2.31415E-02 5.87946E-25
2.38021E-02 5.53535E-25
2.44717E-02 5.21531E-25
2.51504E-02 4.91737E-25
2.58382E-02 4.63976E-25
2.65349E-02 4.38086E-25
2.72407E-02 4.13918E-25
2.79555E-02 3.91339E-25
2.86793E-02 3.70228E-25
2.94120E-02 3.50472E-25
3.01537E-02 3.31970E-25
3.09043E-02 3.14630E-25
3.16639E-02 2.98365E-25
3.24324E-02 2.83099E-25
3.32098E-02 2.68760E-25
3.39961E-02 2.55282E-25
3.47912E-02 2.42604E-25
3.55952E-02 2.30673E-25
3.64081E-02 2.19435E-25
3.72297E-02 2.08845E-25
3.80602E-02 1.98859E-25
3.88995E-02 1.89436E-25
3.97476E-02 1.80540E-25
4.06044E-02 1.72137E-25
4.14700E-02 1.64195E-25
4.23443E-02 1.56683E-25
4.32273E-02 1.49577E-25
4.41190E-02 1.42849E-25
4.50194E-02 1.36476E-25
4.59284E-02 1.30437E-25
4.68461E-02 1.24712E-25
4.87074E-02 1.14126E-25
5.06030E-02 1.04585E-25
5.25328E-02 9.59679E-26
5.44967E-02 8.81733E-26
5.64946E-02 8.11108E-26
5.85262E-02 7.47015E-26
6.05914E-02 6.88762E-26
6.26901E-02 6.35738E-26
6.48222E-02 5.87407E-26
6.69873E-02 5.43293E-26
6.91854E-02 5.02976E-26
7.14163E-02 4.66083E-26
7.36799E-02 4.32282E-26
7.59760E-02 4.01277E-26
7.83043E-02 3.72805E-26
8.06647E-02 3.46630E-26
8.30571E-02 3.22543E-26
8.54812E-02 3.00352E-26
8.79369E-02 2.79890E-26
9.04240E-02 2.61003E-26
9.29422E-02 2.43555E-26
9.54915E-02 2.27420E-26
9.80716E-02 2.12488E-26
1.00682E-01 1.98656E-26
1.03323E-01 1.85835E-26
1.05995E-01 1.73939E-26
1.08696E-01 1.62895E-26
1.11427E-01 1.52634E-26
1.14188E-01 1.43093E-26
1.16978E-01 1.34215E-26
1.19797E-01 1.25949E-26
1.22645E-01 1.18248E-26
1.25522E-01 1.11069E-26
1.28428E-01 1.04372E-26
1.31361E-01 9.81202E-27
1.34323E-01 9.22816E-27
1.37313E-01 8.68256E-27
1.40330E-01 8.17242E-27
1.43375E-01 7.69518E-27
1.46447E-01 7.24850E-27
1.49545E-01 6.83020E-27
1.52671E-01 6.43829E-27
1.55823E-01 6.07093E-27
1.59001E-01 5.72641E-27
1.62205E-01 5.40318E-27
1.65435E-01 5.09979E-27
1.68690E-01 4.81489E-27
1.71970E-01 4.54725E-27
1.75276E-01 4.29572E-27
1.78606E-01 4.05923E-27
1.81961E-01 3.83681E-27
1.85340E-01 3.62753E-27
1.88743E-01 3.43055E-27
1.92169E-01 3.24508E-27
1.95619E-01 3.07039E-27
1.99092E-01 2.90579E-27
2.02589E-01 2.75066E-27
2.06107E-01 2.60439E-27
2.09649E-01 2.46644E-27
2.13212E-01 2.33630E-27
2.16797E-01 2.21349E-27
2.20404E-01 2.09756E-27
2.24032E-01 1.98809E-27
2.27680E-01 1.88471E-27
2.31350E-01 1.78704E-27
2.35040E-01 1.69474E-27
2.38751E-01 1.60749E-27
2.42481E-01 1.52501E-27
2.46231E-01 1.44700E-27
2.50000E-01 1.37322E-27
2.53788E-01 1.30340E-27
2.57595E-01 1.23734E-27
2.61421E-01 1.17480E-27
2.65264E-01 1.11560E-27
2.69126E-01 1.05953E-27
2.73005E-01 1.00643E-27
2.76901E-01 9.56126E-28
2.80814E-01 9.08460E-28
2.84744E-01 8.63287E-28
2.88691E-01 8.20469E-28
2.92653E-01 7.79875E-28
2.96632E-01 7.41382E-28
3.00625E-01 7.04877E-28
3.04634E-01 6.70249E-28
3.08658E-01 6.37398E-28
3.12697E-01 6.06227E-28
3.16749E-01 5.76645E-28
3.20816E-01 5.48568E-28
3.24896E-01 5.21914E-28
3.28990E-01 4.96607E-28
3.33097E-01 4.72577E-28
3.37216E-01 4.49755E-28
3.41348E-01 4.28078E-28
3.45492E-01 4.07485E-28
3.49647E-01 3.87920E-28
3.53814E-01 3.69329E-28
3.57992E-01 3.51661E-28
3.62181E-01 3.34868E-28
3.66381E-01 3.18905E-28
3.70590E-01 3.03730E-28
3.74810E-01 2.89301E-28
3.79039E-01 2.75581E-28
3.83277E-01 2.62533E-28
3.87524E-01 2.50122E-28
3.91780E-01 2.38317E-28
3.96044E-01 2.27087E-28
4.00316E-01 2.16402E-28
4.04596E-01 2.06236E-28
4.08882E-01 1.96561E-28
4.13176E-01 1.87354E-28
4.17476E-01 1.78591E-28
4.21783E-01 1.70249E-28
4.26095E-01 1.62309E-28
4.30413E-01 1.54749E-28
4.34737E-01 1.47550E-28
4.39065E-01 1.40696E-28
4.43398E-01 1.34169E-28
4.47736E-01 1.27953E-28
4.52077E-01 1.22032E-28
4.56422E-01 1.16393E-28
4.60770E-01 1.11020E-28
4.65122E-01 1.05902E-28
4.69476E-01 1.01026E-28
4.73832E-01 9.63802E-29
4.78190E-01 9.19530E-29
4.82550E-01 8.77341E-29
4.86912E-01 8.37134E-29
4.91274E-01 7.98813E-29
4.95637E-01 7.62287E-29
5.00000E-01 7.27470E-29
5.04363E-01 6.94280E-29
5.08726E-01 6.62638E-29
5.13088E-01 6.32470E-29
5.17450E-01 6.03706E-29
5.21810E-01 5.76280E-29
5.26168E-01 5.50126E-29
5.30524E-01 5.25184E-29
5.34878E-01 5.01398E-29
5.39230E-01 4.78711E-29
5.43578E-01 4.57072E-29
5.47923E-01 4.36432E-29
5.52264E-01 4.16742E-29
5.56602E-01 3.97959E-29
5.60935E-01 3.80039E-29
5.65263E-01 3.62943E-29
5.69587E-01 3.46630E-29
5.73905E-01 3.31065E-29
5.78217E-01 3.16212E-29
5.82524E-01 3.02039E-29
5.86824E-01 2.88512E-29
5.91118E-01 2.75603E-29
5.95404E-01 2.63282E-29
5.99684E-01 2.51522E-29
6.03956E-01 2.40297E-29
6.08220E-01 2.29582E-29
6.12476E-01 2.19353E-29
6.16723E-01 2.09588E-29
6.20961E-01 2.00265E-29
6.25190E-01 1.91364E-29
6.29410E-01 1.82865E-29
6.33619E-01 1.74750E-29
6.37819E-01 1.67001E-29
6.42008E-01 1.59602E-29
6.46186E-01 1.52535E-29
6.50353E-01 1.45787E-29
6.54508E-01 1.39341E-29
6.58652E-01 1.33186E-29
6.62784E-01 1.27306E-29
6.66903E-01 1.21690E-29
6.71010E-01 1.16325E-29
6.75104E-01 1.11200E-29
6.79184E-01 1.06304E-29
6.83251E-01 1.01627E-29
6.87303E-01 9.71583E-30
6.91342E-01 9.28889E-30
6.95366E-01 8.88095E-30
6.99375E-01 8.49117E-30
7.03368E-01 8.11870E-30
7.07347E-01 7.76278E-30
7.11309E-01 7.42264E-30
7.15256E-01 7.09758E-30
7.19186E-01 6.78692E-30
7.23099E-01 6.49000E-30
7.26995E-01 6.20621E-30
7.30874E-01 5.93495E-30
7.34736E-01 5.67567E-30
7.38579E-01 5.42781E-30
7.42405E-01 5.19087E-30
7.46212E-01 4.96437E-30
7.50000E-01 4.74782E-30
7.53769E-01 4.54078E-30
7.57519E-01 4.34284E-30
7.61249E-01 4.15357E-30
7.64960E-01 3.97260E-30
7.68650E-01 3.79955E-30
7.72320E-01 3.63407E-30
7.75968E-01 3.47583E-30
7.79596E-01 3.32449E-30
7.83203E-01 3.17976E-30
7.86788E-01 3.04133E-30
7.90351E-01 2.90894E-30
7.93893E-01 2.78230E-30
7.97411E-01 2.66118E-30
8.00908E-01 2.54531E-30
8.04381E-01 2.43447E-30
8.07831E-01 2.32845E-30
8.11257E-01 2.22701E-30
8.14660E-01 2.12997E-30
8.18039E-01 2.03712E-30
8.21394E-01 1.94829E-30
8.24724E-01 1.86329E-30
8.28030E-01 1.78196E-30
8.31310E-01 1.70414E-30
8.34565E-01 1.62967E-30
8.37795E-01 1.55841E-30
8.40999E-01 1.49021E-30
8.44177E-01 1.42494E-30
8.47329E-01 1.36247E-30
8.50455E-01 1.30269E-30
8.53553E-01 1.24546E-30
8.56625E-01 1.19069E-30
8.59670E-01 1.13826E-30
8.62687E-01 1.08808E-30
8.65677E-01 1.04003E-30
8.68639E-01 9.94044E-31
8.71572E-01 9.50017E-31
8.74478E-01 9.07866E-31
8.77355E-01 8.67512E-31
8.80203E-01 8.28876E-31
8.83022E-01 7.91883E-31
8.85812E-01 7.56463E-31
8.88573E-01 7.22549E-31
8.91304E-01 6.90075E-31
8.94005E-01 6.58978E-31
8.96677E-01 6.29201E-31
8.99318E-01 6.00686E-31
9.01928E-01 5.73379E-31
9.04508E-01 5.47228E-31
9.07058E-01 5.22185E-31
9.09576E-01 4.98200E-31
9.12063E-01 4.75230E-31
9.14519E-01 4.53231E-31
9.16943E-01 4.32162E-31
9.19335E-01 4.11983E-31
9.21696E-01 3.92656E-31
9.24024E-01 3.74146E-31
9.26320E-01 3.56417E-31
9.28584E-01 3.39437E-31
9.30815E-01 3.23174E-31
9.33013E-01 3.07598E-31
9.35178E-01 2.92681E-31
9.37310E-01 2.78394E-31
9.39409E-01 2.64711E-31
9.41474E-01 2.51607E-31
9.43505E-01 2.39057E-31
9.45503E-01 2.27040E-31
9.47467E-01 2.15532E-31
9.49397E-01 2.04513E-31
9.51293E-01 1.93962E-31
9.53154E-01 1.83861E-31
9.54981E-01 1.74190E-31
9.56773E-01 1.64933E-31
9.58530E-01 1.56073E-31
9.60252E-01 1.47592E-31
9.61940E-01 1.39477E-31
9.63592E-01 1.31713E-31
9.65209E-01 1.24284E-31
9.66790E-01 1.17179E-31
9.68336E-01 1.10384E-31
9.69846E-01 1.03887E-31
9.71321E-01 9.76767E-32
9.72759E-01 9.17416E-32
9.74162E-01 8.60711E-32
9.75528E-01 8.06552E-32
9.76858E-01 7.54844E-32
9.78152E-01 7.05492E-32
9.79410E-01 6.58411E-32
9.80631E-01 6.13514E-32
9.81815E-01 5.70726E-32
9.82963E-01 5.29968E-32
9.84074E-01 4.91169E-32
9.85148E-01 4.54261E-32
9.86185E-01 4.19177E-32
9.87185E-01 3.85859E-32
9.88148E-01 3.54244E-32
9.89074E-01 3.24281E-32
9.89962E-01 2.95912E-32
9.90814E-01 2.69092E-32
9.91627E-01 2.43773E-32
9.92404E-01 2.19909E-32
9.93143E-01 1.97460E-32
9.93844E-01 1.76386E-32
9.94508E-01 1.56650E-32
9.95134E-01 1.38219E-32
9.95722E-01 1.21060E-32
9.96273E-01 1.05143E-32
9.96786E-01 9.04409E-33
9.97261E-01 7.69272E-33
9.97698E-01 6.45794E-33
9.98097E-01 5.33751E-33
9.98459E-01 4.32962E-33
9.98782E-01 3.43240E-33
9.99067E-01 2.64434E-33
9.99315E-01 1.96420E-33
9.99524E-01 1.39058E-33
9.99695E-01 9.22651E-34
9.99829E-01 5.59502E-34
9.99924E-01 3.00573E-34
9.99981E-01 1.45422E-34
1.00000E+00 9.37138E-35
