 #
 # Subroutine ELSEPA. Elastic scattering of electrons and positrons
 #                    by neutral atoms and positive ions
 #
 # Projectile: positron
 # Kinetic energy = 9.00000E+08 eV = 3.30744E+07 a.u.
 #
 # WARNING: High-energy factorization with free-atom DF screening.
 #          Absorption, polarization and exchange corrections are
 #          switched off.
 #          Phase shifts are calculated for the bare nucleus.
 #          Scattering amplitudes are not evaluated.
 #
 # Element: Co,  Z =  27,  atomic weight = 5.89332E+01 g/mol
 #
 # Nuclear model: Fermi distribution
 #                Average radius = 4.16393E-13 cm
 #                Skin thickness = 5.46000E-14 cm
 #
 # Number of electrons = 27
 #
 # Total elastic cross section = 1.95333E-18 cm**2 = 6.97548E-02 a0**2
 # 1st transport cross section = 1.85845E-27 cm**2 = 6.63666E-11 a0**2
 # 2nd transport cross section = 5.57451E-27 cm**2 = 1.99069E-10 a0**2
 #
 #
 # Differential cross section:                       MU=(1-COS(THETA))/2
 #
 #  THETA        MU          DCS          DCS        Sherman      error
 #  (deg)                 (cm**2/sr)   (a0**2/sr)    function
 #----------------------------------------------------------------------
0.00000E+00 1.44231E-08
7.61557E-13 1.16774E-08
1.18994E-12 1.04947E-08
1.71346E-12 9.30295E-09
2.33225E-12 8.16725E-09
3.04617E-12 7.13123E-09
3.85530E-12 6.21056E-09
4.75964E-12 5.40976E-09
5.75917E-12 4.72281E-09
6.85391E-12 4.13610E-09
8.04379E-12 3.63772E-09
9.32893E-12 3.21424E-09
1.07092E-11 2.85249E-09
1.21847E-11 2.54316E-09
1.37554E-11 2.27702E-09
1.54213E-11 2.04633E-09
1.71823E-11 1.84581E-09
1.90386E-11 1.67012E-09
2.09900E-11 1.51534E-09
2.30367E-11 1.37859E-09
2.51785E-11 1.25678E-09
2.74156E-11 1.14805E-09
2.97478E-11 1.04501E-09
3.21752E-11 9.52073E-10
3.46979E-11 8.71498E-10
3.73157E-11 8.01309E-10
4.00286E-11 7.39885E-10
4.28368E-11 6.85897E-10
4.57402E-11 6.32563E-10
4.87388E-11 5.80930E-10
5.18325E-11 5.35382E-10
5.50215E-11 4.95052E-10
5.83057E-11 4.59215E-10
6.16850E-11 4.27263E-10
6.51595E-11 3.96490E-10
6.87293E-11 3.66357E-10
7.23943E-11 3.39408E-10
7.61544E-11 3.15236E-10
1.18991E-10 1.57769E-10
1.71347E-10 8.48109E-11
2.33223E-10 4.90964E-11
3.04617E-10 3.04406E-11
3.85531E-10 1.99896E-11
4.75965E-10 1.37569E-11
5.75917E-10 9.82781E-12
6.85389E-10 7.22632E-12
8.04380E-10 5.43863E-12
9.32891E-10 4.17255E-12
1.07092E-09 3.25113E-12
1.21847E-09 2.56853E-12
1.37554E-09 2.05346E-12
1.54213E-09 1.65889E-12
1.71823E-09 1.35340E-12
1.90386E-09 1.11402E-12
2.09900E-09 9.24588E-13
2.30367E-09 7.73343E-13
2.51785E-09 6.51428E-13
2.74156E-09 5.52419E-13
2.97478E-09 4.71268E-13
3.21752E-09 4.04522E-13
3.46978E-09 3.49264E-13
3.73156E-09 3.02979E-13
4.00286E-09 2.64198E-13
4.28368E-09 2.31383E-13
4.57402E-09 2.03529E-13
4.87388E-09 1.79764E-13
5.18326E-09 1.59360E-13
5.50215E-09 1.41801E-13
5.83057E-09 1.26584E-13
6.16850E-09 1.13371E-13
6.51596E-09 1.01845E-13
6.87293E-09 9.17491E-14
7.23942E-09 8.28876E-14
7.61544E-09 7.50636E-14
1.18991E-08 3.13340E-14
1.71347E-08 1.53211E-14
2.33223E-08 8.35035E-15
3.04617E-08 4.92776E-15
3.85531E-08 3.09079E-15
4.75965E-08 2.03457E-15
5.75917E-08 1.39293E-15
6.85389E-08 9.85209E-16
8.04380E-08 7.16209E-16
9.32891E-08 5.32996E-16
1.07092E-07 4.04759E-16
1.21847E-07 3.12848E-16
1.37554E-07 2.45594E-16
1.54213E-07 1.95471E-16
1.71823E-07 1.57502E-16
1.90386E-07 1.28317E-16
2.09900E-07 1.05587E-16
2.30367E-07 8.76735E-17
2.51785E-07 7.34017E-17
2.74156E-07 6.19186E-17
2.97478E-07 5.25953E-17
3.21752E-07 4.49623E-17
3.46978E-07 3.86648E-17
3.73156E-07 3.34321E-17
4.00286E-07 2.90553E-17
4.28368E-07 2.53717E-17
4.57402E-07 2.22538E-17
4.87388E-07 1.96003E-17
5.18325E-07 1.73308E-17
5.50215E-07 1.53804E-17
5.83057E-07 1.36968E-17
6.16850E-07 1.22374E-17
6.51596E-07 1.09672E-17
6.87293E-07 9.85767E-18
7.23942E-07 8.88493E-18
7.61543E-07 8.02926E-18
1.18991E-06 3.28879E-18
1.71347E-06 1.58594E-18
2.33223E-06 8.55980E-19
3.04617E-06 5.01711E-19
3.85531E-06 3.13184E-19
4.75964E-06 2.05458E-19
5.75916E-06 1.40315E-19
6.85388E-06 9.90607E-20
8.04378E-06 7.19124E-20
9.32888E-06 5.34584E-20
1.07092E-05 4.05614E-20
1.21846E-05 3.13292E-20
1.37553E-05 2.45800E-20
1.54212E-05 1.95541E-20
1.71822E-05 1.57493E-20
1.90385E-05 1.28254E-20
2.09899E-05 1.05514E-20
2.30365E-05 8.75946E-21
2.51783E-05 7.33188E-21
2.74153E-05 6.18330E-21
2.97475E-05 5.25087E-21
3.21749E-05 4.48770E-21
3.46974E-05 3.85831E-21
3.73152E-05 3.33554E-21
4.00281E-05 2.89845E-21
4.28362E-05 2.53067E-21
4.57395E-05 2.21941E-21
4.87380E-05 1.95453E-21
5.18317E-05 1.72797E-21
5.50205E-05 1.53328E-21
5.83045E-05 1.36523E-21
6.16838E-05 1.21958E-21
6.51582E-05 1.09284E-21
6.87277E-05 9.82158E-22
7.23925E-05 8.85140E-22
7.61524E-05 7.83556E-22
9.21439E-05 5.32166E-22
1.09658E-04 3.73391E-22
1.28695E-04 2.69236E-22
1.49255E-04 1.98667E-22
1.71338E-04 1.49536E-22
1.94942E-04 1.14505E-22
2.20070E-04 8.90089E-23
2.46720E-04 7.01119E-23
2.74892E-04 5.58782E-23
3.04586E-04 4.50031E-23
3.35803E-04 3.65858E-23
3.68542E-04 2.99953E-23
4.02802E-04 2.47806E-23
4.38585E-04 2.06148E-23
4.75889E-04 1.72580E-23
5.14715E-04 1.45313E-23
5.55063E-04 1.23003E-23
5.96931E-04 1.04624E-23
6.40321E-04 8.93895E-24
6.85233E-04 7.66883E-24
7.31665E-04 6.60422E-24
7.79618E-04 5.70746E-24
8.29092E-04 4.94856E-24
8.80086E-04 4.30357E-24
9.32601E-04 3.75317E-24
9.86636E-04 3.28171E-24
1.04219E-03 2.87646E-24
1.09927E-03 2.52697E-24
1.15786E-03 2.22462E-24
1.21797E-03 1.96229E-24
1.27961E-03 1.73408E-24
1.34276E-03 1.53502E-24
1.40743E-03 1.36098E-24
1.47362E-03 1.20846E-24
1.54133E-03 1.07452E-24
1.61056E-03 9.56651E-25
1.68131E-03 8.52737E-25
1.75357E-03 7.60957E-25
1.82735E-03 6.79758E-25
1.90265E-03 6.07807E-25
1.97947E-03 5.43955E-25
2.05780E-03 4.87211E-25
2.13765E-03 4.36717E-25
2.21902E-03 3.91728E-25
2.30190E-03 3.51598E-25
2.38630E-03 3.15763E-25
2.47222E-03 2.83730E-25
2.55965E-03 2.55068E-25
2.64859E-03 2.29399E-25
2.73905E-03 2.06393E-25
2.83103E-03 1.85755E-25
2.92452E-03 1.67230E-25
3.01952E-03 1.50589E-25
3.11604E-03 1.35632E-25
3.21407E-03 1.22181E-25
3.31362E-03 1.10077E-25
3.41468E-03 9.91814E-26
3.51725E-03 8.93684E-26
3.62133E-03 8.05272E-26
3.72692E-03 7.25590E-26
3.83403E-03 6.53752E-26
3.94265E-03 5.88971E-26
4.05278E-03 5.30540E-26
4.16442E-03 4.77827E-26
4.27757E-03 4.30265E-26
4.39223E-03 3.87348E-26
4.50840E-03 3.48619E-26
4.62608E-03 3.13667E-26
4.74527E-03 2.82126E-26
4.86597E-03 2.53662E-26
4.98817E-03 2.27979E-26
5.11188E-03 2.04807E-26
5.23711E-03 1.83903E-26
5.36383E-03 1.65050E-26
5.49207E-03 1.48049E-26
5.62181E-03 1.32723E-26
5.75306E-03 1.18911E-26
5.88581E-03 1.06467E-26
6.02007E-03 9.52609E-27
6.15583E-03 8.51724E-27
6.29310E-03 7.60945E-27
6.43187E-03 6.79300E-27
6.57214E-03 6.05908E-27
6.71392E-03 5.39972E-27
6.85720E-03 4.80772E-27
7.00198E-03 4.27652E-27
7.14827E-03 3.80023E-27
7.29605E-03 3.37348E-27
7.44534E-03 2.99142E-27
7.59612E-03 2.64967E-27
7.97965E-03 1.94641E-27
8.37255E-03 1.41864E-27
8.77480E-03 1.02539E-27
9.18641E-03 7.34786E-28
9.60736E-03 5.22082E-28
1.00376E-02 3.68112E-28
1.04773E-02 2.58089E-28
1.09262E-02 1.80653E-28
1.13844E-02 1.27121E-28
1.18520E-02 9.08995E-29
1.23288E-02 6.70179E-29
1.28150E-02 5.17623E-29
1.33104E-02 4.23879E-29
1.38150E-02 3.68929E-29
1.43290E-02 3.38408E-29
1.48521E-02 3.22222E-29
1.53845E-02 3.13469E-29
1.59262E-02 3.07604E-29
1.64770E-02 3.01796E-29
1.70371E-02 2.94436E-29
1.76063E-02 2.84767E-29
1.81848E-02 2.72600E-29
1.87724E-02 2.58112E-29
1.93692E-02 2.41693E-29
1.99751E-02 2.23837E-29
2.05901E-02 2.05072E-29
2.12143E-02 1.85907E-29
2.18476E-02 1.66804E-29
2.24900E-02 1.48157E-29
2.31415E-02 1.30289E-29
2.38021E-02 1.13447E-29
2.44717E-02 9.78102E-30
2.51504E-02 8.34920E-30
2.58382E-02 7.05516E-30
2.65349E-02 5.90013E-30
2.72407E-02 4.88154E-30
2.79555E-02 3.99386E-30
2.86793E-02 3.22936E-30
2.94120E-02 2.57879E-30
3.01537E-02 2.03195E-30
3.09043E-02 1.57819E-30
3.16639E-02 1.20678E-30
3.24324E-02 9.07276E-31
3.32098E-02 6.69678E-31
3.39961E-02 4.84668E-31
3.47912E-02 3.43688E-31
3.55952E-02 2.39015E-31
3.64081E-02 1.63789E-31
3.72297E-02 1.12003E-31
3.80602E-02 7.84765E-32
3.88995E-02 5.88105E-32
3.97476E-02 4.93282E-32
4.06044E-02 4.70085E-32
4.14700E-02 4.94167E-32
4.23443E-02 5.46332E-32
4.32273E-02 6.11840E-32
4.41190E-02 6.79743E-32
4.50194E-02 7.42267E-32
4.59284E-02 7.94242E-32
4.68461E-02 8.32594E-32
4.87074E-02 8.63960E-32
5.06030E-02 8.37984E-32
5.25328E-02 7.66850E-32
5.44967E-02 6.66537E-32
5.64946E-02 5.52608E-32
5.85262E-02 4.37950E-32
6.05914E-02 3.31867E-32
6.26901E-02 2.40073E-32
6.48222E-02 1.65180E-32
6.69873E-02 1.07414E-32
6.91854E-02 6.53752E-33
7.14163E-02 3.67188E-33
7.36799E-02 1.87104E-33
7.59760E-02 8.62826E-34
7.83043E-02 4.02503E-34
8.06647E-02 2.86926E-34
8.30571E-02 3.59394E-34
8.54812E-02 5.08025E-34
8.79369E-02 6.60133E-34
9.04240E-02 7.74648E-34
9.29422E-02 8.34070E-34
9.54915E-02 8.36969E-34
9.80716E-02 7.91615E-34
1.00682E-01 7.10996E-34
1.03323E-01 6.09223E-34
1.05995E-01 4.99212E-34
1.08696E-01 3.91391E-34
1.11427E-01 2.93204E-34
1.14188E-01 2.09165E-34
1.16978E-01 1.41247E-34
1.19797E-01 8.94402E-35
1.22645E-01 5.23488E-35
1.25522E-01 2.77529E-35
1.28428E-01 1.30730E-35
1.31361E-01 5.72667E-36
1.34323E-01 3.36976E-36
1.37313E-01 4.03697E-36
1.40330E-01 6.19992E-36
1.43375E-01 8.76264E-36
1.46447E-01 1.10174E-35
1.49545E-01 1.25768E-35
1.52671E-01 1.32979E-35
1.55823E-01 1.32083E-35
1.59001E-01 1.24401E-35
1.62205E-01 1.11769E-35
1.65435E-01 9.61358E-36
1.68690E-01 7.92935E-36
1.71970E-01 6.27146E-36
1.75276E-01 4.74826E-36
1.78606E-01 3.42879E-36
1.81961E-01 2.34692E-36
1.85340E-01 1.50785E-36
1.88743E-01 8.95817E-37
1.92169E-01 4.81406E-37
1.95619E-01 2.28192E-37
1.99092E-01 9.79747E-38
2.02589E-01 5.46301E-38
2.06107E-01 6.66041E-38
2.09649E-01 1.08255E-37
2.13212E-01 1.60185E-37
2.16797E-01 2.09001E-37
2.20404E-01 2.46546E-37
2.24032E-01 2.68938E-37
2.27680E-01 2.75508E-37
2.31350E-01 2.67797E-37
2.35040E-01 2.48643E-37
2.38751E-01 2.21457E-37
2.42481E-01 1.89665E-37
2.46231E-01 1.56329E-37
2.50000E-01 1.23938E-37
2.53788E-01 9.43104E-38
2.57595E-01 6.86065E-38
2.61421E-01 4.73990E-38
2.65264E-01 3.07890E-38
2.69126E-01 1.85063E-38
2.73005E-01 1.00546E-38
2.76901E-01 1.00000E-45
2.80814E-01 1.00000E-45
2.84744E-01 1.00000E-45
2.88691E-01 1.00000E-45
2.92653E-01 1.00000E-45
2.96632E-01 1.00000E-45
3.00625E-01 1.00000E-45
3.04634E-01 1.00000E-45
3.08658E-01 1.00000E-45
3.12697E-01 1.00000E-45
3.16749E-01 1.00000E-45
3.20816E-01 1.00000E-45
3.24896E-01 1.00000E-45
3.28990E-01 1.00000E-45
3.33097E-01 1.00000E-45
3.37216E-01 1.00000E-45
3.41348E-01 1.00000E-45
3.45492E-01 1.00000E-45
3.49647E-01 1.00000E-45
3.53814E-01 1.00000E-45
3.57992E-01 1.00000E-45
3.62181E-01 1.00000E-45
3.66381E-01 1.00000E-45
3.70590E-01 1.00000E-45
3.74810E-01 1.00000E-45
3.79039E-01 1.00000E-45
3.83277E-01 1.00000E-45
3.87524E-01 1.00000E-45
3.91780E-01 1.00000E-45
3.96044E-01 1.00000E-45
4.00316E-01 1.00000E-45
4.04596E-01 1.00000E-45
4.08882E-01 1.00000E-45
4.13176E-01 1.00000E-45
4.17476E-01 1.00000E-45
4.21783E-01 1.00000E-45
4.26095E-01 1.00000E-45
4.30413E-01 1.00000E-45
4.34737E-01 1.00000E-45
4.39065E-01 1.00000E-45
4.43398E-01 1.00000E-45
4.47736E-01 1.00000E-45
4.52077E-01 1.00000E-45
4.56422E-01 1.00000E-45
4.60770E-01 1.00000E-45
4.65122E-01 1.00000E-45
4.69476E-01 1.00000E-45
4.73832E-01 1.00000E-45
4.78190E-01 1.00000E-45
4.82550E-01 1.00000E-45
4.86912E-01 1.00000E-45
4.91274E-01 1.00000E-45
4.95637E-01 1.00000E-45
5.00000E-01 1.00000E-45
5.04363E-01 1.00000E-45
5.08726E-01 1.00000E-45
5.13088E-01 1.00000E-45
5.17450E-01 1.00000E-45
5.21810E-01 1.00000E-45
5.26168E-01 1.00000E-45
5.30524E-01 1.00000E-45
5.34878E-01 1.00000E-45
5.39230E-01 1.00000E-45
5.43578E-01 1.00000E-45
5.47923E-01 1.00000E-45
5.52264E-01 1.00000E-45
5.56602E-01 1.00000E-45
5.60935E-01 1.00000E-45
5.65263E-01 1.00000E-45
5.69587E-01 1.00000E-45
5.73905E-01 1.00000E-45
5.78217E-01 1.00000E-45
5.82524E-01 1.00000E-45
5.86824E-01 1.00000E-45
5.91118E-01 1.00000E-45
5.95404E-01 1.00000E-45
5.99684E-01 1.00000E-45
6.03956E-01 1.00000E-45
6.08220E-01 1.00000E-45
6.12476E-01 1.00000E-45
6.16723E-01 1.00000E-45
6.20961E-01 1.00000E-45
6.25190E-01 1.00000E-45
6.29410E-01 1.00000E-45
6.33619E-01 1.00000E-45
6.37819E-01 1.00000E-45
6.42008E-01 1.00000E-45
6.46186E-01 1.00000E-45
6.50353E-01 1.00000E-45
6.54508E-01 1.00000E-45
6.58652E-01 1.00000E-45
6.62784E-01 1.00000E-45
6.66903E-01 1.00000E-45
6.71010E-01 1.00000E-45
6.75104E-01 1.00000E-45
6.79184E-01 1.00000E-45
6.83251E-01 1.00000E-45
6.87303E-01 1.00000E-45
6.91342E-01 1.00000E-45
6.95366E-01 1.00000E-45
6.99375E-01 1.00000E-45
7.03368E-01 1.00000E-45
7.07347E-01 1.00000E-45
7.11309E-01 1.00000E-45
7.15256E-01 1.00000E-45
7.19186E-01 1.00000E-45
7.23099E-01 1.00000E-45
7.26995E-01 1.00000E-45
7.30874E-01 1.00000E-45
7.34736E-01 1.00000E-45
7.38579E-01 1.00000E-45
7.42405E-01 1.00000E-45
7.46212E-01 1.00000E-45
7.50000E-01 1.00000E-45
7.53769E-01 1.00000E-45
7.57519E-01 1.00000E-45
7.61249E-01 1.00000E-45
7.64960E-01 1.00000E-45
7.68650E-01 1.00000E-45
7.72320E-01 1.00000E-45
7.75968E-01 1.00000E-45
7.79596E-01 1.00000E-45
7.83203E-01 1.00000E-45
7.86788E-01 1.00000E-45
7.90351E-01 1.00000E-45
7.93893E-01 1.00000E-45
7.97411E-01 1.00000E-45
8.00908E-01 1.00000E-45
8.04381E-01 1.00000E-45
8.07831E-01 1.00000E-45
8.11257E-01 1.00000E-45
8.14660E-01 1.00000E-45
8.18039E-01 1.00000E-45
8.21394E-01 1.00000E-45
8.24724E-01 1.00000E-45
8.28030E-01 1.00000E-45
8.31310E-01 1.00000E-45
8.34565E-01 1.00000E-45
8.37795E-01 1.00000E-45
8.40999E-01 1.00000E-45
8.44177E-01 1.00000E-45
8.47329E-01 1.00000E-45
8.50455E-01 1.00000E-45
8.53553E-01 1.00000E-45
8.56625E-01 1.00000E-45
8.59670E-01 1.00000E-45
8.62687E-01 1.00000E-45
8.65677E-01 1.00000E-45
8.68639E-01 1.00000E-45
8.71572E-01 1.00000E-45
8.74478E-01 1.00000E-45
8.77355E-01 1.00000E-45
8.80203E-01 1.00000E-45
8.83022E-01 1.00000E-45
8.85812E-01 1.00000E-45
8.88573E-01 1.00000E-45
8.91304E-01 1.00000E-45
8.94005E-01 1.00000E-45
8.96677E-01 1.00000E-45
8.99318E-01 1.00000E-45
9.01928E-01 1.00000E-45
9.04508E-01 1.00000E-45
9.07058E-01 1.00000E-45
9.09576E-01 1.00000E-45
9.12063E-01 1.00000E-45
9.14519E-01 1.00000E-45
9.16943E-01 1.00000E-45
9.19335E-01 1.00000E-45
9.21696E-01 1.00000E-45
9.24024E-01 1.00000E-45
9.26320E-01 1.00000E-45
9.28584E-01 1.00000E-45
9.30815E-01 1.00000E-45
9.33013E-01 1.00000E-45
9.35178E-01 1.00000E-45
9.37310E-01 1.00000E-45
9.39409E-01 1.00000E-45
9.41474E-01 1.00000E-45
9.43505E-01 1.00000E-45
9.45503E-01 1.00000E-45
9.47467E-01 1.00000E-45
9.49397E-01 1.00000E-45
9.51293E-01 1.00000E-45
9.53154E-01 1.00000E-45
9.54981E-01 1.00000E-45
9.56773E-01 1.00000E-45
9.58530E-01 1.00000E-45
9.60252E-01 1.00000E-45
9.61940E-01 1.00000E-45
9.63592E-01 1.00000E-45
9.65209E-01 1.00000E-45
9.66790E-01 1.00000E-45
9.68336E-01 1.00000E-45
9.69846E-01 1.00000E-45
9.71321E-01 1.00000E-45
9.72759E-01 1.00000E-45
9.74162E-01 1.00000E-45
9.75528E-01 1.00000E-45
9.76858E-01 1.00000E-45
9.78152E-01 1.00000E-45
9.79410E-01 1.00000E-45
9.80631E-01 1.00000E-45
9.81815E-01 1.00000E-45
9.82963E-01 1.00000E-45
9.84074E-01 1.00000E-45
9.85148E-01 1.00000E-45
9.86185E-01 1.00000E-45
9.87185E-01 1.00000E-45
9.88148E-01 1.00000E-45
9.89074E-01 1.00000E-45
9.89962E-01 1.00000E-45
9.90814E-01 1.00000E-45
9.91627E-01 1.00000E-45
9.92404E-01 1.00000E-45
9.93143E-01 1.00000E-45
9.93844E-01 1.00000E-45
9.94508E-01 1.00000E-45
9.95134E-01 1.00000E-45
9.95722E-01 1.00000E-45
9.96273E-01 1.00000E-45
9.96786E-01 1.00000E-45
9.97261E-01 1.00000E-45
9.97698E-01 1.00000E-45
9.98097E-01 1.00000E-45
9.98459E-01 1.00000E-45
9.98782E-01 1.00000E-45
9.99067E-01 1.00000E-45
9.99315E-01 1.00000E-45
9.99524E-01 1.00000E-45
9.99695E-01 1.00000E-45
9.99829E-01 1.00000E-45
9.99924E-01 1.00000E-45
9.99981E-01 1.00000E-45
1.00000E+00 1.00000E-45
