 #
 # Subroutine ELSEPA. Elastic scattering of electrons and positrons
 #                    by neutral atoms and positive ions
 #
 # Projectile: positron
 # Kinetic energy = 1.75000E+07 eV = 6.43113E+05 a.u.
 #
 # WARNING: High-energy factorization with free-atom DF screening.
 #          Absorption, polarization and exchange corrections are
 #          switched off.
 #          Phase shifts are calculated for the bare nucleus.
 #          Scattering amplitudes are not evaluated.
 #
 # Element: Co,  Z =  27,  atomic weight = 5.89332E+01 g/mol
 #
 # Nuclear model: Fermi distribution
 #                Average radius = 4.16393E-13 cm
 #                Skin thickness = 5.46000E-14 cm
 #
 # Number of electrons = 27
 #
 # Total elastic cross section = 1.96694E-18 cm**2 = 7.02406E-02 a0**2
 # 1st transport cross section = 3.83123E-24 cm**2 = 1.36816E-07 a0**2
 # 2nd transport cross section = 1.11316E-23 cm**2 = 3.97517E-07 a0**2
 #
 #
 # Differential cross section:                       MU=(1-COS(THETA))/2
 #
 #  THETA        MU          DCS          DCS        Sherman      error
 #  (deg)                 (cm**2/sr)   (a0**2/sr)    function
 #----------------------------------------------------------------------
0.00000E+00 5.76974E-12
7.61557E-13 5.76921E-12
1.18994E-12 5.76891E-12
1.71346E-12 5.76855E-12
2.33225E-12 5.76812E-12
3.04617E-12 5.76763E-12
3.85530E-12 5.76708E-12
4.75964E-12 5.76646E-12
5.75917E-12 5.76577E-12
6.85391E-12 5.76502E-12
8.04379E-12 5.76420E-12
9.32893E-12 5.76332E-12
1.07092E-11 5.76238E-12
1.21847E-11 5.76137E-12
1.37554E-11 5.76029E-12
1.54213E-11 5.75915E-12
1.71823E-11 5.75795E-12
1.90386E-11 5.75668E-12
2.09900E-11 5.75535E-12
2.30367E-11 5.75395E-12
2.51785E-11 5.75249E-12
2.74156E-11 5.75096E-12
2.97478E-11 5.74937E-12
3.21752E-11 5.74772E-12
3.46979E-11 5.74600E-12
3.73157E-11 5.74422E-12
4.00286E-11 5.74237E-12
4.28368E-11 5.74046E-12
4.57402E-11 5.73849E-12
4.87388E-11 5.73646E-12
5.18325E-11 5.73436E-12
5.50215E-11 5.73219E-12
5.83057E-11 5.72997E-12
6.16850E-11 5.72768E-12
6.51595E-11 5.72533E-12
6.87293E-11 5.72291E-12
7.23943E-11 5.72044E-12
7.61544E-11 5.71790E-12
1.18991E-10 5.68911E-12
1.71347E-10 5.65424E-12
2.33223E-10 5.61349E-12
3.04617E-10 5.56706E-12
3.85531E-10 5.51521E-12
4.75965E-10 5.45819E-12
5.75917E-10 5.39628E-12
6.85389E-10 5.32979E-12
8.04380E-10 5.25867E-12
9.32891E-10 5.18387E-12
1.07092E-09 5.10592E-12
1.21847E-09 5.02406E-12
1.37554E-09 4.93945E-12
1.54213E-09 4.85283E-12
1.71823E-09 4.76327E-12
1.90386E-09 4.67192E-12
2.09900E-09 4.57964E-12
2.30367E-09 4.48542E-12
2.51785E-09 4.39026E-12
2.74156E-09 4.29514E-12
2.97478E-09 4.19901E-12
3.21752E-09 4.10267E-12
3.46978E-09 4.00717E-12
3.73156E-09 3.91150E-12
4.00286E-09 3.81621E-12
4.28368E-09 3.72237E-12
4.57402E-09 3.62907E-12
4.87388E-09 3.53659E-12
5.18326E-09 3.44600E-12
5.50215E-09 3.35652E-12
5.83057E-09 3.26816E-12
6.16850E-09 3.18198E-12
6.51596E-09 3.09731E-12
6.87293E-09 3.01398E-12
7.23942E-09 2.93297E-12
7.61544E-09 2.85374E-12
1.18991E-08 2.16503E-12
1.71347E-08 1.65540E-12
2.33223E-08 1.28649E-12
3.04617E-08 1.01792E-12
3.85531E-08 8.19074E-13
4.75965E-08 6.68501E-13
5.75917E-08 5.51826E-13
6.85389E-08 4.59552E-13
8.04380E-08 3.81128E-13
9.32891E-08 3.20764E-13
1.07092E-07 2.74554E-13
1.21847E-07 2.32572E-13
1.37554E-07 1.98185E-13
1.54213E-07 1.71041E-13
1.71823E-07 1.46679E-13
1.90386E-07 1.26208E-13
2.09900E-07 1.09652E-13
2.30367E-07 9.50121E-14
2.51785E-07 8.25140E-14
2.74156E-07 7.22004E-14
2.97478E-07 6.31713E-14
3.21752E-07 5.53822E-14
3.46978E-07 4.88425E-14
3.73156E-07 4.31405E-14
4.00286E-07 3.81831E-14
4.28368E-07 3.39576E-14
4.57402E-07 3.02701E-14
4.87388E-07 2.70423E-14
5.18325E-07 2.42545E-14
5.50215E-07 2.18108E-14
5.83057E-07 1.96576E-14
6.16850E-07 1.77760E-14
6.51596E-07 1.61160E-14
6.87293E-07 1.46433E-14
7.23942E-07 1.33431E-14
7.61543E-07 1.21874E-14
1.18991E-06 5.50707E-15
1.71347E-06 2.89245E-15
2.33223E-06 1.66996E-15
3.04617E-06 1.02791E-15
3.85531E-06 6.63821E-16
4.75964E-06 4.45743E-16
5.75916E-06 3.09401E-16
6.85388E-06 2.20990E-16
8.04378E-06 1.61807E-16
9.32888E-06 1.21177E-16
1.07092E-05 9.25319E-17
1.21846E-05 7.18807E-17
1.37553E-05 5.66941E-17
1.54212E-05 4.53224E-17
1.71822E-05 3.66744E-17
1.90385E-05 2.99989E-17
2.09899E-05 2.47850E-17
2.30365E-05 2.06591E-17
2.51783E-05 1.73575E-17
2.74153E-05 1.46903E-17
2.97475E-05 1.25169E-17
3.21749E-05 1.07316E-17
3.46974E-05 9.25391E-18
3.73152E-05 8.02231E-18
4.00281E-05 6.98880E-18
4.28362E-05 6.11657E-18
4.57395E-05 5.37623E-18
4.87380E-05 4.74447E-18
5.18317E-05 4.20268E-18
5.50205E-05 3.73582E-18
5.83045E-05 3.33186E-18
6.16838E-05 2.98099E-18
6.51582E-05 2.67507E-18
6.87277E-05 2.40737E-18
7.23925E-05 2.17229E-18
7.61524E-05 1.96512E-18
9.21439E-05 1.34681E-18
1.09658E-04 9.53270E-19
1.28695E-04 6.93346E-19
1.49255E-04 5.16131E-19
1.71338E-04 3.92013E-19
1.94942E-04 3.03005E-19
2.20070E-04 2.37853E-19
2.46720E-04 1.89286E-19
2.74892E-04 1.52490E-19
3.04586E-04 1.24206E-19
3.35803E-04 1.02177E-19
3.68542E-04 8.48172E-20
4.02802E-04 7.09881E-20
4.38585E-04 5.98626E-20
4.75889E-04 5.08314E-20
5.14715E-04 4.34386E-20
5.55063E-04 3.73408E-20
5.96931E-04 3.22750E-20
6.40321E-04 2.80389E-20
6.85233E-04 2.44746E-20
7.31665E-04 2.14584E-20
7.79618E-04 1.88922E-20
8.29092E-04 1.66979E-20
8.80086E-04 1.48127E-20
9.32601E-04 1.31859E-20
9.86636E-04 1.17760E-20
1.04219E-03 1.05494E-20
1.09927E-03 9.47819E-21
1.15786E-03 8.53934E-21
1.21797E-03 7.71373E-21
1.27961E-03 6.98537E-21
1.34276E-03 6.34085E-21
1.40743E-03 5.76885E-21
1.47362E-03 5.25982E-21
1.54133E-03 4.80561E-21
1.61056E-03 4.39931E-21
1.68131E-03 4.03497E-21
1.75357E-03 3.70751E-21
1.82735E-03 3.41255E-21
1.90265E-03 3.14629E-21
1.97947E-03 2.90544E-21
2.05780E-03 2.68716E-21
2.13765E-03 2.48896E-21
2.21902E-03 2.30866E-21
2.30190E-03 2.14436E-21
2.38630E-03 1.99439E-21
2.47222E-03 1.85728E-21
2.55965E-03 1.73172E-21
2.64859E-03 1.61657E-21
2.73905E-03 1.51081E-21
2.83103E-03 1.41355E-21
2.92452E-03 1.32396E-21
3.01952E-03 1.24135E-21
3.11604E-03 1.16506E-21
3.21407E-03 1.09453E-21
3.31362E-03 1.02924E-21
3.41468E-03 9.68739E-22
3.51725E-03 9.12605E-22
3.62133E-03 8.60468E-22
3.72692E-03 8.11992E-22
3.83403E-03 7.66872E-22
3.94265E-03 7.24834E-22
4.05278E-03 6.85630E-22
4.16442E-03 6.49033E-22
4.27757E-03 6.14839E-22
4.39223E-03 5.82860E-22
4.50840E-03 5.52928E-22
4.62608E-03 5.24887E-22
4.74527E-03 4.98595E-22
4.86597E-03 4.73924E-22
4.98817E-03 4.50756E-22
5.11188E-03 4.28982E-22
5.23711E-03 4.08502E-22
5.36383E-03 3.89226E-22
5.49207E-03 3.71070E-22
5.62181E-03 3.53957E-22
5.75306E-03 3.37816E-22
5.88581E-03 3.22581E-22
6.02007E-03 3.08193E-22
6.15583E-03 2.94595E-22
6.29310E-03 2.81736E-22
6.43187E-03 2.69568E-22
6.57214E-03 2.58048E-22
6.71392E-03 2.47135E-22
6.85720E-03 2.36790E-22
7.00198E-03 2.26979E-22
7.14827E-03 2.17669E-22
7.29605E-03 2.08829E-22
7.44534E-03 2.00432E-22
7.59612E-03 1.92451E-22
7.97965E-03 1.74164E-22
8.37255E-03 1.57989E-22
8.77480E-03 1.43642E-22
9.18641E-03 1.30881E-22
9.60736E-03 1.19501E-22
1.00376E-02 1.09325E-22
1.04773E-02 1.00206E-22
1.09262E-02 9.20133E-23
1.13844E-02 8.46376E-23
1.18520E-02 7.79829E-23
1.23288E-02 7.19665E-23
1.28150E-02 6.65164E-23
1.33104E-02 6.15701E-23
1.38150E-02 5.70729E-23
1.43290E-02 5.29768E-23
1.48521E-02 4.92397E-23
1.53845E-02 4.58246E-23
1.59262E-02 4.26989E-23
1.64770E-02 3.98338E-23
1.70371E-02 3.72036E-23
1.76063E-02 3.47857E-23
1.81848E-02 3.25599E-23
1.87724E-02 3.05083E-23
1.93692E-02 2.86147E-23
1.99751E-02 2.68649E-23
2.05901E-02 2.52459E-23
2.12143E-02 2.37463E-23
2.18476E-02 2.23557E-23
2.24900E-02 2.10647E-23
2.31415E-02 1.98650E-23
2.38021E-02 1.87488E-23
2.44717E-02 1.77094E-23
2.51504E-02 1.67405E-23
2.58382E-02 1.58366E-23
2.65349E-02 1.49923E-23
2.72407E-02 1.42031E-23
2.79555E-02 1.34648E-23
2.86793E-02 1.27735E-23
2.94120E-02 1.21256E-23
3.01537E-02 1.15180E-23
3.09043E-02 1.09476E-23
3.16639E-02 1.04118E-23
3.24324E-02 9.90815E-24
3.32098E-02 9.43430E-24
3.39961E-02 8.98820E-24
3.47912E-02 8.56792E-24
3.55952E-02 8.17170E-24
3.64081E-02 7.79792E-24
3.72297E-02 7.44507E-24
3.80602E-02 7.11176E-24
3.88995E-02 6.79673E-24
3.97476E-02 6.49878E-24
4.06044E-02 6.21682E-24
4.14700E-02 5.94984E-24
4.23443E-02 5.69689E-24
4.32273E-02 5.45711E-24
4.41190E-02 5.22968E-24
4.50194E-02 5.01386E-24
4.59284E-02 4.80893E-24
4.68461E-02 4.61426E-24
4.87074E-02 4.25329E-24
5.06030E-02 3.92657E-24
5.25328E-02 3.63028E-24
5.44967E-02 3.36112E-24
5.64946E-02 3.11616E-24
5.85262E-02 2.89286E-24
6.05914E-02 2.68897E-24
6.26901E-02 2.50251E-24
6.48222E-02 2.33174E-24
6.69873E-02 2.17510E-24
6.91854E-02 2.03122E-24
7.14163E-02 1.89888E-24
7.36799E-02 1.77700E-24
7.59760E-02 1.66461E-24
7.83043E-02 1.56083E-24
8.06647E-02 1.46490E-24
8.30571E-02 1.37611E-24
8.54812E-02 1.29385E-24
8.79369E-02 1.21755E-24
9.04240E-02 1.14669E-24
9.29422E-02 1.08084E-24
9.54915E-02 1.01956E-24
9.80716E-02 9.62490E-25
1.00682E-01 9.09288E-25
1.03323E-01 8.59645E-25
1.05995E-01 8.13282E-25
1.08696E-01 7.69945E-25
1.11427E-01 7.29401E-25
1.14188E-01 6.91438E-25
1.16978E-01 6.55865E-25
1.19797E-01 6.22503E-25
1.22645E-01 5.91192E-25
1.25522E-01 5.61783E-25
1.28428E-01 5.34140E-25
1.31361E-01 5.08140E-25
1.34323E-01 4.83667E-25
1.37313E-01 4.60616E-25
1.40330E-01 4.38890E-25
1.43375E-01 4.18399E-25
1.46447E-01 3.99061E-25
1.49545E-01 3.80800E-25
1.52671E-01 3.63545E-25
1.55823E-01 3.47232E-25
1.59001E-01 3.31799E-25
1.62205E-01 3.17191E-25
1.65435E-01 3.03357E-25
1.68690E-01 2.90247E-25
1.71970E-01 2.77818E-25
1.75276E-01 2.66029E-25
1.78606E-01 2.54839E-25
1.81961E-01 2.44215E-25
1.85340E-01 2.34121E-25
1.88743E-01 2.24527E-25
1.92169E-01 2.15405E-25
1.95619E-01 2.06726E-25
1.99092E-01 1.98465E-25
2.02589E-01 1.90599E-25
2.06107E-01 1.83106E-25
2.09649E-01 1.75965E-25
2.13212E-01 1.69157E-25
2.16797E-01 1.62662E-25
2.20404E-01 1.56466E-25
2.24032E-01 1.50550E-25
2.27680E-01 1.44901E-25
2.31350E-01 1.39504E-25
2.35040E-01 1.34347E-25
2.38751E-01 1.29416E-25
2.42481E-01 1.24700E-25
2.46231E-01 1.20188E-25
2.50000E-01 1.15870E-25
2.53788E-01 1.11736E-25
2.57595E-01 1.07777E-25
2.61421E-01 1.03984E-25
2.65264E-01 1.00349E-25
2.69126E-01 9.68639E-26
2.73005E-01 9.35220E-26
2.76901E-01 9.03163E-26
2.80814E-01 8.72402E-26
2.84744E-01 8.42875E-26
2.88691E-01 8.14527E-26
2.92653E-01 7.87300E-26
2.96632E-01 7.61143E-26
3.00625E-01 7.36008E-26
3.04634E-01 7.11847E-26
3.08658E-01 6.88617E-26
3.12697E-01 6.66275E-26
3.16749E-01 6.44782E-26
3.20816E-01 6.24100E-26
3.24896E-01 6.04193E-26
3.28990E-01 5.85028E-26
3.33097E-01 5.66572E-26
3.37216E-01 5.48794E-26
3.41348E-01 5.31666E-26
3.45492E-01 5.15160E-26
3.49647E-01 4.99249E-26
3.53814E-01 4.83909E-26
3.57992E-01 4.69115E-26
3.62181E-01 4.54845E-26
3.66381E-01 4.41078E-26
3.70590E-01 4.27792E-26
3.74810E-01 4.14968E-26
3.79039E-01 4.02587E-26
3.83277E-01 3.90632E-26
3.87524E-01 3.79086E-26
3.91780E-01 3.67931E-26
3.96044E-01 3.57154E-26
4.00316E-01 3.46738E-26
4.04596E-01 3.36670E-26
4.08882E-01 3.26936E-26
4.13176E-01 3.17524E-26
4.17476E-01 3.08421E-26
4.21783E-01 2.99615E-26
4.26095E-01 2.91095E-26
4.30413E-01 2.82850E-26
4.34737E-01 2.74871E-26
4.39065E-01 2.67146E-26
4.43398E-01 2.59667E-26
4.47736E-01 2.52424E-26
4.52077E-01 2.45409E-26
4.56422E-01 2.38614E-26
4.60770E-01 2.32031E-26
4.65122E-01 2.25651E-26
4.69476E-01 2.19468E-26
4.73832E-01 2.13475E-26
4.78190E-01 2.07664E-26
4.82550E-01 2.02030E-26
4.86912E-01 1.96566E-26
4.91274E-01 1.91267E-26
4.95637E-01 1.86126E-26
5.00000E-01 1.81138E-26
5.04363E-01 1.76298E-26
5.08726E-01 1.71601E-26
5.13088E-01 1.67042E-26
5.17450E-01 1.62616E-26
5.21810E-01 1.58319E-26
5.26168E-01 1.54146E-26
5.30524E-01 1.50094E-26
5.34878E-01 1.46158E-26
5.39230E-01 1.42334E-26
5.43578E-01 1.38620E-26
5.47923E-01 1.35010E-26
5.52264E-01 1.31502E-26
5.56602E-01 1.28093E-26
5.60935E-01 1.24779E-26
5.65263E-01 1.21557E-26
5.69587E-01 1.18425E-26
5.73905E-01 1.15379E-26
5.78217E-01 1.12417E-26
5.82524E-01 1.09536E-26
5.86824E-01 1.06733E-26
5.91118E-01 1.04007E-26
5.95404E-01 1.01354E-26
5.99684E-01 9.87733E-27
6.03956E-01 9.62614E-27
6.08220E-01 9.38167E-27
6.12476E-01 9.14371E-27
6.16723E-01 8.91206E-27
6.20961E-01 8.68653E-27
6.25190E-01 8.46694E-27
6.29410E-01 8.25311E-27
6.33619E-01 8.04487E-27
6.37819E-01 7.84205E-27
6.42008E-01 7.64450E-27
6.46186E-01 7.45205E-27
6.50353E-01 7.26455E-27
6.54508E-01 7.08187E-27
6.58652E-01 6.90387E-27
6.62784E-01 6.73040E-27
6.66903E-01 6.56134E-27
6.71010E-01 6.39655E-27
6.75104E-01 6.23593E-27
6.79184E-01 6.07935E-27
6.83251E-01 5.92669E-27
6.87303E-01 5.77785E-27
6.91342E-01 5.63272E-27
6.95366E-01 5.49119E-27
6.99375E-01 5.35317E-27
7.03368E-01 5.21855E-27
7.07347E-01 5.08724E-27
7.11309E-01 4.95916E-27
7.15256E-01 4.83421E-27
7.19186E-01 4.71231E-27
7.23099E-01 4.59338E-27
7.26995E-01 4.47733E-27
7.30874E-01 4.36408E-27
7.34736E-01 4.25357E-27
7.38579E-01 4.14572E-27
7.42405E-01 4.04046E-27
7.46212E-01 3.93771E-27
7.50000E-01 3.83742E-27
7.53769E-01 3.73952E-27
7.57519E-01 3.64395E-27
7.61249E-01 3.55064E-27
7.64960E-01 3.45954E-27
7.68650E-01 3.37059E-27
7.72320E-01 3.28373E-27
7.75968E-01 3.19892E-27
7.79596E-01 3.11609E-27
7.83203E-01 3.03521E-27
7.86788E-01 2.95621E-27
7.90351E-01 2.87906E-27
7.93893E-01 2.80370E-27
7.97411E-01 2.73009E-27
8.00908E-01 2.65819E-27
8.04381E-01 2.58795E-27
8.07831E-01 2.51934E-27
8.11257E-01 2.45231E-27
8.14660E-01 2.38683E-27
8.18039E-01 2.32285E-27
8.21394E-01 2.26035E-27
8.24724E-01 2.19928E-27
8.28030E-01 2.13962E-27
8.31310E-01 2.08132E-27
8.34565E-01 2.02436E-27
8.37795E-01 1.96870E-27
8.40999E-01 1.91432E-27
8.44177E-01 1.86117E-27
8.47329E-01 1.80925E-27
8.50455E-01 1.75850E-27
8.53553E-01 1.70892E-27
8.56625E-01 1.66047E-27
8.59670E-01 1.61313E-27
8.62687E-01 1.56686E-27
8.65677E-01 1.52166E-27
8.68639E-01 1.47748E-27
8.71572E-01 1.43432E-27
8.74478E-01 1.39214E-27
8.77355E-01 1.35093E-27
8.80203E-01 1.31066E-27
8.83022E-01 1.27131E-27
8.85812E-01 1.23287E-27
8.88573E-01 1.19531E-27
8.91304E-01 1.15862E-27
8.94005E-01 1.12277E-27
8.96677E-01 1.08775E-27
8.99318E-01 1.05354E-27
9.01928E-01 1.02012E-27
9.04508E-01 9.87486E-28
9.07058E-01 9.55608E-28
9.09576E-01 9.24476E-28
9.12063E-01 8.94074E-28
9.14519E-01 8.64388E-28
9.16943E-01 8.35402E-28
9.19335E-01 8.07104E-28
9.21696E-01 7.79478E-28
9.24024E-01 7.52513E-28
9.26320E-01 7.26196E-28
9.28584E-01 7.00513E-28
9.30815E-01 6.75453E-28
9.33013E-01 6.51003E-28
9.35178E-01 6.27154E-28
9.37310E-01 6.03892E-28
9.39409E-01 5.81208E-28
9.41474E-01 5.59090E-28
9.43505E-01 5.37529E-28
9.45503E-01 5.16515E-28
9.47467E-01 4.96038E-28
9.49397E-01 4.76089E-28
9.51293E-01 4.56658E-28
9.53154E-01 4.37737E-28
9.54981E-01 4.19317E-28
9.56773E-01 4.01390E-28
9.58530E-01 3.83947E-28
9.60252E-01 3.66981E-28
9.61940E-01 3.50485E-28
9.63592E-01 3.34450E-28
9.65209E-01 3.18871E-28
9.66790E-01 3.03739E-28
9.68336E-01 2.89048E-28
9.69846E-01 2.74792E-28
9.71321E-01 2.60964E-28
9.72759E-01 2.47558E-28
9.74162E-01 2.34569E-28
9.75528E-01 2.21991E-28
9.76858E-01 2.09817E-28
9.78152E-01 1.98044E-28
9.79410E-01 1.86666E-28
9.80631E-01 1.75677E-28
9.81815E-01 1.65073E-28
9.82963E-01 1.54850E-28
9.84074E-01 1.45004E-28
9.85148E-01 1.35529E-28
9.86185E-01 1.26421E-28
9.87185E-01 1.17678E-28
9.88148E-01 1.09295E-28
9.89074E-01 1.01269E-28
9.89962E-01 9.35956E-29
9.90814E-01 8.62723E-29
9.91627E-01 7.92959E-29
9.92404E-01 7.26633E-29
9.93143E-01 6.63717E-29
9.93844E-01 6.04185E-29
9.94508E-01 5.48012E-29
9.95134E-01 4.95173E-29
9.95722E-01 4.45647E-29
9.96273E-01 3.99413E-29
9.96786E-01 3.56452E-29
9.97261E-01 3.16744E-29
9.97698E-01 2.80274E-29
9.98097E-01 2.47026E-29
9.98459E-01 2.16987E-29
9.98782E-01 1.90143E-29
9.99067E-01 1.66484E-29
9.99315E-01 1.45999E-29
9.99524E-01 1.28680E-29
9.99695E-01 1.14520E-29
9.99829E-01 1.03513E-29
9.99924E-01 9.56542E-30
9.99981E-01 9.09403E-30
1.00000E+00 8.93690E-30
