 #
 # Subroutine ELSEPA. Elastic scattering of electrons and positrons
 #                    by neutral atoms and positive ions
 #
 # Projectile: positron
 # Kinetic energy = 1.75000E+06 eV = 6.43113E+04 a.u.
 #
 # WARNING: High-energy factorization with free-atom DF screening.
 #          Absorption, polarization and exchange corrections are
 #          switched off.
 #          Phase shifts are calculated for the bare nucleus.
 #          Scattering amplitudes are not evaluated.
 #
 # Element: Co,  Z =  27,  atomic weight = 5.89332E+01 g/mol
 #
 # Nuclear model: Fermi distribution
 #                Average radius = 4.16393E-13 cm
 #                Skin thickness = 5.46000E-14 cm
 #
 # Number of electrons = 27
 #
 # Total elastic cross section = 2.06850E-18 cm**2 = 7.38674E-02 a0**2
 # 1st transport cross section = 1.85343E-22 cm**2 = 6.61872E-06 a0**2
 # 2nd transport cross section = 5.27941E-22 cm**2 = 1.88531E-05 a0**2
 #
 #
 # Differential cross section:                       MU=(1-COS(THETA))/2
 #
 #  THETA        MU          DCS          DCS        Sherman      error
 #  (deg)                 (cm**2/sr)   (a0**2/sr)    function
 #----------------------------------------------------------------------
0.00000E+00 9.09246E-14
7.61557E-13 9.09244E-14
1.18994E-12 9.09243E-14
1.71346E-12 9.09242E-14
2.33225E-12 9.09241E-14
3.04617E-12 9.09240E-14
3.85530E-12 9.09238E-14
4.75964E-12 9.09237E-14
5.75917E-12 9.09235E-14
6.85391E-12 9.09233E-14
8.04379E-12 9.09231E-14
9.32893E-12 9.09229E-14
1.07092E-11 9.09226E-14
1.21847E-11 9.09224E-14
1.37554E-11 9.09221E-14
1.54213E-11 9.09218E-14
1.71823E-11 9.09215E-14
1.90386E-11 9.09212E-14
2.09900E-11 9.09209E-14
2.30367E-11 9.09205E-14
2.51785E-11 9.09202E-14
2.74156E-11 9.09198E-14
2.97478E-11 9.09194E-14
3.21752E-11 9.09190E-14
3.46979E-11 9.09186E-14
3.73157E-11 9.09182E-14
4.00286E-11 9.09177E-14
4.28368E-11 9.09172E-14
4.57402E-11 9.09168E-14
4.87388E-11 9.09163E-14
5.18325E-11 9.09157E-14
5.50215E-11 9.09152E-14
5.83057E-11 9.09147E-14
6.16850E-11 9.09141E-14
6.51595E-11 9.09135E-14
6.87293E-11 9.09129E-14
7.23943E-11 9.09123E-14
7.61544E-11 9.09117E-14
1.18991E-10 9.09047E-14
1.71347E-10 9.08961E-14
2.33223E-10 9.08859E-14
3.04617E-10 9.08743E-14
3.85531E-10 9.08611E-14
4.75965E-10 9.08464E-14
5.75917E-10 9.08301E-14
6.85389E-10 9.08123E-14
8.04380E-10 9.07930E-14
9.32891E-10 9.07722E-14
1.07092E-09 9.07498E-14
1.21847E-09 9.07260E-14
1.37554E-09 9.07006E-14
1.54213E-09 9.06737E-14
1.71823E-09 9.06452E-14
1.90386E-09 9.06153E-14
2.09900E-09 9.05838E-14
2.30367E-09 9.05509E-14
2.51785E-09 9.05164E-14
2.74156E-09 9.04804E-14
2.97478E-09 9.04430E-14
3.21752E-09 9.04040E-14
3.46978E-09 9.03635E-14
3.73156E-09 9.03216E-14
4.00286E-09 9.02781E-14
4.28368E-09 9.02332E-14
4.57402E-09 9.01868E-14
4.87388E-09 9.01389E-14
5.18326E-09 9.00896E-14
5.50215E-09 9.00388E-14
5.83057E-09 8.99865E-14
6.16850E-09 8.99327E-14
6.51596E-09 8.98775E-14
6.87293E-09 8.98209E-14
7.23942E-09 8.97628E-14
7.61544E-09 8.97033E-14
1.18991E-08 8.90297E-14
1.71347E-08 8.82180E-14
2.33223E-08 8.72744E-14
3.04617E-08 8.62062E-14
3.85531E-08 8.50214E-14
4.75965E-08 8.37283E-14
5.75917E-08 8.23296E-14
6.85389E-08 8.08517E-14
8.04380E-08 7.92900E-14
9.32891E-08 7.76577E-14
1.07092E-07 7.59774E-14
1.21847E-07 7.42282E-14
1.37554E-07 7.24538E-14
1.54213E-07 7.06420E-14
1.71823E-07 6.88069E-14
1.90386E-07 6.69716E-14
2.09900E-07 6.51086E-14
2.30367E-07 6.32637E-14
2.51785E-07 6.14196E-14
2.74156E-07 5.95890E-14
2.97478E-07 5.77906E-14
3.21752E-07 5.59968E-14
3.46978E-07 5.42474E-14
3.73156E-07 5.25235E-14
4.00286E-07 5.08353E-14
4.28368E-07 4.91958E-14
4.57402E-07 4.75807E-14
4.87388E-07 4.60207E-14
5.18325E-07 4.44983E-14
5.50215E-07 4.30209E-14
5.83057E-07 4.15963E-14
6.16850E-07 4.02051E-14
6.51596E-07 3.88692E-14
6.87293E-07 3.75736E-14
7.23942E-07 3.63235E-14
7.61543E-07 3.51231E-14
1.18991E-06 2.52965E-14
1.71347E-06 1.86729E-14
2.33223E-06 1.41566E-14
3.04617E-06 1.09813E-14
3.85531E-06 8.67168E-15
4.75964E-06 6.93515E-15
5.75916E-06 5.53278E-15
6.85388E-06 4.53407E-15
8.04378E-06 3.71990E-15
9.32888E-06 3.05897E-15
1.07092E-05 2.55910E-15
1.21846E-05 2.11455E-15
1.37553E-05 1.77370E-15
1.54212E-05 1.49021E-15
1.71822E-05 1.25548E-15
1.90385E-05 1.06836E-15
2.09899E-05 9.06589E-16
2.30365E-05 7.76298E-16
2.51783E-05 6.66926E-16
2.74153E-05 5.75190E-16
2.97475E-05 4.99334E-16
3.21749E-05 4.34260E-16
3.46974E-05 3.79941E-16
3.73152E-05 3.33708E-16
4.00281E-05 2.94283E-16
4.28362E-05 2.60738E-16
4.57395E-05 2.31723E-16
4.87380E-05 2.06815E-16
5.18317E-05 1.85208E-16
5.50205E-05 1.66420E-16
5.83045E-05 1.50061E-16
6.16838E-05 1.35676E-16
6.51582E-05 1.23068E-16
6.87277E-05 1.11924E-16
7.23925E-05 1.02058E-16
7.61524E-05 9.33109E-17
9.21439E-05 6.65927E-17
1.09658E-04 4.89602E-17
1.28695E-04 3.68566E-17
1.49255E-04 2.82718E-17
1.71338E-04 2.20456E-17
1.94942E-04 1.74209E-17
2.20070E-04 1.39328E-17
2.46720E-04 1.12619E-17
2.74892E-04 9.18906E-18
3.04586E-04 7.56565E-18
3.35803E-04 6.27955E-18
3.68542E-04 5.25216E-18
4.02802E-04 4.42418E-18
4.38585E-04 3.75114E-18
4.75889E-04 3.20032E-18
5.14715E-04 2.74545E-18
5.55063E-04 2.36950E-18
5.96931E-04 2.05523E-18
6.40321E-04 1.79116E-18
6.85233E-04 1.56850E-18
7.31665E-04 1.37893E-18
7.79618E-04 1.21743E-18
8.29092E-04 1.07885E-18
8.80086E-04 9.59466E-19
9.32601E-04 8.56274E-19
9.86636E-04 7.66498E-19
1.04219E-03 6.88294E-19
1.09927E-03 6.19807E-19
1.15786E-03 5.59655E-19
1.21797E-03 5.06679E-19
1.27961E-03 4.59788E-19
1.34276E-03 4.18250E-19
1.40743E-03 3.81286E-19
1.47362E-03 3.48327E-19
1.54133E-03 3.18878E-19
1.61056E-03 2.92452E-19
1.68131E-03 2.68733E-19
1.75357E-03 2.47359E-19
1.82735E-03 2.28071E-19
1.90265E-03 2.10638E-19
1.97947E-03 1.94822E-19
2.05780E-03 1.80477E-19
2.13765E-03 1.67418E-19
2.21902E-03 1.55521E-19
2.30190E-03 1.44666E-19
2.38630E-03 1.34731E-19
2.47222E-03 1.25641E-19
2.55965E-03 1.17298E-19
2.64859E-03 1.09636E-19
2.73905E-03 1.02592E-19
2.83103E-03 9.60969E-20
2.92452E-03 9.01115E-20
3.01952E-03 8.45805E-20
3.11604E-03 7.94670E-20
3.21407E-03 7.47349E-20
3.31362E-03 7.03451E-20
3.41468E-03 6.62749E-20
3.51725E-03 6.24918E-20
3.62133E-03 5.89744E-20
3.72692E-03 5.57012E-20
3.83403E-03 5.26490E-20
3.94265E-03 4.98040E-20
4.05278E-03 4.71466E-20
4.16442E-03 4.46637E-20
4.27757E-03 4.23421E-20
4.39223E-03 4.01674E-20
4.50840E-03 3.81312E-20
4.62608E-03 3.62209E-20
4.74527E-03 3.44285E-20
4.86597E-03 3.27455E-20
4.98817E-03 3.11628E-20
5.11188E-03 2.96749E-20
5.23711E-03 2.82738E-20
5.36383E-03 2.69542E-20
5.49207E-03 2.57105E-20
5.62181E-03 2.45369E-20
5.75306E-03 2.34297E-20
5.88581E-03 2.23836E-20
6.02007E-03 2.13950E-20
6.15583E-03 2.04603E-20
6.29310E-03 1.95755E-20
6.43187E-03 1.87380E-20
6.57214E-03 1.79445E-20
6.71392E-03 1.71923E-20
6.85720E-03 1.64791E-20
7.00198E-03 1.58020E-20
7.14827E-03 1.51594E-20
7.29605E-03 1.45488E-20
7.44534E-03 1.39686E-20
7.59612E-03 1.34169E-20
7.97965E-03 1.21515E-20
8.37255E-03 1.10310E-20
8.77480E-03 1.00362E-20
9.18641E-03 9.15047E-21
9.60736E-03 8.35983E-21
1.00376E-02 7.65233E-21
1.04773E-02 7.01774E-21
1.09262E-02 6.44725E-21
1.13844E-02 5.93327E-21
1.18520E-02 5.46923E-21
1.23288E-02 5.04944E-21
1.28150E-02 4.66895E-21
1.33104E-02 4.32345E-21
1.38150E-02 4.00914E-21
1.43290E-02 3.72273E-21
1.48521E-02 3.46131E-21
1.53845E-02 3.22230E-21
1.59262E-02 3.00346E-21
1.64770E-02 2.80278E-21
1.70371E-02 2.61849E-21
1.76063E-02 2.44901E-21
1.81848E-02 2.29295E-21
1.87724E-02 2.14905E-21
1.93692E-02 2.01619E-21
1.99751E-02 1.89338E-21
2.05901E-02 1.77973E-21
2.12143E-02 1.67442E-21
2.18476E-02 1.57674E-21
2.24900E-02 1.48604E-21
2.31415E-02 1.40173E-21
2.38021E-02 1.32327E-21
2.44717E-02 1.25019E-21
2.51504E-02 1.18205E-21
2.58382E-02 1.11846E-21
2.65349E-02 1.05907E-21
2.72407E-02 1.00353E-21
2.79555E-02 9.51570E-22
2.86793E-02 9.02902E-22
2.94120E-02 8.57285E-22
3.01537E-02 8.14492E-22
3.09043E-02 7.74318E-22
3.16639E-02 7.36572E-22
3.24324E-02 7.01082E-22
3.32098E-02 6.67689E-22
3.39961E-02 6.36245E-22
3.47912E-02 6.06617E-22
3.55952E-02 5.78680E-22
3.64081E-02 5.52322E-22
3.72297E-02 5.27435E-22
3.80602E-02 5.03923E-22
3.88995E-02 4.81697E-22
3.97476E-02 4.60673E-22
4.06044E-02 4.40774E-22
4.14700E-02 4.21930E-22
4.23443E-02 4.04073E-22
4.32273E-02 3.87143E-22
4.41190E-02 3.71084E-22
4.50194E-02 3.55841E-22
4.59284E-02 3.41367E-22
4.68461E-02 3.27614E-22
4.87074E-02 3.02108E-22
5.06030E-02 2.79016E-22
5.25328E-02 2.58069E-22
5.44967E-02 2.39035E-22
5.64946E-02 2.21707E-22
5.85262E-02 2.05908E-22
6.05914E-02 1.91477E-22
6.26901E-02 1.78277E-22
6.48222E-02 1.66184E-22
6.69873E-02 1.55089E-22
6.91854E-02 1.44895E-22
7.14163E-02 1.35517E-22
7.36799E-02 1.26877E-22
7.59760E-02 1.18907E-22
7.83043E-02 1.11546E-22
8.06647E-02 1.04740E-22
8.30571E-02 9.84394E-23
8.54812E-02 9.25997E-23
8.79369E-02 8.71816E-23
9.04240E-02 8.21492E-23
9.29422E-02 7.74702E-23
9.54915E-02 7.31154E-23
9.80716E-02 6.90584E-23
1.00682E-01 6.52753E-23
1.03323E-01 6.17442E-23
1.05995E-01 5.84454E-23
1.08696E-01 5.53610E-23
1.11427E-01 5.24745E-23
1.14188E-01 4.97710E-23
1.16978E-01 4.72368E-23
1.19797E-01 4.48594E-23
1.22645E-01 4.26275E-23
1.25522E-01 4.05305E-23
1.28428E-01 3.85588E-23
1.31361E-01 3.67037E-23
1.34323E-01 3.49569E-23
1.37313E-01 3.33111E-23
1.40330E-01 3.17594E-23
1.43375E-01 3.02954E-23
1.46447E-01 2.89133E-23
1.49545E-01 2.76078E-23
1.52671E-01 2.63737E-23
1.55823E-01 2.52066E-23
1.59001E-01 2.41020E-23
1.62205E-01 2.30562E-23
1.65435E-01 2.20654E-23
1.68690E-01 2.11261E-23
1.71970E-01 2.02353E-23
1.75276E-01 1.93900E-23
1.78606E-01 1.85874E-23
1.81961E-01 1.78250E-23
1.85340E-01 1.71005E-23
1.88743E-01 1.64116E-23
1.92169E-01 1.57562E-23
1.95619E-01 1.51325E-23
1.99092E-01 1.45387E-23
2.02589E-01 1.39729E-23
2.06107E-01 1.34338E-23
2.09649E-01 1.29198E-23
2.13212E-01 1.24295E-23
2.16797E-01 1.19616E-23
2.20404E-01 1.15150E-23
2.24032E-01 1.10885E-23
2.27680E-01 1.06811E-23
2.31350E-01 1.02916E-23
2.35040E-01 9.91927E-24
2.38751E-01 9.56314E-24
2.42481E-01 9.22239E-24
2.46231E-01 8.89624E-24
2.50000E-01 8.58396E-24
2.53788E-01 8.28484E-24
2.57595E-01 7.99824E-24
2.61421E-01 7.72353E-24
2.65264E-01 7.46015E-24
2.69126E-01 7.20753E-24
2.73005E-01 6.96517E-24
2.76901E-01 6.73256E-24
2.80814E-01 6.50926E-24
2.84744E-01 6.29482E-24
2.88691E-01 6.08883E-24
2.92653E-01 5.89089E-24
2.96632E-01 5.70065E-24
3.00625E-01 5.51773E-24
3.04634E-01 5.34182E-24
3.08658E-01 5.17260E-24
3.12697E-01 5.00977E-24
3.16749E-01 4.85304E-24
3.20816E-01 4.70215E-24
3.24896E-01 4.55684E-24
3.28990E-01 4.41686E-24
3.33097E-01 4.28200E-24
3.37216E-01 4.15202E-24
3.41348E-01 4.02673E-24
3.45492E-01 3.90591E-24
3.49647E-01 3.78940E-24
3.53814E-01 3.67699E-24
3.57992E-01 3.56853E-24
3.62181E-01 3.46386E-24
3.66381E-01 3.36281E-24
3.70590E-01 3.26524E-24
3.74810E-01 3.17101E-24
3.79039E-01 3.07998E-24
3.83277E-01 2.99203E-24
3.87524E-01 2.90704E-24
3.91780E-01 2.82489E-24
3.96044E-01 2.74546E-24
4.00316E-01 2.66866E-24
4.04596E-01 2.59437E-24
4.08882E-01 2.52251E-24
4.13176E-01 2.45298E-24
4.17476E-01 2.38569E-24
4.21783E-01 2.32056E-24
4.26095E-01 2.25750E-24
4.30413E-01 2.19644E-24
4.34737E-01 2.13731E-24
4.39065E-01 2.08003E-24
4.43398E-01 2.02454E-24
4.47736E-01 1.97076E-24
4.52077E-01 1.91865E-24
4.56422E-01 1.86813E-24
4.60770E-01 1.81916E-24
4.65122E-01 1.77167E-24
4.69476E-01 1.72561E-24
4.73832E-01 1.68094E-24
4.78190E-01 1.63760E-24
4.82550E-01 1.59555E-24
4.86912E-01 1.55474E-24
4.91274E-01 1.51513E-24
4.95637E-01 1.47668E-24
5.00000E-01 1.43935E-24
5.04363E-01 1.40311E-24
5.08726E-01 1.36790E-24
5.13088E-01 1.33371E-24
5.17450E-01 1.30049E-24
5.21810E-01 1.26822E-24
5.26168E-01 1.23686E-24
5.30524E-01 1.20638E-24
5.34878E-01 1.17676E-24
5.39230E-01 1.14796E-24
5.43578E-01 1.11996E-24
5.47923E-01 1.09273E-24
5.52264E-01 1.06625E-24
5.56602E-01 1.04050E-24
5.60935E-01 1.01545E-24
5.65263E-01 9.91075E-25
5.69587E-01 9.67361E-25
5.73905E-01 9.44284E-25
5.78217E-01 9.21824E-25
5.82524E-01 8.99962E-25
5.86824E-01 8.78681E-25
5.91118E-01 8.57961E-25
5.95404E-01 8.37787E-25
5.99684E-01 8.18142E-25
6.03956E-01 7.99009E-25
6.08220E-01 7.80373E-25
6.12476E-01 7.62219E-25
6.16723E-01 7.44532E-25
6.20961E-01 7.27300E-25
6.25190E-01 7.10508E-25
6.29410E-01 6.94143E-25
6.33619E-01 6.78194E-25
6.37819E-01 6.62647E-25
6.42008E-01 6.47492E-25
6.46186E-01 6.32717E-25
6.50353E-01 6.18310E-25
6.54508E-01 6.04263E-25
6.58652E-01 5.90563E-25
6.62784E-01 5.77202E-25
6.66903E-01 5.64169E-25
6.71010E-01 5.51457E-25
6.75104E-01 5.39055E-25
6.79184E-01 5.26954E-25
6.83251E-01 5.15148E-25
6.87303E-01 5.03627E-25
6.91342E-01 4.92384E-25
6.95366E-01 4.81411E-25
6.99375E-01 4.70701E-25
7.03368E-01 4.60246E-25
7.07347E-01 4.50040E-25
7.11309E-01 4.40076E-25
7.15256E-01 4.30348E-25
7.19186E-01 4.20849E-25
7.23099E-01 4.11574E-25
7.26995E-01 4.02515E-25
7.30874E-01 3.93669E-25
7.34736E-01 3.85028E-25
7.38579E-01 3.76589E-25
7.42405E-01 3.68345E-25
7.46212E-01 3.60291E-25
7.50000E-01 3.52423E-25
7.53769E-01 3.44736E-25
7.57519E-01 3.37225E-25
7.61249E-01 3.29886E-25
7.64960E-01 3.22715E-25
7.68650E-01 3.15707E-25
7.72320E-01 3.08858E-25
7.75968E-01 3.02164E-25
7.79596E-01 2.95622E-25
7.83203E-01 2.89227E-25
7.86788E-01 2.82977E-25
7.90351E-01 2.76867E-25
7.93893E-01 2.70894E-25
7.97411E-01 2.65054E-25
8.00908E-01 2.59346E-25
8.04381E-01 2.53765E-25
8.07831E-01 2.48308E-25
8.11257E-01 2.42973E-25
8.14660E-01 2.37756E-25
8.18039E-01 2.32655E-25
8.21394E-01 2.27668E-25
8.24724E-01 2.22790E-25
8.28030E-01 2.18021E-25
8.31310E-01 2.13357E-25
8.34565E-01 2.08796E-25
8.37795E-01 2.04336E-25
8.40999E-01 1.99974E-25
8.44177E-01 1.95708E-25
8.47329E-01 1.91537E-25
8.50455E-01 1.87457E-25
8.53553E-01 1.83467E-25
8.56625E-01 1.79565E-25
8.59670E-01 1.75749E-25
8.62687E-01 1.72017E-25
8.65677E-01 1.68367E-25
8.68639E-01 1.64797E-25
8.71572E-01 1.61307E-25
8.74478E-01 1.57893E-25
8.77355E-01 1.54555E-25
8.80203E-01 1.51291E-25
8.83022E-01 1.48099E-25
8.85812E-01 1.44978E-25
8.88573E-01 1.41927E-25
8.91304E-01 1.38943E-25
8.94005E-01 1.36025E-25
8.96677E-01 1.33173E-25
8.99318E-01 1.30385E-25
9.01928E-01 1.27660E-25
9.04508E-01 1.24995E-25
9.07058E-01 1.22391E-25
9.09576E-01 1.19846E-25
9.12063E-01 1.17359E-25
9.14519E-01 1.14929E-25
9.16943E-01 1.12554E-25
9.19335E-01 1.10234E-25
9.21696E-01 1.07967E-25
9.24024E-01 1.05753E-25
9.26320E-01 1.03591E-25
9.28584E-01 1.01479E-25
9.30815E-01 9.94176E-26
9.33013E-01 9.74046E-26
9.35178E-01 9.54397E-26
9.37310E-01 9.35219E-26
9.39409E-01 9.16506E-26
9.41474E-01 8.98248E-26
9.43505E-01 8.80438E-26
9.45503E-01 8.63069E-26
9.47467E-01 8.46133E-26
9.49397E-01 8.29623E-26
9.51293E-01 8.13533E-26
9.53154E-01 7.97855E-26
9.54981E-01 7.82583E-26
9.56773E-01 7.67712E-26
9.58530E-01 7.53234E-26
9.60252E-01 7.39144E-26
9.61940E-01 7.25436E-26
9.63592E-01 7.12105E-26
9.65209E-01 6.99145E-26
9.66790E-01 6.86551E-26
9.68336E-01 6.74318E-26
9.69846E-01 6.62440E-26
9.71321E-01 6.50914E-26
9.72759E-01 6.39735E-26
9.74162E-01 6.28897E-26
9.75528E-01 6.18398E-26
9.76858E-01 6.08232E-26
9.78152E-01 5.98395E-26
9.79410E-01 5.88885E-26
9.80631E-01 5.79696E-26
9.81815E-01 5.70826E-26
9.82963E-01 5.62271E-26
9.84074E-01 5.54028E-26
9.85148E-01 5.46092E-26
9.86185E-01 5.38463E-26
9.87185E-01 5.31135E-26
9.88148E-01 5.24107E-26
9.89074E-01 5.17376E-26
9.89962E-01 5.10939E-26
9.90814E-01 5.04794E-26
9.91627E-01 4.98938E-26
9.92404E-01 4.93369E-26
9.93143E-01 4.88085E-26
9.93844E-01 4.83084E-26
9.94508E-01 4.78364E-26
9.95134E-01 4.73923E-26
9.95722E-01 4.69760E-26
9.96273E-01 4.65873E-26
9.96786E-01 4.62260E-26
9.97261E-01 4.58920E-26
9.97698E-01 4.55852E-26
9.98097E-01 4.53055E-26
9.98459E-01 4.50527E-26
9.98782E-01 4.48268E-26
9.99067E-01 4.46277E-26
9.99315E-01 4.44553E-26
9.99524E-01 4.43095E-26
9.99695E-01 4.41903E-26
9.99829E-01 4.40976E-26
9.99924E-01 4.40315E-26
9.99981E-01 4.39918E-26
1.00000E+00 4.39786E-26
