 #
 # Subroutine ELSEPA. Elastic scattering of electrons and positrons
 #                    by neutral atoms and positive ions
 #
 # Projectile: positron
 # Kinetic energy = 3.50000E+06 eV = 1.28623E+05 a.u.
 #
 # WARNING: High-energy factorization with free-atom DF screening.
 #          Absorption, polarization and exchange corrections are
 #          switched off.
 #          Phase shifts are calculated for the bare nucleus.
 #          Scattering amplitudes are not evaluated.
 #
 # Element: Co,  Z =  27,  atomic weight = 5.89332E+01 g/mol
 #
 # Nuclear model: Fermi distribution
 #                Average radius = 4.16393E-13 cm
 #                Skin thickness = 5.46000E-14 cm
 #
 # Number of electrons = 27
 #
 # Total elastic cross section = 1.99596E-18 cm**2 = 7.12769E-02 a0**2
 # 1st transport cross section = 6.16801E-23 cm**2 = 2.20264E-06 a0**2
 # 2nd transport cross section = 1.77101E-22 cm**2 = 6.32438E-06 a0**2
 #
 #
 # Differential cross section:                       MU=(1-COS(THETA))/2
 #
 #  THETA        MU          DCS          DCS        Sherman      error
 #  (deg)                 (cm**2/sr)   (a0**2/sr)    function
 #----------------------------------------------------------------------
0.00000E+00 2.86145E-13
7.61557E-13 2.86143E-13
1.18994E-12 2.86142E-13
1.71346E-12 2.86142E-13
2.33225E-12 2.86140E-13
3.04617E-12 2.86139E-13
3.85530E-12 2.86138E-13
4.75964E-12 2.86136E-13
5.75917E-12 2.86135E-13
6.85391E-12 2.86133E-13
8.04379E-12 2.86131E-13
9.32893E-12 2.86128E-13
1.07092E-11 2.86126E-13
1.21847E-11 2.86124E-13
1.37554E-11 2.86121E-13
1.54213E-11 2.86118E-13
1.71823E-11 2.86115E-13
1.90386E-11 2.86112E-13
2.09900E-11 2.86109E-13
2.30367E-11 2.86105E-13
2.51785E-11 2.86102E-13
2.74156E-11 2.86098E-13
2.97478E-11 2.86094E-13
3.21752E-11 2.86090E-13
3.46979E-11 2.86086E-13
3.73157E-11 2.86081E-13
4.00286E-11 2.86077E-13
4.28368E-11 2.86072E-13
4.57402E-11 2.86067E-13
4.87388E-11 2.86062E-13
5.18325E-11 2.86057E-13
5.50215E-11 2.86052E-13
5.83057E-11 2.86046E-13
6.16850E-11 2.86040E-13
6.51595E-11 2.86035E-13
6.87293E-11 2.86029E-13
7.23943E-11 2.86023E-13
7.61544E-11 2.86016E-13
1.18991E-10 2.85945E-13
1.71347E-10 2.85858E-13
2.33223E-10 2.85755E-13
3.04617E-10 2.85636E-13
3.85531E-10 2.85502E-13
4.75965E-10 2.85352E-13
5.75917E-10 2.85187E-13
6.85389E-10 2.85006E-13
8.04380E-10 2.84809E-13
9.32891E-10 2.84598E-13
1.07092E-09 2.84371E-13
1.21847E-09 2.84128E-13
1.37554E-09 2.83870E-13
1.54213E-09 2.83598E-13
1.71823E-09 2.83310E-13
1.90386E-09 2.83007E-13
2.09900E-09 2.82689E-13
2.30367E-09 2.82356E-13
2.51785E-09 2.82009E-13
2.74156E-09 2.81647E-13
2.97478E-09 2.81270E-13
3.21752E-09 2.80879E-13
3.46978E-09 2.80473E-13
3.73156E-09 2.80053E-13
4.00286E-09 2.79619E-13
4.28368E-09 2.79171E-13
4.57402E-09 2.78709E-13
4.87388E-09 2.78233E-13
5.18326E-09 2.77743E-13
5.50215E-09 2.77240E-13
5.83057E-09 2.76724E-13
6.16850E-09 2.76194E-13
6.51596E-09 2.75651E-13
6.87293E-09 2.75094E-13
7.23942E-09 2.74525E-13
7.61544E-09 2.73944E-13
1.18991E-08 2.67456E-13
1.71347E-08 2.59842E-13
2.33223E-08 2.51333E-13
3.04617E-08 2.42048E-13
3.85531E-08 2.32193E-13
4.75965E-08 2.21972E-13
5.75917E-08 2.11547E-13
6.85389E-08 2.00994E-13
8.04380E-08 1.90525E-13
9.32891E-08 1.80254E-13
1.07092E-07 1.70232E-13
1.21847E-07 1.60526E-13
1.37554E-07 1.51235E-13
1.54213E-07 1.42390E-13
1.71823E-07 1.33965E-13
1.90386E-07 1.26013E-13
2.09900E-07 1.18543E-13
2.30367E-07 1.11536E-13
2.51785E-07 1.04957E-13
2.74156E-07 9.88214E-14
2.97478E-07 9.31072E-14
3.21752E-07 8.77743E-14
3.46978E-07 8.28042E-14
3.73156E-07 7.81857E-14
4.00286E-07 7.38940E-14
4.28368E-07 6.98851E-14
4.57402E-07 6.61567E-14
4.87388E-07 6.26890E-14
5.18325E-07 5.94567E-14
5.50215E-07 5.64329E-14
5.83057E-07 5.36143E-14
6.16850E-07 5.09846E-14
6.51596E-07 4.85183E-14
6.87293E-07 4.62069E-14
7.23942E-07 4.40437E-14
7.61543E-07 4.20169E-14
1.18991E-06 2.71060E-14
1.71347E-06 1.80374E-14
2.33223E-06 1.26217E-14
3.04617E-06 8.87690E-15
3.85531E-06 6.35763E-15
4.75964E-06 4.64212E-15
5.75916E-06 3.43844E-15
6.85388E-06 2.56937E-15
8.04378E-06 1.95474E-15
9.32888E-06 1.51039E-15
1.07092E-05 1.18273E-15
1.21846E-05 9.38947E-16
1.37553E-05 7.55694E-16
1.54212E-05 6.15809E-16
1.71822E-05 5.07371E-16
1.90385E-05 4.22424E-16
2.09899E-05 3.55161E-16
2.30365E-05 3.01183E-16
2.51783E-05 2.57297E-16
2.74153E-05 2.21355E-16
2.97475E-05 1.91654E-16
3.21749E-05 1.66845E-16
3.46974E-05 1.45974E-16
3.73152E-05 1.28324E-16
4.00281E-05 1.13295E-16
4.28362E-05 1.00371E-16
4.57395E-05 8.92467E-17
4.87380E-05 7.96270E-17
5.18317E-05 7.12575E-17
5.50205E-05 6.39307E-17
5.83045E-05 5.75174E-17
6.16838E-05 5.18825E-17
6.51582E-05 4.69007E-17
6.87277E-05 4.24907E-17
7.23925E-05 3.85816E-17
7.61524E-05 3.51061E-17
9.21439E-05 2.45049E-17
1.09658E-04 1.75744E-17
1.28695E-04 1.29065E-17
1.49255E-04 9.67666E-18
1.71338E-04 7.39416E-18
1.94942E-04 5.74448E-18
2.20070E-04 4.53067E-18
2.46720E-04 3.62157E-18
2.74892E-04 2.92945E-18
3.04586E-04 2.39553E-18
3.35803E-04 1.97831E-18
3.68542E-04 1.64837E-18
4.02802E-04 1.38450E-18
4.38585E-04 1.17156E-18
4.75889E-04 9.98153E-19
5.14715E-04 8.55697E-19
5.55063E-04 7.37786E-19
5.96931E-04 6.39544E-19
6.40321E-04 5.57150E-19
6.85233E-04 4.87568E-19
7.31665E-04 4.28523E-19
7.79618E-04 3.78157E-19
8.29092E-04 3.34968E-19
8.80086E-04 2.97750E-19
9.32601E-04 2.65560E-19
9.86636E-04 2.37601E-19
1.04219E-03 2.13211E-19
1.09927E-03 1.91863E-19
1.15786E-03 1.73119E-19
1.21797E-03 1.56604E-19
1.27961E-03 1.42000E-19
1.34276E-03 1.29057E-19
1.40743E-03 1.17553E-19
1.47362E-03 1.07297E-19
1.54133E-03 9.81304E-20
1.61056E-03 8.99201E-20
1.68131E-03 8.25485E-20
1.75357E-03 7.59130E-20
1.82735E-03 6.99289E-20
1.90265E-03 6.45213E-20
1.97947E-03 5.96249E-20
2.05780E-03 5.51816E-20
2.13765E-03 5.11434E-20
2.21902E-03 4.74670E-20
2.30190E-03 4.41135E-20
2.38630E-03 4.10498E-20
2.47222E-03 3.82467E-20
2.55965E-03 3.56781E-20
2.64859E-03 3.33204E-20
2.73905E-03 3.11536E-20
2.83103E-03 2.91596E-20
2.92452E-03 2.73220E-20
3.01952E-03 2.56262E-20
3.11604E-03 2.40595E-20
3.21407E-03 2.26104E-20
3.31362E-03 2.12683E-20
3.41468E-03 2.00238E-20
3.51725E-03 1.88688E-20
3.62133E-03 1.77956E-20
3.72692E-03 1.67973E-20
3.83403E-03 1.58677E-20
3.94265E-03 1.50014E-20
4.05278E-03 1.41931E-20
4.16442E-03 1.34383E-20
4.27757E-03 1.27329E-20
4.39223E-03 1.20730E-20
4.50840E-03 1.14551E-20
4.62608E-03 1.08761E-20
4.74527E-03 1.03331E-20
4.86597E-03 9.82339E-21
4.98817E-03 9.34460E-21
5.11188E-03 8.89454E-21
5.23711E-03 8.47114E-21
5.36383E-03 8.07254E-21
5.49207E-03 7.69701E-21
5.62181E-03 7.34299E-21
5.75306E-03 7.00901E-21
5.88581E-03 6.69372E-21
6.02007E-03 6.39589E-21
6.15583E-03 6.11439E-21
6.29310E-03 5.84813E-21
6.43187E-03 5.59615E-21
6.57214E-03 5.35755E-21
6.71392E-03 5.13147E-21
6.85720E-03 4.91715E-21
7.00198E-03 4.71385E-21
7.14827E-03 4.52091E-21
7.29605E-03 4.33770E-21
7.44534E-03 4.16363E-21
7.59612E-03 3.99817E-21
7.97965E-03 3.61896E-21
8.37255E-03 3.28349E-21
8.77480E-03 2.98584E-21
9.18641E-03 2.72103E-21
9.60736E-03 2.48482E-21
1.00376E-02 2.27358E-21
1.04773E-02 2.08423E-21
1.09262E-02 1.91409E-21
1.13844E-02 1.76089E-21
1.18520E-02 1.62265E-21
1.23288E-02 1.49765E-21
1.28150E-02 1.38440E-21
1.33104E-02 1.28161E-21
1.38150E-02 1.18813E-21
1.43290E-02 1.10298E-21
1.48521E-02 1.02529E-21
1.53845E-02 9.54283E-22
1.59262E-02 8.89288E-22
1.64770E-02 8.29703E-22
1.70371E-02 7.75000E-22
1.76063E-02 7.24708E-22
1.81848E-02 6.78407E-22
1.87724E-02 6.35725E-22
1.93692E-02 5.96328E-22
1.99751E-02 5.59919E-22
2.05901E-02 5.26230E-22
2.12143E-02 4.95022E-22
2.18476E-02 4.66080E-22
2.24900E-02 4.39210E-22
2.31415E-02 4.14236E-22
2.38021E-02 3.91001E-22
2.44717E-02 3.69362E-22
2.51504E-02 3.49190E-22
2.58382E-02 3.30367E-22
2.65349E-02 3.12788E-22
2.72407E-02 2.96354E-22
2.79555E-02 2.80978E-22
2.86793E-02 2.66579E-22
2.94120E-02 2.53085E-22
3.01537E-02 2.40427E-22
3.09043E-02 2.28546E-22
3.16639E-02 2.17384E-22
3.24324E-02 2.06890E-22
3.32098E-02 1.97017E-22
3.39961E-02 1.87721E-22
3.47912E-02 1.78963E-22
3.55952E-02 1.70706E-22
3.64081E-02 1.62916E-22
3.72297E-02 1.55561E-22
3.80602E-02 1.48614E-22
3.88995E-02 1.42047E-22
3.97476E-02 1.35835E-22
4.06044E-02 1.29957E-22
4.14700E-02 1.24390E-22
4.23443E-02 1.19116E-22
4.32273E-02 1.14116E-22
4.41190E-02 1.09373E-22
4.50194E-02 1.04872E-22
4.59284E-02 1.00598E-22
4.68461E-02 9.65373E-23
4.87074E-02 8.90072E-23
5.06030E-02 8.21905E-23
5.25328E-02 7.60081E-23
5.44967E-02 7.03907E-23
5.64946E-02 6.52778E-23
5.85262E-02 6.06162E-23
6.05914E-02 5.63592E-23
6.26901E-02 5.24655E-23
6.48222E-02 4.88988E-23
6.69873E-02 4.56268E-23
6.91854E-02 4.26210E-23
7.14163E-02 3.98558E-23
7.36799E-02 3.73087E-23
7.59760E-02 3.49594E-23
7.83043E-02 3.27899E-23
8.06647E-02 3.07841E-23
8.30571E-02 2.89273E-23
8.54812E-02 2.72067E-23
8.79369E-02 2.56104E-23
9.04240E-02 2.41279E-23
9.29422E-02 2.27497E-23
9.54915E-02 2.14671E-23
9.80716E-02 2.02724E-23
1.00682E-01 1.91584E-23
1.03323E-01 1.81187E-23
1.05995E-01 1.71475E-23
1.08696E-01 1.62396E-23
1.11427E-01 1.53900E-23
1.14188E-01 1.45943E-23
1.16978E-01 1.38485E-23
1.19797E-01 1.31490E-23
1.22645E-01 1.24923E-23
1.25522E-01 1.18754E-23
1.28428E-01 1.12955E-23
1.31361E-01 1.07498E-23
1.34323E-01 1.02361E-23
1.37313E-01 9.75217E-24
1.40330E-01 9.29592E-24
1.43375E-01 8.86553E-24
1.46447E-01 8.45925E-24
1.49545E-01 8.07551E-24
1.52671E-01 7.71283E-24
1.55823E-01 7.36985E-24
1.59001E-01 7.04531E-24
1.62205E-01 6.73804E-24
1.65435E-01 6.44697E-24
1.68690E-01 6.17109E-24
1.71970E-01 5.90946E-24
1.75276E-01 5.66122E-24
1.78606E-01 5.42556E-24
1.81961E-01 5.20174E-24
1.85340E-01 4.98905E-24
1.88743E-01 4.78684E-24
1.92169E-01 4.59450E-24
1.95619E-01 4.41147E-24
1.99092E-01 4.23722E-24
2.02589E-01 4.07125E-24
2.06107E-01 3.91310E-24
2.09649E-01 3.76233E-24
2.13212E-01 3.61855E-24
2.16797E-01 3.48136E-24
2.20404E-01 3.35042E-24
2.24032E-01 3.22538E-24
2.27680E-01 3.10594E-24
2.31350E-01 2.99181E-24
2.35040E-01 2.88269E-24
2.38751E-01 2.77835E-24
2.42481E-01 2.67852E-24
2.46231E-01 2.58298E-24
2.50000E-01 2.49151E-24
2.53788E-01 2.40392E-24
2.57595E-01 2.32000E-24
2.61421E-01 2.23957E-24
2.65264E-01 2.16247E-24
2.69126E-01 2.08854E-24
2.73005E-01 2.01761E-24
2.76901E-01 1.94955E-24
2.80814E-01 1.88422E-24
2.84744E-01 1.82149E-24
2.88691E-01 1.76124E-24
2.92653E-01 1.70336E-24
2.96632E-01 1.64773E-24
3.00625E-01 1.59426E-24
3.04634E-01 1.54284E-24
3.08658E-01 1.49338E-24
3.12697E-01 1.44579E-24
3.16749E-01 1.40000E-24
3.20816E-01 1.35592E-24
3.24896E-01 1.31348E-24
3.28990E-01 1.27260E-24
3.33097E-01 1.23322E-24
3.37216E-01 1.19527E-24
3.41348E-01 1.15870E-24
3.45492E-01 1.12344E-24
3.49647E-01 1.08944E-24
3.53814E-01 1.05664E-24
3.57992E-01 1.02500E-24
3.62181E-01 9.94472E-25
3.66381E-01 9.65003E-25
3.70590E-01 9.36555E-25
3.74810E-01 9.09084E-25
3.79039E-01 8.82552E-25
3.83277E-01 8.56921E-25
3.87524E-01 8.32156E-25
3.91780E-01 8.08222E-25
3.96044E-01 7.85086E-25
4.00316E-01 7.62718E-25
4.04596E-01 7.41088E-25
4.08882E-01 7.20167E-25
4.13176E-01 6.99928E-25
4.17476E-01 6.80345E-25
4.21783E-01 6.61393E-25
4.26095E-01 6.43048E-25
4.30413E-01 6.25288E-25
4.34737E-01 6.08091E-25
4.39065E-01 5.91436E-25
4.43398E-01 5.75304E-25
4.47736E-01 5.59674E-25
4.52077E-01 5.44529E-25
4.56422E-01 5.29851E-25
4.60770E-01 5.15624E-25
4.65122E-01 5.01831E-25
4.69476E-01 4.88457E-25
4.73832E-01 4.75487E-25
4.78190E-01 4.62907E-25
4.82550E-01 4.50703E-25
4.86912E-01 4.38861E-25
4.91274E-01 4.27371E-25
4.95637E-01 4.16219E-25
5.00000E-01 4.05393E-25
5.04363E-01 3.94884E-25
5.08726E-01 3.84679E-25
5.13088E-01 3.74769E-25
5.17450E-01 3.65144E-25
5.21810E-01 3.55795E-25
5.26168E-01 3.46711E-25
5.30524E-01 3.37885E-25
5.34878E-01 3.29308E-25
5.39230E-01 3.20971E-25
5.43578E-01 3.12868E-25
5.47923E-01 3.04990E-25
5.52264E-01 2.97330E-25
5.56602E-01 2.89881E-25
5.60935E-01 2.82637E-25
5.65263E-01 2.75590E-25
5.69587E-01 2.68736E-25
5.73905E-01 2.62067E-25
5.78217E-01 2.55578E-25
5.82524E-01 2.49263E-25
5.86824E-01 2.43117E-25
5.91118E-01 2.37134E-25
5.95404E-01 2.31311E-25
5.99684E-01 2.25641E-25
6.03956E-01 2.20120E-25
6.08220E-01 2.14743E-25
6.12476E-01 2.09507E-25
6.16723E-01 2.04407E-25
6.20961E-01 1.99439E-25
6.25190E-01 1.94600E-25
6.29410E-01 1.89884E-25
6.33619E-01 1.85289E-25
6.37819E-01 1.80811E-25
6.42008E-01 1.76447E-25
6.46186E-01 1.72193E-25
6.50353E-01 1.68046E-25
6.54508E-01 1.64004E-25
6.58652E-01 1.60062E-25
6.62784E-01 1.56219E-25
6.66903E-01 1.52471E-25
6.71010E-01 1.48816E-25
6.75104E-01 1.45251E-25
6.79184E-01 1.41774E-25
6.83251E-01 1.38382E-25
6.87303E-01 1.35073E-25
6.91342E-01 1.31844E-25
6.95366E-01 1.28693E-25
6.99375E-01 1.25619E-25
7.03368E-01 1.22619E-25
7.07347E-01 1.19691E-25
7.11309E-01 1.16833E-25
7.15256E-01 1.14043E-25
7.19186E-01 1.11320E-25
7.23099E-01 1.08661E-25
7.26995E-01 1.06065E-25
7.30874E-01 1.03531E-25
7.34736E-01 1.01056E-25
7.38579E-01 9.86393E-26
7.42405E-01 9.62791E-26
7.46212E-01 9.39741E-26
7.50000E-01 9.17226E-26
7.53769E-01 8.95235E-26
7.57519E-01 8.73753E-26
7.61249E-01 8.52768E-26
7.64960E-01 8.32266E-26
7.68650E-01 8.12236E-26
7.72320E-01 7.92666E-26
7.75968E-01 7.73544E-26
7.79596E-01 7.54859E-26
7.83203E-01 7.36600E-26
7.86788E-01 7.18757E-26
7.90351E-01 7.01319E-26
7.93893E-01 6.84276E-26
7.97411E-01 6.67619E-26
8.00908E-01 6.51339E-26
8.04381E-01 6.35426E-26
8.07831E-01 6.19871E-26
8.11257E-01 6.04666E-26
8.14660E-01 5.89803E-26
8.18039E-01 5.75273E-26
8.21394E-01 5.61069E-26
8.24724E-01 5.47183E-26
8.28030E-01 5.33607E-26
8.31310E-01 5.20334E-26
8.34565E-01 5.07357E-26
8.37795E-01 4.94670E-26
8.40999E-01 4.82266E-26
8.44177E-01 4.70138E-26
8.47329E-01 4.58280E-26
8.50455E-01 4.46685E-26
8.53553E-01 4.35349E-26
8.56625E-01 4.24265E-26
8.59670E-01 4.13428E-26
8.62687E-01 4.02832E-26
8.65677E-01 3.92472E-26
8.68639E-01 3.82342E-26
8.71572E-01 3.72439E-26
8.74478E-01 3.62756E-26
8.77355E-01 3.53289E-26
8.80203E-01 3.44034E-26
8.83022E-01 3.34986E-26
8.85812E-01 3.26140E-26
8.88573E-01 3.17493E-26
8.91304E-01 3.09041E-26
8.94005E-01 3.00778E-26
8.96677E-01 2.92702E-26
8.99318E-01 2.84809E-26
9.01928E-01 2.77094E-26
9.04508E-01 2.69555E-26
9.07058E-01 2.62187E-26
9.09576E-01 2.54988E-26
9.12063E-01 2.47954E-26
9.14519E-01 2.41082E-26
9.16943E-01 2.34369E-26
9.19335E-01 2.27811E-26
9.21696E-01 2.21406E-26
9.24024E-01 2.15151E-26
9.26320E-01 2.09043E-26
9.28584E-01 2.03080E-26
9.30815E-01 1.97258E-26
9.33013E-01 1.91575E-26
9.35178E-01 1.86029E-26
9.37310E-01 1.80617E-26
9.39409E-01 1.75337E-26
9.41474E-01 1.70186E-26
9.43505E-01 1.65163E-26
9.45503E-01 1.60265E-26
9.47467E-01 1.55490E-26
9.49397E-01 1.50835E-26
9.51293E-01 1.46300E-26
9.53154E-01 1.41882E-26
9.54981E-01 1.37579E-26
9.56773E-01 1.33390E-26
9.58530E-01 1.29312E-26
9.60252E-01 1.25343E-26
9.61940E-01 1.21484E-26
9.63592E-01 1.17730E-26
9.65209E-01 1.14082E-26
9.66790E-01 1.10537E-26
9.68336E-01 1.07095E-26
9.69846E-01 1.03752E-26
9.71321E-01 1.00510E-26
9.72759E-01 9.73648E-27
9.74162E-01 9.43166E-27
9.75528E-01 9.13638E-27
9.76858E-01 8.85051E-27
9.78152E-01 8.57395E-27
9.79410E-01 8.30658E-27
9.80631E-01 8.04830E-27
9.81815E-01 7.79899E-27
9.82963E-01 7.55856E-27
9.84074E-01 7.32691E-27
9.85148E-01 7.10396E-27
9.86185E-01 6.88960E-27
9.87185E-01 6.68375E-27
9.88148E-01 6.48634E-27
9.89074E-01 6.29728E-27
9.89962E-01 6.11650E-27
9.90814E-01 5.94393E-27
9.91627E-01 5.77950E-27
9.92404E-01 5.62313E-27
9.93143E-01 5.47478E-27
9.93844E-01 5.33439E-27
9.94508E-01 5.20189E-27
9.95134E-01 5.07724E-27
9.95722E-01 4.96038E-27
9.96273E-01 4.85128E-27
9.96786E-01 4.74988E-27
9.97261E-01 4.65616E-27
9.97698E-01 4.57006E-27
9.98097E-01 4.49157E-27
9.98459E-01 4.42064E-27
9.98782E-01 4.35725E-27
9.99067E-01 4.30138E-27
9.99315E-01 4.25300E-27
9.99524E-01 4.21209E-27
9.99695E-01 4.17865E-27
9.99829E-01 4.15265E-27
9.99924E-01 4.13408E-27
9.99981E-01 4.12295E-27
1.00000E+00 4.11924E-27
