 #
 # Subroutine ELSEPA. Elastic scattering of electrons and positrons
 #                    by neutral atoms and positive ions
 #
 # Projectile: positron
 # Kinetic energy = 6.00000E+07 eV = 2.20496E+06 a.u.
 #
 # WARNING: High-energy factorization with free-atom DF screening.
 #          Absorption, polarization and exchange corrections are
 #          switched off.
 #          Phase shifts are calculated for the bare nucleus.
 #          Scattering amplitudes are not evaluated.
 #
 # Element: Ru,  Z =  44,  atomic weight = 1.01070E+02 g/mol
 #
 # Nuclear model: Fermi distribution
 #                Average radius = 4.98415E-13 cm
 #                Skin thickness = 5.46000E-14 cm
 #
 # Number of electrons = 44
 #
 # Total elastic cross section = 4.16806E-18 cm**2 = 1.48844E-01 a0**2
 # 1st transport cross section = 9.93936E-25 cm**2 = 3.54941E-08 a0**2
 # 2nd transport cross section = 2.92715E-24 cm**2 = 1.04530E-07 a0**2
 #
 #
 # Differential cross section:                       MU=(1-COS(THETA))/2
 #
 #  THETA        MU          DCS          DCS        Sherman      error
 #  (deg)                 (cm**2/sr)   (a0**2/sr)    function
 #----------------------------------------------------------------------
0.00000E+00 1.24646E-10
7.61557E-13 1.24528E-10
1.18994E-12 1.24461E-10
1.71346E-12 1.24381E-10
2.33225E-12 1.24285E-10
3.04617E-12 1.24176E-10
3.85530E-12 1.24052E-10
4.75964E-12 1.23913E-10
5.75917E-12 1.23761E-10
6.85391E-12 1.23594E-10
8.04379E-12 1.23413E-10
9.32893E-12 1.23219E-10
1.07092E-11 1.23010E-10
1.21847E-11 1.22788E-10
1.37554E-11 1.22553E-10
1.54213E-11 1.22304E-10
1.71823E-11 1.22042E-10
1.90386E-11 1.21767E-10
2.09900E-11 1.21479E-10
2.30367E-11 1.21179E-10
2.51785E-11 1.20866E-10
2.74156E-11 1.20540E-10
2.97478E-11 1.20203E-10
3.21752E-11 1.19854E-10
3.46979E-11 1.19493E-10
3.73157E-11 1.19120E-10
4.00286E-11 1.18736E-10
4.28368E-11 1.18342E-10
4.57402E-11 1.17936E-10
4.87388E-11 1.17520E-10
5.18325E-11 1.17094E-10
5.50215E-11 1.16657E-10
5.83057E-11 1.16211E-10
6.16850E-11 1.15755E-10
6.51595E-11 1.15287E-10
6.87293E-11 1.14810E-10
7.23943E-11 1.14325E-10
7.61544E-11 1.13833E-10
1.18991E-10 1.08495E-10
1.71347E-10 1.02582E-10
2.33223E-10 9.63380E-11
3.04617E-10 8.99784E-11
3.85531E-10 8.36772E-11
4.75965E-10 7.75623E-11
5.75917E-10 7.17192E-11
6.85389E-10 6.62142E-11
8.04380E-10 6.10769E-11
9.32891E-10 5.63159E-11
1.07092E-09 5.19257E-11
1.21847E-09 4.78909E-11
1.37554E-09 4.41909E-11
1.54213E-09 4.08018E-11
1.71823E-09 3.76994E-11
1.90386E-09 3.48551E-11
2.09900E-09 3.22472E-11
2.30367E-09 2.98583E-11
2.51785E-09 2.76683E-11
2.74156E-09 2.56592E-11
2.97478E-09 2.38143E-11
3.21752E-09 2.21187E-11
3.46978E-09 2.05591E-11
3.73156E-09 1.91232E-11
4.00286E-09 1.78002E-11
4.28368E-09 1.65778E-11
4.57402E-09 1.54495E-11
4.87388E-09 1.44078E-11
5.18326E-09 1.34454E-11
5.50215E-09 1.25558E-11
5.83057E-09 1.17329E-11
6.16850E-09 1.09712E-11
6.51596E-09 1.02228E-11
6.87293E-09 9.52795E-12
7.23942E-09 8.89977E-12
7.61544E-09 8.33058E-12
1.18991E-08 4.55825E-12
1.71347E-08 2.66823E-12
2.33223E-08 1.66807E-12
3.04617E-08 1.10611E-12
3.85531E-08 7.70056E-13
4.75965E-08 5.56603E-13
5.75917E-08 4.13566E-13
6.85389E-08 3.13940E-13
8.04380E-08 2.42298E-13
9.32891E-08 1.89535E-13
1.07092E-07 1.49972E-13
1.21847E-07 1.19893E-13
1.37554E-07 9.67650E-14
1.54213E-07 7.88206E-14
1.71823E-07 6.47361E-14
1.90386E-07 5.36073E-14
2.09900E-07 4.47523E-14
2.30367E-07 3.76518E-14
2.51785E-07 3.19095E-14
2.74156E-07 2.72269E-14
2.97478E-07 2.33784E-14
3.21752E-07 2.01922E-14
3.46978E-07 1.75364E-14
3.73156E-07 1.53088E-14
4.00286E-07 1.34289E-14
4.28368E-07 1.18327E-14
4.57402E-07 1.04698E-14
4.87388E-07 9.29986E-15
5.18325E-07 8.29026E-15
5.50215E-07 7.41489E-15
5.83057E-07 6.65259E-15
6.16850E-07 5.98614E-15
6.51596E-07 5.39901E-15
6.87293E-07 4.88301E-15
7.23942E-07 4.42916E-15
7.61543E-07 4.02800E-15
1.18991E-06 1.72260E-15
1.71347E-06 8.51265E-16
2.33223E-06 4.66379E-16
3.04617E-06 2.76202E-16
3.85531E-06 1.73795E-16
4.75964E-06 1.14776E-16
5.75916E-06 7.88361E-17
6.85388E-06 5.59372E-17
8.04378E-06 4.07857E-17
9.32888E-06 3.04361E-17
1.07092E-05 2.31713E-17
1.21846E-05 1.79503E-17
1.37553E-05 1.41198E-17
1.54212E-05 1.12581E-17
1.71822E-05 9.08562E-18
1.90385E-05 7.41080E-18
2.09899E-05 6.10715E-18
2.30365E-05 5.07734E-18
2.51783E-05 4.25501E-18
2.74153E-05 3.59204E-18
2.97475E-05 3.05296E-18
3.21749E-05 2.61117E-18
3.46974E-05 2.24650E-18
3.73152E-05 1.94338E-18
4.00281E-05 1.68974E-18
4.28362E-05 1.47617E-18
4.57395E-05 1.29527E-18
4.87380E-05 1.14118E-18
5.18317E-05 1.00928E-18
5.50205E-05 8.95839E-19
5.83045E-05 7.97872E-19
6.16838E-05 7.12927E-19
6.51582E-05 6.38993E-19
6.87277E-05 5.74405E-19
7.23925E-05 5.17777E-19
7.61524E-05 4.67993E-19
9.21439E-05 3.19686E-19
1.09658E-04 2.25697E-19
1.28695E-04 1.63835E-19
1.49255E-04 1.21766E-19
1.71338E-04 9.23694E-20
1.94942E-04 7.13234E-20
2.20070E-04 5.59399E-20
2.46720E-04 4.44861E-20
2.74892E-04 3.58163E-20
3.04586E-04 2.91578E-20
3.35803E-04 2.39754E-20
3.68542E-04 1.98938E-20
4.02802E-04 1.66440E-20
4.38585E-04 1.40308E-20
4.75889E-04 1.19103E-20
5.14715E-04 1.01751E-20
5.55063E-04 8.74437E-21
5.96931E-04 7.55613E-21
6.40321E-04 6.56275E-21
6.85233E-04 5.72714E-21
7.31665E-04 5.02018E-21
7.79618E-04 4.41884E-21
8.29092E-04 3.90475E-21
8.80086E-04 3.46317E-21
9.32601E-04 3.08217E-21
9.86636E-04 2.75205E-21
1.04219E-03 2.46489E-21
1.09927E-03 2.21414E-21
1.15786E-03 1.99442E-21
1.21797E-03 1.80124E-21
1.27961E-03 1.63083E-21
1.34276E-03 1.48006E-21
1.40743E-03 1.34628E-21
1.47362E-03 1.22725E-21
1.54133E-03 1.12104E-21
1.61056E-03 1.02606E-21
1.68131E-03 9.40896E-22
1.75357E-03 8.64364E-22
1.82735E-03 7.95438E-22
1.90265E-03 7.33226E-22
1.97947E-03 6.76961E-22
2.05780E-03 6.25977E-22
2.13765E-03 5.79685E-22
2.21902E-03 5.37583E-22
2.30190E-03 4.99223E-22
2.38630E-03 4.64211E-22
2.47222E-03 4.32207E-22
2.55965E-03 4.02904E-22
2.64859E-03 3.76032E-22
2.73905E-03 3.51359E-22
2.83103E-03 3.28664E-22
2.92452E-03 3.07771E-22
3.01952E-03 2.88502E-22
3.11604E-03 2.70713E-22
3.21407E-03 2.54269E-22
3.31362E-03 2.39048E-22
3.41468E-03 2.24946E-22
3.51725E-03 2.11863E-22
3.62133E-03 1.99714E-22
3.72692E-03 1.88420E-22
3.83403E-03 1.77909E-22
3.94265E-03 1.68117E-22
4.05278E-03 1.58987E-22
4.16442E-03 1.50465E-22
4.27757E-03 1.42504E-22
4.39223E-03 1.35060E-22
4.50840E-03 1.28093E-22
4.62608E-03 1.21567E-22
4.74527E-03 1.15450E-22
4.86597E-03 1.09710E-22
4.98817E-03 1.04321E-22
5.11188E-03 9.92563E-23
5.23711E-03 9.44938E-23
5.36383E-03 9.00119E-23
5.49207E-03 8.57910E-23
5.62181E-03 8.18132E-23
5.75306E-03 7.80619E-23
5.88581E-03 7.45218E-23
6.02007E-03 7.11789E-23
6.15583E-03 6.80202E-23
6.29310E-03 6.50336E-23
6.43187E-03 6.22081E-23
6.57214E-03 5.95334E-23
6.71392E-03 5.69999E-23
6.85720E-03 5.45988E-23
7.00198E-03 5.23219E-23
7.14827E-03 5.01617E-23
7.29605E-03 4.81110E-23
7.44534E-03 4.61633E-23
7.59612E-03 4.43124E-23
7.97965E-03 4.00725E-23
8.37255E-03 3.63241E-23
8.77480E-03 3.30007E-23
9.18641E-03 3.00459E-23
9.60736E-03 2.74120E-23
1.00376E-02 2.50581E-23
1.04773E-02 2.29493E-23
1.09262E-02 2.10559E-23
1.13844E-02 1.93520E-23
1.18520E-02 1.78154E-23
1.23288E-02 1.64268E-23
1.28150E-02 1.51696E-23
1.33104E-02 1.40292E-23
1.38150E-02 1.29928E-23
1.43290E-02 1.20494E-23
1.48521E-02 1.11891E-23
1.53845E-02 1.04033E-23
1.59262E-02 9.68451E-24
1.64770E-02 9.02598E-24
1.70371E-02 8.42179E-24
1.76063E-02 7.86667E-24
1.81848E-02 7.35594E-24
1.87724E-02 6.88544E-24
1.93692E-02 6.45144E-24
1.99751E-02 6.05062E-24
2.05901E-02 5.68000E-24
2.12143E-02 5.33691E-24
2.18476E-02 5.01894E-24
2.24900E-02 4.72394E-24
2.31415E-02 4.44995E-24
2.38021E-02 4.19522E-24
2.44717E-02 3.95815E-24
2.51504E-02 3.73731E-24
2.58382E-02 3.53139E-24
2.65349E-02 3.33921E-24
2.72407E-02 3.15969E-24
2.79555E-02 2.99185E-24
2.86793E-02 2.83480E-24
2.94120E-02 2.68772E-24
3.01537E-02 2.54987E-24
3.09043E-02 2.42057E-24
3.16639E-02 2.29919E-24
3.24324E-02 2.18517E-24
3.32098E-02 2.07798E-24
3.39961E-02 1.97714E-24
3.47912E-02 1.88221E-24
3.55952E-02 1.79278E-24
3.64081E-02 1.70848E-24
3.72297E-02 1.62896E-24
3.80602E-02 1.55391E-24
3.88995E-02 1.48302E-24
3.97476E-02 1.41603E-24
4.06044E-02 1.35269E-24
4.14700E-02 1.29276E-24
4.23443E-02 1.23603E-24
4.32273E-02 1.18229E-24
4.41190E-02 1.13137E-24
4.50194E-02 1.08308E-24
4.59284E-02 1.03728E-24
4.68461E-02 9.93797E-25
4.87074E-02 9.13280E-25
5.06030E-02 8.40530E-25
5.25328E-02 7.74678E-25
5.44967E-02 7.14962E-25
5.64946E-02 6.60718E-25
5.85262E-02 6.11364E-25
6.05914E-02 5.66386E-25
6.26901E-02 5.25334E-25
6.48222E-02 4.87811E-25
6.69873E-02 4.53463E-25
6.91854E-02 4.21979E-25
7.14163E-02 3.93081E-25
7.36799E-02 3.66523E-25
7.59760E-02 3.42086E-25
7.83043E-02 3.19572E-25
8.06647E-02 2.98806E-25
8.30571E-02 2.79631E-25
8.54812E-02 2.61905E-25
8.79369E-02 2.45502E-25
9.04240E-02 2.30307E-25
9.29422E-02 2.16217E-25
9.54915E-02 2.03139E-25
9.80716E-02 1.90990E-25
1.00682E-01 1.79692E-25
1.03323E-01 1.69177E-25
1.05995E-01 1.59382E-25
1.08696E-01 1.50250E-25
1.11427E-01 1.41729E-25
1.14188E-01 1.33772E-25
1.16978E-01 1.26337E-25
1.19797E-01 1.19383E-25
1.22645E-01 1.12874E-25
1.25522E-01 1.06779E-25
1.28428E-01 1.01066E-25
1.31361E-01 9.57075E-26
1.34323E-01 9.06789E-26
1.37313E-01 8.59565E-26
1.40330E-01 8.15190E-26
1.43375E-01 7.73465E-26
1.46447E-01 7.34209E-26
1.49545E-01 6.97254E-26
1.52671E-01 6.62446E-26
1.55823E-01 6.29641E-26
1.59001E-01 5.98707E-26
1.62205E-01 5.69522E-26
1.65435E-01 5.41973E-26
1.68690E-01 5.15955E-26
1.71970E-01 4.91370E-26
1.75276E-01 4.68129E-26
1.78606E-01 4.46147E-26
1.81961E-01 4.25346E-26
1.85340E-01 4.05655E-26
1.88743E-01 3.87005E-26
1.92169E-01 3.69334E-26
1.95619E-01 3.52583E-26
1.99092E-01 3.36698E-26
2.02589E-01 3.21628E-26
2.06107E-01 3.07325E-26
2.09649E-01 2.93745E-26
2.13212E-01 2.80846E-26
2.16797E-01 2.68590E-26
2.20404E-01 2.56940E-26
2.24032E-01 2.45862E-26
2.27680E-01 2.35325E-26
2.31350E-01 2.25298E-26
2.35040E-01 2.15754E-26
2.38751E-01 2.06666E-26
2.42481E-01 1.98010E-26
2.46231E-01 1.89762E-26
2.50000E-01 1.81901E-26
2.53788E-01 1.74406E-26
2.57595E-01 1.67258E-26
2.61421E-01 1.60439E-26
2.65264E-01 1.53932E-26
2.69126E-01 1.47721E-26
2.73005E-01 1.41790E-26
2.76901E-01 1.36126E-26
2.80814E-01 1.30715E-26
2.84744E-01 1.25544E-26
2.88691E-01 1.20601E-26
2.92653E-01 1.15876E-26
2.96632E-01 1.11357E-26
3.00625E-01 1.07034E-26
3.04634E-01 1.02897E-26
3.08658E-01 9.89387E-27
3.12697E-01 9.51493E-27
3.16749E-01 9.15209E-27
3.20816E-01 8.80459E-27
3.24896E-01 8.47171E-27
3.28990E-01 8.15277E-27
3.33097E-01 7.84711E-27
3.37216E-01 7.55411E-27
3.41348E-01 7.27320E-27
3.45492E-01 7.00382E-27
3.49647E-01 6.74544E-27
3.53814E-01 6.49756E-27
3.57992E-01 6.25971E-27
3.62181E-01 6.03143E-27
3.66381E-01 5.81231E-27
3.70590E-01 5.60193E-27
3.74810E-01 5.39991E-27
3.79039E-01 5.20588E-27
3.83277E-01 5.01948E-27
3.87524E-01 4.84040E-27
3.91780E-01 4.66830E-27
3.96044E-01 4.50290E-27
4.00316E-01 4.34389E-27
4.04596E-01 4.19101E-27
4.08882E-01 4.04401E-27
4.13176E-01 3.90262E-27
4.17476E-01 3.76661E-27
4.21783E-01 3.63576E-27
4.26095E-01 3.50985E-27
4.30413E-01 3.38868E-27
4.34737E-01 3.27205E-27
4.39065E-01 3.15977E-27
4.43398E-01 3.05167E-27
4.47736E-01 2.94758E-27
4.52077E-01 2.84732E-27
4.56422E-01 2.75075E-27
4.60770E-01 2.65772E-27
4.65122E-01 2.56809E-27
4.69476E-01 2.48171E-27
4.73832E-01 2.39847E-27
4.78190E-01 2.31823E-27
4.82550E-01 2.24088E-27
4.86912E-01 2.16631E-27
4.91274E-01 2.09440E-27
4.95637E-01 2.02505E-27
5.00000E-01 1.95816E-27
5.04363E-01 1.89364E-27
5.08726E-01 1.83139E-27
5.13088E-01 1.77134E-27
5.17450E-01 1.71338E-27
5.21810E-01 1.65745E-27
5.26168E-01 1.60347E-27
5.30524E-01 1.55136E-27
5.34878E-01 1.50106E-27
5.39230E-01 1.45248E-27
5.43578E-01 1.40558E-27
5.47923E-01 1.36029E-27
5.52264E-01 1.31654E-27
5.56602E-01 1.27429E-27
5.60935E-01 1.23346E-27
5.65263E-01 1.19403E-27
5.69587E-01 1.15592E-27
5.73905E-01 1.11910E-27
5.78217E-01 1.08351E-27
5.82524E-01 1.04911E-27
5.86824E-01 1.01587E-27
5.91118E-01 9.83725E-28
5.95404E-01 9.52651E-28
5.99684E-01 9.22607E-28
6.03956E-01 8.93554E-28
6.08220E-01 8.65458E-28
6.12476E-01 8.38284E-28
6.16723E-01 8.12001E-28
6.20961E-01 7.86576E-28
6.25190E-01 7.61980E-28
6.29410E-01 7.38183E-28
6.33619E-01 7.15157E-28
6.37819E-01 6.92876E-28
6.42008E-01 6.71313E-28
6.46186E-01 6.50444E-28
6.50353E-01 6.30244E-28
6.54508E-01 6.10692E-28
6.58652E-01 5.91763E-28
6.62784E-01 5.73438E-28
6.66903E-01 5.55694E-28
6.71010E-01 5.38514E-28
6.75104E-01 5.21876E-28
6.79184E-01 5.05764E-28
6.83251E-01 4.90159E-28
6.87303E-01 4.75044E-28
6.91342E-01 4.60403E-28
6.95366E-01 4.46219E-28
6.99375E-01 4.32478E-28
7.03368E-01 4.19165E-28
7.07347E-01 4.06265E-28
7.11309E-01 3.93765E-28
7.15256E-01 3.81652E-28
7.19186E-01 3.69912E-28
7.23099E-01 3.58534E-28
7.26995E-01 3.47506E-28
7.30874E-01 3.36815E-28
7.34736E-01 3.26452E-28
7.38579E-01 3.16406E-28
7.42405E-01 3.06665E-28
7.46212E-01 2.97221E-28
7.50000E-01 2.88064E-28
7.53769E-01 2.79184E-28
7.57519E-01 2.70573E-28
7.61249E-01 2.62222E-28
7.64960E-01 2.54122E-28
7.68650E-01 2.46266E-28
7.72320E-01 2.38646E-28
7.75968E-01 2.31254E-28
7.79596E-01 2.24083E-28
7.83203E-01 2.17127E-28
7.86788E-01 2.10378E-28
7.90351E-01 2.03829E-28
7.93893E-01 1.97476E-28
7.97411E-01 1.91310E-28
8.00908E-01 1.85328E-28
8.04381E-01 1.79522E-28
8.07831E-01 1.73888E-28
8.11257E-01 1.68420E-28
8.14660E-01 1.63113E-28
8.18039E-01 1.57962E-28
8.21394E-01 1.52962E-28
8.24724E-01 1.48109E-28
8.28030E-01 1.43398E-28
8.31310E-01 1.38825E-28
8.34565E-01 1.34385E-28
8.37795E-01 1.30075E-28
8.40999E-01 1.25890E-28
8.44177E-01 1.21828E-28
8.47329E-01 1.17883E-28
8.50455E-01 1.14053E-28
8.53553E-01 1.10335E-28
8.56625E-01 1.06724E-28
8.59670E-01 1.03218E-28
8.62687E-01 9.98129E-29
8.65677E-01 9.65068E-29
8.68639E-01 9.32963E-29
8.71572E-01 9.01787E-29
8.74478E-01 8.71511E-29
8.77355E-01 8.42110E-29
8.80203E-01 8.13558E-29
8.83022E-01 7.85830E-29
8.85812E-01 7.58902E-29
8.88573E-01 7.32752E-29
8.91304E-01 7.07357E-29
8.94005E-01 6.82695E-29
8.96677E-01 6.58746E-29
8.99318E-01 6.35488E-29
9.01928E-01 6.12903E-29
9.04508E-01 5.90971E-29
9.07058E-01 5.69674E-29
9.09576E-01 5.48994E-29
9.12063E-01 5.28914E-29
9.14519E-01 5.09417E-29
9.16943E-01 4.90487E-29
9.19335E-01 4.72109E-29
9.21696E-01 4.54266E-29
9.24024E-01 4.36945E-29
9.26320E-01 4.20131E-29
9.28584E-01 4.03811E-29
9.30815E-01 3.87971E-29
9.33013E-01 3.72599E-29
9.35178E-01 3.57681E-29
9.37310E-01 3.43206E-29
9.39409E-01 3.29163E-29
9.41474E-01 3.15539E-29
9.43505E-01 3.02325E-29
9.45503E-01 2.89509E-29
9.47467E-01 2.77081E-29
9.49397E-01 2.65031E-29
9.51293E-01 2.53350E-29
9.53154E-01 2.42029E-29
9.54981E-01 2.31058E-29
9.56773E-01 2.20430E-29
9.58530E-01 2.10134E-29
9.60252E-01 2.00165E-29
9.61940E-01 1.90513E-29
9.63592E-01 1.81171E-29
9.65209E-01 1.72133E-29
9.66790E-01 1.63390E-29
9.68336E-01 1.54936E-29
9.69846E-01 1.46765E-29
9.71321E-01 1.38870E-29
9.72759E-01 1.31245E-29
9.74162E-01 1.23885E-29
9.75528E-01 1.16783E-29
9.76858E-01 1.09935E-29
9.78152E-01 1.03334E-29
9.79410E-01 9.69765E-30
9.80631E-01 9.08571E-30
9.81815E-01 8.49711E-30
9.82963E-01 7.93141E-30
9.84074E-01 7.38817E-30
9.85148E-01 6.86699E-30
9.86185E-01 6.36748E-30
9.87185E-01 5.88925E-30
9.88148E-01 5.43194E-30
9.89074E-01 4.99522E-30
9.89962E-01 4.57875E-30
9.90814E-01 4.18222E-30
9.91627E-01 3.80533E-30
9.92404E-01 3.44781E-30
9.93143E-01 3.10937E-30
9.93844E-01 2.78977E-30
9.94508E-01 2.48878E-30
9.95134E-01 2.20616E-30
9.95722E-01 1.94170E-30
9.96273E-01 1.69522E-30
9.96786E-01 1.46652E-30
9.97261E-01 1.25543E-30
9.97698E-01 1.06180E-30
9.98097E-01 8.85491E-31
9.98459E-01 7.26361E-31
9.98782E-01 5.84297E-31
9.99067E-01 4.59192E-31
9.99315E-01 3.50955E-31
9.99524E-01 2.59505E-31
9.99695E-01 1.84774E-31
9.99829E-01 1.26708E-31
9.99924E-01 8.52624E-32
9.99981E-01 6.04074E-32
1.00000E+00 5.21244E-32
