 #
 # Subroutine ELSEPA. Elastic scattering of electrons and positrons
 #                    by neutral atoms and positive ions
 #
 # Projectile: positron
 # Kinetic energy = 1.75000E+07 eV = 6.43113E+05 a.u.
 #
 # WARNING: High-energy factorization with free-atom DF screening.
 #          Absorption, polarization and exchange corrections are
 #          switched off.
 #          Phase shifts are calculated for the bare nucleus.
 #          Scattering amplitudes are not evaluated.
 #
 # Element: Ru,  Z =  44,  atomic weight = 1.01070E+02 g/mol
 #
 # Nuclear model: Fermi distribution
 #                Average radius = 4.98415E-13 cm
 #                Skin thickness = 5.46000E-14 cm
 #
 # Number of electrons = 44
 #
 # Total elastic cross section = 4.17021E-18 cm**2 = 1.48921E-01 a0**2
 # 1st transport cross section = 9.66438E-24 cm**2 = 3.45121E-07 a0**2
 # 2nd transport cross section = 2.80903E-23 cm**2 = 1.00312E-06 a0**2
 #
 #
 # Differential cross section:                       MU=(1-COS(THETA))/2
 #
 #  THETA        MU          DCS          DCS        Sherman      error
 #  (deg)                 (cm**2/sr)   (a0**2/sr)    function
 #----------------------------------------------------------------------
0.00000E+00 1.10429E-11
7.61557E-13 1.10420E-11
1.18994E-12 1.10415E-11
1.71346E-12 1.10408E-11
2.33225E-12 1.10401E-11
3.04617E-12 1.10392E-11
3.85530E-12 1.10382E-11
4.75964E-12 1.10371E-11
5.75917E-12 1.10359E-11
6.85391E-12 1.10346E-11
8.04379E-12 1.10331E-11
9.32893E-12 1.10316E-11
1.07092E-11 1.10299E-11
1.21847E-11 1.10281E-11
1.37554E-11 1.10262E-11
1.54213E-11 1.10242E-11
1.71823E-11 1.10220E-11
1.90386E-11 1.10198E-11
2.09900E-11 1.10174E-11
2.30367E-11 1.10150E-11
2.51785E-11 1.10124E-11
2.74156E-11 1.10097E-11
2.97478E-11 1.10069E-11
3.21752E-11 1.10039E-11
3.46979E-11 1.10009E-11
3.73157E-11 1.09977E-11
4.00286E-11 1.09945E-11
4.28368E-11 1.09911E-11
4.57402E-11 1.09876E-11
4.87388E-11 1.09840E-11
5.18325E-11 1.09803E-11
5.50215E-11 1.09765E-11
5.83057E-11 1.09725E-11
6.16850E-11 1.09685E-11
6.51595E-11 1.09643E-11
6.87293E-11 1.09601E-11
7.23943E-11 1.09557E-11
7.61544E-11 1.09512E-11
1.18991E-10 1.09003E-11
1.71347E-10 1.08387E-11
2.33223E-10 1.07668E-11
3.04617E-10 1.06849E-11
3.85531E-10 1.05935E-11
4.75965E-10 1.04930E-11
5.75917E-10 1.03840E-11
6.85389E-10 1.02671E-11
8.04380E-10 1.01423E-11
9.32891E-10 1.00110E-11
1.07092E-09 9.87411E-12
1.21847E-09 9.73075E-12
1.37554E-09 9.58259E-12
1.54213E-09 9.43080E-12
1.71823E-09 9.27423E-12
1.90386E-09 9.11456E-12
2.09900E-09 8.95312E-12
2.30367E-09 8.78854E-12
2.51785E-09 8.62235E-12
2.74156E-09 8.45602E-12
2.97478E-09 8.28807E-12
3.21752E-09 8.11971E-12
3.46978E-09 7.95258E-12
3.73156E-09 7.78512E-12
4.00286E-09 7.61819E-12
4.28368E-09 7.45355E-12
4.57402E-09 7.28965E-12
4.87388E-09 7.12693E-12
5.18326E-09 6.96728E-12
5.50215E-09 6.80920E-12
5.83057E-09 6.65271E-12
6.16850E-09 6.49983E-12
6.51596E-09 6.34913E-12
6.87293E-09 6.20023E-12
7.23942E-09 6.05525E-12
7.61544E-09 5.91289E-12
1.18991E-08 4.64624E-12
1.71347E-08 3.65695E-12
2.33223E-08 2.89535E-12
3.04617E-08 2.30706E-12
3.85531E-08 1.85074E-12
4.75965E-08 1.49426E-12
5.75917E-08 1.21361E-12
6.85389E-08 9.91237E-13
8.04380E-08 8.05559E-13
9.32891E-08 6.64402E-13
1.07092E-07 5.57427E-13
1.21847E-07 4.64961E-13
1.37554E-07 3.90651E-13
1.54213E-07 3.32409E-13
1.71823E-07 2.82930E-13
1.90386E-07 2.42254E-13
2.09900E-07 2.09438E-13
2.30367E-07 1.81622E-13
2.51785E-07 1.58326E-13
2.74156E-07 1.39064E-13
2.97478E-07 1.22600E-13
3.21752E-07 1.08568E-13
3.46978E-07 9.67263E-14
3.73156E-07 8.64639E-14
4.00286E-07 7.75632E-14
4.28368E-07 6.99253E-14
4.57402E-07 6.32076E-14
4.87388E-07 5.72806E-14
5.18325E-07 5.21245E-14
5.50215E-07 4.75305E-14
5.83057E-07 4.34125E-14
6.16850E-07 3.97898E-14
6.51596E-07 3.65298E-14
6.87293E-07 3.35672E-14
7.23942E-07 3.09368E-14
7.61543E-07 2.85530E-14
1.18991E-06 1.36602E-14
1.71347E-06 7.18794E-15
2.33223E-06 4.08478E-15
3.04617E-06 2.48528E-15
3.85531E-06 1.60056E-15
4.75964E-06 1.07981E-15
5.75916E-06 7.56520E-16
6.85388E-06 5.46239E-16
8.04378E-06 4.04129E-16
9.32888E-06 3.05517E-16
1.07092E-05 2.35173E-16
1.21846E-05 1.83871E-16
1.37553E-05 1.45732E-16
1.54212E-05 1.16896E-16
1.71822E-05 9.48228E-17
1.90385E-05 7.76832E-17
2.09899E-05 6.42598E-17
2.30365E-05 5.35996E-17
2.51783E-05 4.50442E-17
2.74153E-05 3.81207E-17
2.97475E-05 3.24742E-17
3.21749E-05 2.78344E-17
3.46974E-05 2.39950E-17
3.73152E-05 2.07964E-17
4.00281E-05 1.81140E-17
4.28362E-05 1.58513E-17
4.57395E-05 1.39315E-17
4.87380E-05 1.22936E-17
5.18317E-05 1.08894E-17
5.50205E-05 9.67973E-18
5.83045E-05 8.63344E-18
6.16838E-05 7.72499E-18
6.51582E-05 6.93323E-18
6.87277E-05 6.24064E-18
7.23925E-05 5.63259E-18
7.61524E-05 5.09685E-18
9.21439E-05 3.49751E-18
1.09658E-04 2.47902E-18
1.28695E-04 1.80576E-18
1.49255E-04 1.34611E-18
1.71338E-04 1.02376E-18
1.94942E-04 7.92251E-19
2.20070E-04 6.22566E-19
2.46720E-04 4.95914E-19
2.74892E-04 3.99837E-19
3.04586E-04 3.25910E-19
3.35803E-04 2.68274E-19
3.68542E-04 2.22814E-19
4.02802E-04 1.86570E-19
4.38585E-04 1.57392E-19
4.75889E-04 1.33691E-19
5.14715E-04 1.14280E-19
5.55063E-04 9.82605E-20
5.96931E-04 8.49468E-20
6.40321E-04 7.38092E-20
6.85233E-04 6.44350E-20
7.31665E-04 5.64997E-20
7.79618E-04 4.97471E-20
8.29092E-04 4.39714E-20
8.80086E-04 3.90086E-20
9.32601E-04 3.47251E-20
9.86636E-04 3.10124E-20
1.04219E-03 2.77818E-20
1.09927E-03 2.49603E-20
1.15786E-03 2.24872E-20
1.21797E-03 2.03122E-20
1.27961E-03 1.83933E-20
1.34276E-03 1.66953E-20
1.40743E-03 1.51883E-20
1.47362E-03 1.38471E-20
1.54133E-03 1.26504E-20
1.61056E-03 1.15799E-20
1.68131E-03 1.06199E-20
1.75357E-03 9.75718E-21
1.82735E-03 8.98006E-21
1.90265E-03 8.27858E-21
1.97947E-03 7.64410E-21
2.05780E-03 7.06907E-21
2.13765E-03 6.54696E-21
2.21902E-03 6.07204E-21
2.30190E-03 5.63928E-21
2.38630E-03 5.24429E-21
2.47222E-03 4.88318E-21
2.55965E-03 4.55252E-21
2.64859E-03 4.24930E-21
2.73905E-03 3.97082E-21
2.83103E-03 3.71472E-21
2.92452E-03 3.47887E-21
3.01952E-03 3.26138E-21
3.11604E-03 3.06057E-21
3.21407E-03 2.87492E-21
3.31362E-03 2.70309E-21
3.41468E-03 2.54387E-21
3.51725E-03 2.39615E-21
3.62133E-03 2.25897E-21
3.72692E-03 2.13142E-21
3.83403E-03 2.01272E-21
3.94265E-03 1.90214E-21
4.05278E-03 1.79902E-21
4.16442E-03 1.70277E-21
4.27757E-03 1.61285E-21
4.39223E-03 1.52876E-21
4.50840E-03 1.45005E-21
4.62608E-03 1.37633E-21
4.74527E-03 1.30721E-21
4.86597E-03 1.24237E-21
4.98817E-03 1.18147E-21
5.11188E-03 1.12425E-21
5.23711E-03 1.07043E-21
5.36383E-03 1.01978E-21
5.49207E-03 9.72083E-22
5.62181E-03 9.27127E-22
5.75306E-03 8.84727E-22
5.88581E-03 8.44713E-22
6.02007E-03 8.06926E-22
6.15583E-03 7.71217E-22
6.29310E-03 7.37454E-22
6.43187E-03 7.05509E-22
6.57214E-03 6.75268E-22
6.71392E-03 6.46622E-22
6.85720E-03 6.19471E-22
7.00198E-03 5.93724E-22
7.14827E-03 5.69293E-22
7.29605E-03 5.46100E-22
7.44534E-03 5.24070E-22
7.59612E-03 5.03134E-22
7.97965E-03 4.55169E-22
8.37255E-03 4.12758E-22
8.77480E-03 3.75150E-22
9.18641E-03 3.41706E-22
9.60736E-03 3.11888E-22
1.00376E-02 2.85236E-22
1.04773E-02 2.61355E-22
1.09262E-02 2.39907E-22
1.13844E-02 2.20602E-22
1.18520E-02 2.03190E-22
1.23288E-02 1.87452E-22
1.28150E-02 1.73199E-22
1.33104E-02 1.60266E-22
1.38150E-02 1.48512E-22
1.43290E-02 1.37808E-22
1.48521E-02 1.28044E-22
1.53845E-02 1.19125E-22
1.59262E-02 1.10964E-22
1.64770E-02 1.03485E-22
1.70371E-02 9.66202E-23
1.76063E-02 9.03118E-23
1.81848E-02 8.45063E-23
1.87724E-02 7.91562E-23
1.93692E-02 7.42195E-23
1.99751E-02 6.96588E-23
2.05901E-02 6.54405E-23
2.12143E-02 6.15340E-23
2.18476E-02 5.79122E-23
2.24900E-02 5.45509E-23
2.31415E-02 5.14280E-23
2.38021E-02 4.85234E-23
2.44717E-02 4.58191E-23
2.51504E-02 4.32991E-23
2.58382E-02 4.09485E-23
2.65349E-02 3.87536E-23
2.72407E-02 3.67025E-23
2.79555E-02 3.47842E-23
2.86793E-02 3.29883E-23
2.94120E-02 3.13056E-23
3.01537E-02 2.97279E-23
3.09043E-02 2.82475E-23
3.16639E-02 2.68570E-23
3.24324E-02 2.55501E-23
3.32098E-02 2.43212E-23
3.39961E-02 2.31642E-23
3.47912E-02 2.20746E-23
3.55952E-02 2.10477E-23
3.64081E-02 2.00791E-23
3.72297E-02 1.91650E-23
3.80602E-02 1.83017E-23
3.88995E-02 1.74860E-23
3.97476E-02 1.67146E-23
4.06044E-02 1.59849E-23
4.14700E-02 1.52941E-23
4.23443E-02 1.46397E-23
4.32273E-02 1.40196E-23
4.41190E-02 1.34316E-23
4.50194E-02 1.28736E-23
4.59284E-02 1.23440E-23
4.68461E-02 1.18410E-23
4.87074E-02 1.09087E-23
5.06030E-02 1.00652E-23
5.25328E-02 9.30065E-24
5.44967E-02 8.60641E-24
5.64946E-02 7.97488E-24
5.85262E-02 7.39945E-24
6.05914E-02 6.87428E-24
6.26901E-02 6.39423E-24
6.48222E-02 5.95476E-24
6.69873E-02 5.55185E-24
6.91854E-02 5.18193E-24
7.14163E-02 4.84184E-24
7.36799E-02 4.52877E-24
7.59760E-02 4.24019E-24
7.83043E-02 3.97385E-24
8.06647E-02 3.72776E-24
8.30571E-02 3.50010E-24
8.54812E-02 3.28925E-24
8.79369E-02 3.09377E-24
9.04240E-02 2.91233E-24
9.29422E-02 2.74375E-24
9.54915E-02 2.58697E-24
9.80716E-02 2.44101E-24
1.00682E-01 2.30500E-24
1.03323E-01 2.17815E-24
1.05995E-01 2.05972E-24
1.08696E-01 1.94907E-24
1.11427E-01 1.84560E-24
1.14188E-01 1.74875E-24
1.16978E-01 1.65804E-24
1.19797E-01 1.57300E-24
1.22645E-01 1.49322E-24
1.25522E-01 1.41832E-24
1.28428E-01 1.34794E-24
1.31361E-01 1.28177E-24
1.34323E-01 1.21952E-24
1.37313E-01 1.16090E-24
1.40330E-01 1.10568E-24
1.43375E-01 1.05361E-24
1.46447E-01 1.00450E-24
1.49545E-01 9.58138E-25
1.52671E-01 9.14347E-25
1.55823E-01 8.72961E-25
1.59001E-01 8.33825E-25
1.62205E-01 7.96795E-25
1.65435E-01 7.61739E-25
1.68690E-01 7.28533E-25
1.71970E-01 6.97062E-25
1.75276E-01 6.67221E-25
1.78606E-01 6.38910E-25
1.81961E-01 6.12038E-25
1.85340E-01 5.86518E-25
1.88743E-01 5.62271E-25
1.92169E-01 5.39223E-25
1.95619E-01 5.17305E-25
1.99092E-01 4.96450E-25
2.02589E-01 4.76599E-25
2.06107E-01 4.57696E-25
2.09649E-01 4.39687E-25
2.13212E-01 4.22522E-25
2.16797E-01 4.06156E-25
2.20404E-01 3.90545E-25
2.24032E-01 3.75648E-25
2.27680E-01 3.61427E-25
2.31350E-01 3.47845E-25
2.35040E-01 3.34870E-25
2.38751E-01 3.22470E-25
2.42481E-01 3.10615E-25
2.46231E-01 2.99276E-25
2.50000E-01 2.88428E-25
2.53788E-01 2.78045E-25
2.57595E-01 2.68105E-25
2.61421E-01 2.58585E-25
2.65264E-01 2.49465E-25
2.69126E-01 2.40724E-25
2.73005E-01 2.32345E-25
2.76901E-01 2.24310E-25
2.80814E-01 2.16602E-25
2.84744E-01 2.09207E-25
2.88691E-01 2.02108E-25
2.92653E-01 1.95292E-25
2.96632E-01 1.88747E-25
3.00625E-01 1.82459E-25
3.04634E-01 1.76417E-25
3.08658E-01 1.70609E-25
3.12697E-01 1.65025E-25
3.16749E-01 1.59655E-25
3.20816E-01 1.54489E-25
3.24896E-01 1.49518E-25
3.28990E-01 1.44734E-25
3.33097E-01 1.40129E-25
3.37216E-01 1.35694E-25
3.41348E-01 1.31422E-25
3.45492E-01 1.27307E-25
3.49647E-01 1.23341E-25
3.53814E-01 1.19519E-25
3.57992E-01 1.15833E-25
3.62181E-01 1.12280E-25
3.66381E-01 1.08852E-25
3.70590E-01 1.05546E-25
3.74810E-01 1.02355E-25
3.79039E-01 9.92757E-26
3.83277E-01 9.63029E-26
3.87524E-01 9.34324E-26
3.91780E-01 9.06603E-26
3.96044E-01 8.79826E-26
4.00316E-01 8.53955E-26
4.04596E-01 8.28954E-26
4.08882E-01 8.04791E-26
4.13176E-01 7.81432E-26
4.17476E-01 7.58846E-26
4.21783E-01 7.37004E-26
4.26095E-01 7.15877E-26
4.30413E-01 6.95438E-26
4.34737E-01 6.75661E-26
4.39065E-01 6.56521E-26
4.43398E-01 6.37995E-26
4.47736E-01 6.20059E-26
4.52077E-01 6.02693E-26
4.56422E-01 5.85874E-26
4.60770E-01 5.69583E-26
4.65122E-01 5.53801E-26
4.69476E-01 5.38509E-26
4.73832E-01 5.23690E-26
4.78190E-01 5.09327E-26
4.82550E-01 4.95404E-26
4.86912E-01 4.81905E-26
4.91274E-01 4.68815E-26
4.95637E-01 4.56120E-26
5.00000E-01 4.43806E-26
5.04363E-01 4.31861E-26
5.08726E-01 4.20270E-26
5.13088E-01 4.09023E-26
5.17450E-01 3.98107E-26
5.21810E-01 3.87511E-26
5.26168E-01 3.77225E-26
5.30524E-01 3.67237E-26
5.34878E-01 3.57539E-26
5.39230E-01 3.48120E-26
5.43578E-01 3.38971E-26
5.47923E-01 3.30083E-26
5.52264E-01 3.21448E-26
5.56602E-01 3.13058E-26
5.60935E-01 3.04904E-26
5.65263E-01 2.96978E-26
5.69587E-01 2.89274E-26
5.73905E-01 2.81785E-26
5.78217E-01 2.74503E-26
5.82524E-01 2.67422E-26
5.86824E-01 2.60536E-26
5.91118E-01 2.53838E-26
5.95404E-01 2.47323E-26
5.99684E-01 2.40985E-26
6.03956E-01 2.34818E-26
6.08220E-01 2.28817E-26
6.12476E-01 2.22978E-26
6.16723E-01 2.17295E-26
6.20961E-01 2.11762E-26
6.25190E-01 2.06377E-26
6.29410E-01 2.01134E-26
6.33619E-01 1.96030E-26
6.37819E-01 1.91059E-26
6.42008E-01 1.86218E-26
6.46186E-01 1.81503E-26
6.50353E-01 1.76911E-26
6.54508E-01 1.72437E-26
6.58652E-01 1.68079E-26
6.62784E-01 1.63832E-26
6.66903E-01 1.59695E-26
6.71010E-01 1.55663E-26
6.75104E-01 1.51733E-26
6.79184E-01 1.47903E-26
6.83251E-01 1.44170E-26
6.87303E-01 1.40531E-26
6.91342E-01 1.36983E-26
6.95366E-01 1.33524E-26
6.99375E-01 1.30151E-26
7.03368E-01 1.26863E-26
7.07347E-01 1.23655E-26
7.11309E-01 1.20527E-26
7.15256E-01 1.17476E-26
7.19186E-01 1.14500E-26
7.23099E-01 1.11597E-26
7.26995E-01 1.08765E-26
7.30874E-01 1.06002E-26
7.34736E-01 1.03306E-26
7.38579E-01 1.00675E-26
7.42405E-01 9.81082E-27
7.46212E-01 9.56030E-27
7.50000E-01 9.31581E-27
7.53769E-01 9.07719E-27
7.57519E-01 8.84427E-27
7.61249E-01 8.61692E-27
7.64960E-01 8.39498E-27
7.68650E-01 8.17832E-27
7.72320E-01 7.96679E-27
7.75968E-01 7.76027E-27
7.79596E-01 7.55863E-27
7.83203E-01 7.36174E-27
7.86788E-01 7.16947E-27
7.90351E-01 6.98173E-27
7.93893E-01 6.79838E-27
7.97411E-01 6.61932E-27
8.00908E-01 6.44444E-27
8.04381E-01 6.27363E-27
8.07831E-01 6.10680E-27
8.11257E-01 5.94385E-27
8.14660E-01 5.78468E-27
8.18039E-01 5.62920E-27
8.21394E-01 5.47732E-27
8.24724E-01 5.32895E-27
8.28030E-01 5.18400E-27
8.31310E-01 5.04240E-27
8.34565E-01 4.90407E-27
8.37795E-01 4.76891E-27
8.40999E-01 4.63687E-27
8.44177E-01 4.50787E-27
8.47329E-01 4.38183E-27
8.50455E-01 4.25868E-27
8.53553E-01 4.13837E-27
8.56625E-01 4.02082E-27
8.59670E-01 3.90596E-27
8.62687E-01 3.79375E-27
8.65677E-01 3.68411E-27
8.68639E-01 3.57699E-27
8.71572E-01 3.47233E-27
8.74478E-01 3.37008E-27
8.77355E-01 3.27018E-27
8.80203E-01 3.17258E-27
8.83022E-01 3.07723E-27
8.85812E-01 2.98408E-27
8.88573E-01 2.89308E-27
8.91304E-01 2.80419E-27
8.94005E-01 2.71736E-27
8.96677E-01 2.63254E-27
8.99318E-01 2.54969E-27
9.01928E-01 2.46878E-27
9.04508E-01 2.38976E-27
9.07058E-01 2.31259E-27
9.09576E-01 2.23723E-27
9.12063E-01 2.16365E-27
9.14519E-01 2.09180E-27
9.16943E-01 2.02166E-27
9.19335E-01 1.95319E-27
9.21696E-01 1.88636E-27
9.24024E-01 1.82113E-27
9.26320E-01 1.75747E-27
9.28584E-01 1.69536E-27
9.30815E-01 1.63475E-27
9.33013E-01 1.57563E-27
9.35178E-01 1.51796E-27
9.37310E-01 1.46172E-27
9.39409E-01 1.40689E-27
9.41474E-01 1.35342E-27
9.43505E-01 1.30131E-27
9.45503E-01 1.25052E-27
9.47467E-01 1.20104E-27
9.49397E-01 1.15283E-27
9.51293E-01 1.10589E-27
9.53154E-01 1.06017E-27
9.54981E-01 1.01567E-27
9.56773E-01 9.72368E-28
9.58530E-01 9.30237E-28
9.60252E-01 8.89261E-28
9.61940E-01 8.49421E-28
9.63592E-01 8.10699E-28
9.65209E-01 7.73079E-28
9.66790E-01 7.36542E-28
9.68336E-01 7.01073E-28
9.69846E-01 6.66655E-28
9.71321E-01 6.33274E-28
9.72759E-01 6.00914E-28
9.74162E-01 5.69561E-28
9.75528E-01 5.39202E-28
9.76858E-01 5.09822E-28
9.78152E-01 4.81409E-28
9.79410E-01 4.53950E-28
9.80631E-01 4.27434E-28
9.81815E-01 4.01848E-28
9.82963E-01 3.77182E-28
9.84074E-01 3.53424E-28
9.85148E-01 3.30565E-28
9.86185E-01 3.08594E-28
9.87185E-01 2.87502E-28
9.88148E-01 2.67280E-28
9.89074E-01 2.47919E-28
9.89962E-01 2.29411E-28
9.90814E-01 2.11747E-28
9.91627E-01 1.94920E-28
9.92404E-01 1.78924E-28
9.93143E-01 1.63750E-28
9.93844E-01 1.49393E-28
9.94508E-01 1.35846E-28
9.95134E-01 1.23104E-28
9.95722E-01 1.11161E-28
9.96273E-01 1.00013E-28
9.96786E-01 8.96530E-29
9.97261E-01 8.00784E-29
9.97698E-01 7.12846E-29
9.98097E-01 6.32680E-29
9.98459E-01 5.60250E-29
9.98782E-01 4.95526E-29
9.99067E-01 4.38482E-29
9.99315E-01 3.89092E-29
9.99524E-01 3.47336E-29
9.99695E-01 3.13196E-29
9.99829E-01 2.86657E-29
9.99924E-01 2.67709E-29
9.99981E-01 2.56344E-29
1.00000E+00 2.52556E-29
