 #
 # Subroutine ELSEPA. Elastic scattering of electrons and positrons
 #                    by neutral atoms and positive ions
 #
 # Projectile: positron
 # Kinetic energy = 8.00000E+07 eV = 2.93995E+06 a.u.
 #
 # WARNING: High-energy factorization with free-atom DF screening.
 #          Absorption, polarization and exchange corrections are
 #          switched off.
 #          Phase shifts are calculated for the bare nucleus.
 #          Scattering amplitudes are not evaluated.
 #
 # Element: Ru,  Z =  44,  atomic weight = 1.01070E+02 g/mol
 #
 # Nuclear model: Fermi distribution
 #                Average radius = 4.98415E-13 cm
 #                Skin thickness = 5.46000E-14 cm
 #
 # Number of electrons = 44
 #
 # Total elastic cross section = 4.17038E-18 cm**2 = 1.48927E-01 a0**2
 # 1st transport cross section = 5.72620E-25 cm**2 = 2.04486E-08 a0**2
 # 2nd transport cross section = 1.69490E-24 cm**2 = 6.05260E-08 a0**2
 #
 #
 # Differential cross section:                       MU=(1-COS(THETA))/2
 #
 #  THETA        MU          DCS          DCS        Sherman      error
 #  (deg)                 (cm**2/sr)   (a0**2/sr)    function
 #----------------------------------------------------------------------
0.00000E+00 2.20658E-10
7.61557E-13 2.20288E-10
1.18994E-12 2.20081E-10
1.71346E-12 2.19829E-10
2.33225E-12 2.19532E-10
3.04617E-12 2.19190E-10
3.85530E-12 2.18804E-10
4.75964E-12 2.18373E-10
5.75917E-12 2.17900E-10
6.85391E-12 2.17383E-10
8.04379E-12 2.16824E-10
9.32893E-12 2.16224E-10
1.07092E-11 2.15583E-10
1.21847E-11 2.14901E-10
1.37554E-11 2.14180E-10
1.54213E-11 2.13420E-10
1.71823E-11 2.12622E-10
1.90386E-11 2.11787E-10
2.09900E-11 2.10915E-10
2.30367E-11 2.10009E-10
2.51785E-11 2.09068E-10
2.74156E-11 2.08093E-10
2.97478E-11 2.07087E-10
3.21752E-11 2.06048E-10
3.46979E-11 2.04980E-10
3.73157E-11 2.03877E-10
4.00286E-11 2.02746E-10
4.28368E-11 2.01589E-10
4.57402E-11 2.00409E-10
4.87388E-11 1.99206E-10
5.18325E-11 1.97981E-10
5.50215E-11 1.96735E-10
5.83057E-11 1.95454E-10
6.16850E-11 1.94154E-10
6.51595E-11 1.92836E-10
6.87293E-11 1.91503E-10
7.23943E-11 1.90155E-10
7.61544E-11 1.88794E-10
1.18991E-10 1.74424E-10
1.71347E-10 1.59475E-10
2.33223E-10 1.44675E-10
3.04617E-10 1.30567E-10
3.85531E-10 1.17457E-10
4.75965E-10 1.05481E-10
5.75917E-10 9.46910E-11
6.85389E-10 8.50098E-11
8.04380E-10 7.64019E-11
9.32891E-10 6.87151E-11
1.07092E-09 6.19089E-11
1.21847E-09 5.58222E-11
1.37554E-09 5.04272E-11
1.54213E-09 4.55964E-11
1.71823E-09 4.12972E-11
1.90386E-09 3.74421E-11
2.09900E-09 3.39959E-11
2.30367E-09 3.09013E-11
2.51785E-09 2.81236E-11
2.74156E-09 2.56260E-11
2.97478E-09 2.33760E-11
3.21752E-09 2.13506E-11
3.46978E-09 1.95202E-11
3.73156E-09 1.77716E-11
4.00286E-09 1.62027E-11
4.28368E-09 1.48284E-11
4.57402E-09 1.36200E-11
4.87388E-09 1.25535E-11
5.18326E-09 1.16088E-11
5.50215E-09 1.07692E-11
5.83057E-09 9.90591E-12
6.16850E-09 9.12908E-12
6.51596E-09 8.43638E-12
6.87293E-09 7.81687E-12
7.23942E-09 7.26126E-12
7.61544E-09 6.76159E-12
1.18991E-08 3.45242E-12
1.71347E-08 1.97073E-12
2.33223E-08 1.22584E-12
3.04617E-08 8.10968E-13
3.85531E-08 5.59575E-13
4.75965E-08 3.97449E-13
5.75917E-08 2.88926E-13
6.85389E-08 2.13819E-13
8.04380E-08 1.61074E-13
9.32891E-08 1.23179E-13
1.07092E-07 9.56485E-14
1.21847E-07 7.53131E-14
1.37554E-07 6.01235E-14
1.54213E-07 4.85827E-14
1.71823E-07 3.97041E-14
1.90386E-07 3.27785E-14
2.09900E-07 2.73168E-14
2.30367E-07 2.29609E-14
2.51785E-07 1.94513E-14
2.74156E-07 1.65950E-14
2.97478E-07 1.42483E-14
3.21752E-07 1.23048E-14
3.46978E-07 1.06823E-14
3.73156E-07 9.31468E-15
4.00286E-07 8.16273E-15
4.28368E-07 7.18888E-15
4.57402E-07 6.34795E-15
4.87388E-07 5.62979E-15
5.18325E-07 5.01080E-15
5.50215E-07 4.47133E-15
5.83057E-07 4.00432E-15
6.16850E-07 3.59553E-15
6.51596E-07 3.23684E-15
6.87293E-07 2.92276E-15
7.23942E-07 2.64425E-15
7.61543E-07 2.39832E-15
1.18991E-06 1.00776E-15
1.71347E-06 4.93161E-16
2.33223E-06 2.68936E-16
3.04617E-06 1.58935E-16
3.85531E-06 9.98950E-17
4.75964E-06 6.59108E-17
5.75916E-06 4.52308E-17
6.85388E-06 3.20622E-17
8.04378E-06 2.33544E-17
9.32888E-06 1.74107E-17
1.07092E-05 1.32421E-17
1.21846E-05 1.02486E-17
1.37553E-05 8.05454E-18
1.54212E-05 6.41690E-18
1.71822E-05 5.17470E-18
1.90385E-05 4.21789E-18
2.09899E-05 3.47374E-18
2.30365E-05 2.88634E-18
2.51783E-05 2.41762E-18
2.74153E-05 2.03998E-18
2.97475E-05 1.73309E-18
3.21749E-05 1.48174E-18
3.46974E-05 1.27436E-18
3.73152E-05 1.10206E-18
4.00281E-05 9.57957E-19
4.28362E-05 8.36665E-19
4.57395E-05 7.33957E-19
4.87380E-05 6.46507E-19
5.18317E-05 5.71668E-19
5.50205E-05 5.07326E-19
5.83045E-05 4.51772E-19
6.16838E-05 4.03615E-19
6.51582E-05 3.61708E-19
6.87277E-05 3.25106E-19
7.23925E-05 2.93021E-19
7.61524E-05 2.64837E-19
9.21439E-05 1.80848E-19
1.09658E-04 1.27645E-19
1.28695E-04 9.26411E-20
1.49255E-04 6.88430E-20
1.71338E-04 5.22169E-20
1.94942E-04 4.03158E-20
2.20070E-04 3.16180E-20
2.46720E-04 2.51426E-20
2.74892E-04 2.02416E-20
3.04586E-04 1.64779E-20
3.35803E-04 1.35486E-20
3.68542E-04 1.12418E-20
4.02802E-04 9.40508E-21
4.38585E-04 7.92820E-21
4.75889E-04 6.72984E-21
5.14715E-04 5.74927E-21
5.55063E-04 4.94074E-21
5.96931E-04 4.26927E-21
6.40321E-04 3.70792E-21
6.85233E-04 3.23574E-21
7.31665E-04 2.83625E-21
7.79618E-04 2.49646E-21
8.29092E-04 2.20597E-21
8.80086E-04 1.95645E-21
9.32601E-04 1.74117E-21
9.86636E-04 1.55464E-21
1.04219E-03 1.39238E-21
1.09927E-03 1.25070E-21
1.15786E-03 1.12656E-21
1.21797E-03 1.01740E-21
1.27961E-03 9.21122E-22
1.34276E-03 8.35935E-22
1.40743E-03 7.60350E-22
1.47362E-03 6.93092E-22
1.54133E-03 6.33093E-22
1.61056E-03 5.79422E-22
1.68131E-03 5.31312E-22
1.75357E-03 4.88072E-22
1.82735E-03 4.49131E-22
1.90265E-03 4.13984E-22
1.97947E-03 3.82198E-22
2.05780E-03 3.53394E-22
2.13765E-03 3.27243E-22
2.21902E-03 3.03459E-22
2.30190E-03 2.81788E-22
2.38630E-03 2.62011E-22
2.47222E-03 2.43931E-22
2.55965E-03 2.27379E-22
2.64859E-03 2.12201E-22
2.73905E-03 1.98262E-22
2.83103E-03 1.85445E-22
2.92452E-03 1.73642E-22
3.01952E-03 1.62759E-22
3.11604E-03 1.52711E-22
3.21407E-03 1.43423E-22
3.31362E-03 1.34827E-22
3.41468E-03 1.26862E-22
3.51725E-03 1.19474E-22
3.62133E-03 1.12613E-22
3.72692E-03 1.06234E-22
3.83403E-03 1.00299E-22
3.94265E-03 9.47698E-23
4.05278E-03 8.96142E-23
4.16442E-03 8.48025E-23
4.27757E-03 8.03074E-23
4.39223E-03 7.61044E-23
4.50840E-03 7.21710E-23
4.62608E-03 6.84869E-23
4.74527E-03 6.50333E-23
4.86597E-03 6.17932E-23
4.98817E-03 5.87510E-23
5.11188E-03 5.58924E-23
5.23711E-03 5.32043E-23
5.36383E-03 5.06748E-23
5.49207E-03 4.82926E-23
5.62181E-03 4.60478E-23
5.75306E-03 4.39308E-23
5.88581E-03 4.19332E-23
6.02007E-03 4.00469E-23
6.15583E-03 3.82647E-23
6.29310E-03 3.65796E-23
6.43187E-03 3.49855E-23
6.57214E-03 3.34766E-23
6.71392E-03 3.20474E-23
6.85720E-03 3.06930E-23
7.00198E-03 2.94087E-23
7.14827E-03 2.81903E-23
7.29605E-03 2.70338E-23
7.44534E-03 2.59354E-23
7.59612E-03 2.48917E-23
7.97965E-03 2.25010E-23
8.37255E-03 2.03878E-23
8.77480E-03 1.85146E-23
9.18641E-03 1.68494E-23
9.60736E-03 1.53653E-23
1.00376E-02 1.40392E-23
1.04773E-02 1.28516E-23
1.09262E-02 1.17854E-23
1.13844E-02 1.08261E-23
1.18520E-02 9.96123E-24
1.23288E-02 9.17988E-24
1.28150E-02 8.47260E-24
1.33104E-02 7.83119E-24
1.38150E-02 7.24844E-24
1.43290E-02 6.71809E-24
1.48521E-02 6.23461E-24
1.53845E-02 5.79315E-24
1.59262E-02 5.38943E-24
1.64770E-02 5.01967E-24
1.70371E-02 4.68053E-24
1.76063E-02 4.36903E-24
1.81848E-02 4.08253E-24
1.87724E-02 3.81869E-24
1.93692E-02 3.57540E-24
1.99751E-02 3.35079E-24
2.05901E-02 3.14318E-24
2.12143E-02 2.95106E-24
2.18476E-02 2.77307E-24
2.24900E-02 2.60800E-24
2.31415E-02 2.45475E-24
2.38021E-02 2.31233E-24
2.44717E-02 2.17984E-24
2.51504E-02 2.05647E-24
2.58382E-02 1.94149E-24
2.65349E-02 1.83422E-24
2.72407E-02 1.73406E-24
2.79555E-02 1.64047E-24
2.86793E-02 1.55293E-24
2.94120E-02 1.47098E-24
3.01537E-02 1.39422E-24
3.09043E-02 1.32225E-24
3.16639E-02 1.25473E-24
3.24324E-02 1.19133E-24
3.32098E-02 1.13176E-24
3.39961E-02 1.07575E-24
3.47912E-02 1.02304E-24
3.55952E-02 9.73424E-25
3.64081E-02 9.26674E-25
3.72297E-02 8.82602E-25
3.80602E-02 8.41027E-25
3.88995E-02 8.01784E-25
3.97476E-02 7.64721E-25
4.06044E-02 7.29695E-25
4.14700E-02 6.96577E-25
4.23443E-02 6.65246E-25
4.32273E-02 6.35587E-25
4.41190E-02 6.07498E-25
4.50194E-02 5.80882E-25
4.59284E-02 5.55648E-25
4.68461E-02 5.31712E-25
4.87074E-02 4.87432E-25
5.06030E-02 4.47478E-25
5.25328E-02 4.11363E-25
5.44967E-02 3.78662E-25
5.64946E-02 3.49001E-25
5.85262E-02 3.22054E-25
6.05914E-02 2.97536E-25
6.26901E-02 2.75194E-25
6.48222E-02 2.54806E-25
6.69873E-02 2.36174E-25
6.91854E-02 2.19125E-25
7.14163E-02 2.03505E-25
7.36799E-02 1.89175E-25
7.59760E-02 1.76013E-25
7.83043E-02 1.63909E-25
8.06647E-02 1.52767E-25
8.30571E-02 1.42499E-25
8.54812E-02 1.33025E-25
8.79369E-02 1.24277E-25
9.04240E-02 1.16189E-25
9.29422E-02 1.08706E-25
9.54915E-02 1.01775E-25
9.80716E-02 9.53494E-26
1.00682E-01 8.93881E-26
1.03323E-01 8.38524E-26
1.05995E-01 7.87077E-26
1.08696E-01 7.39225E-26
1.11427E-01 6.94684E-26
1.14188E-01 6.53191E-26
1.16978E-01 6.14511E-26
1.19797E-01 5.78428E-26
1.22645E-01 5.44742E-26
1.25522E-01 5.13275E-26
1.28428E-01 4.83860E-26
1.31361E-01 4.56346E-26
1.34323E-01 4.30595E-26
1.37313E-01 4.06479E-26
1.40330E-01 3.83880E-26
1.43375E-01 3.62691E-26
1.46447E-01 3.42813E-26
1.49545E-01 3.24155E-26
1.52671E-01 3.06633E-26
1.55823E-01 2.90169E-26
1.59001E-01 2.74690E-26
1.62205E-01 2.60132E-26
1.65435E-01 2.46433E-26
1.68690E-01 2.33536E-26
1.71970E-01 2.21388E-26
1.75276E-01 2.09941E-26
1.78606E-01 1.99150E-26
1.81961E-01 1.88973E-26
1.85340E-01 1.79371E-26
1.88743E-01 1.70308E-26
1.92169E-01 1.61750E-26
1.95619E-01 1.53665E-26
1.99092E-01 1.46026E-26
2.02589E-01 1.38804E-26
2.06107E-01 1.31975E-26
2.09649E-01 1.25514E-26
2.13212E-01 1.19400E-26
2.16797E-01 1.13612E-26
2.20404E-01 1.08131E-26
2.24032E-01 1.02939E-26
2.27680E-01 9.80195E-27
2.31350E-01 9.33562E-27
2.35040E-01 8.89348E-27
2.38751E-01 8.47413E-27
2.42481E-01 8.07630E-27
2.46231E-01 7.69876E-27
2.50000E-01 7.34038E-27
2.53788E-01 7.00010E-27
2.57595E-01 6.67692E-27
2.61421E-01 6.36990E-27
2.65264E-01 6.07816E-27
2.69126E-01 5.80086E-27
2.73005E-01 5.53722E-27
2.76901E-01 5.28652E-27
2.80814E-01 5.04806E-27
2.84744E-01 4.82119E-27
2.88691E-01 4.60530E-27
2.92653E-01 4.39981E-27
2.96632E-01 4.20418E-27
3.00625E-01 4.01789E-27
3.04634E-01 3.84046E-27
3.08658E-01 3.67144E-27
3.12697E-01 3.51039E-27
3.16749E-01 3.35691E-27
3.20816E-01 3.21061E-27
3.24896E-01 3.07113E-27
3.28990E-01 2.93813E-27
3.33097E-01 2.81128E-27
3.37216E-01 2.69028E-27
3.41348E-01 2.57484E-27
3.45492E-01 2.46467E-27
3.49647E-01 2.35953E-27
3.53814E-01 2.25917E-27
3.57992E-01 2.16335E-27
3.62181E-01 2.07185E-27
3.66381E-01 1.98446E-27
3.70590E-01 1.90099E-27
3.74810E-01 1.82125E-27
3.79039E-01 1.74505E-27
3.83277E-01 1.67224E-27
3.87524E-01 1.60265E-27
3.91780E-01 1.53613E-27
3.96044E-01 1.47252E-27
4.00316E-01 1.41171E-27
4.04596E-01 1.35355E-27
4.08882E-01 1.29793E-27
4.13176E-01 1.24472E-27
4.17476E-01 1.19381E-27
4.21783E-01 1.14511E-27
4.26095E-01 1.09850E-27
4.30413E-01 1.05389E-27
4.34737E-01 1.01119E-27
4.39065E-01 9.70308E-28
4.43398E-01 9.31171E-28
4.47736E-01 8.93695E-28
4.52077E-01 8.57807E-28
4.56422E-01 8.23434E-28
4.60770E-01 7.90509E-28
4.65122E-01 7.58967E-28
4.69476E-01 7.28747E-28
4.73832E-01 6.99791E-28
4.78190E-01 6.72042E-28
4.82550E-01 6.45447E-28
4.86912E-01 6.19955E-28
4.91274E-01 5.95519E-28
4.95637E-01 5.72092E-28
5.00000E-01 5.49630E-28
5.04363E-01 5.28091E-28
5.08726E-01 5.07435E-28
5.13088E-01 4.87624E-28
5.17450E-01 4.68622E-28
5.21810E-01 4.50394E-28
5.26168E-01 4.32906E-28
5.30524E-01 4.16128E-28
5.34878E-01 4.00028E-28
5.39230E-01 3.84578E-28
5.43578E-01 3.69750E-28
5.47923E-01 3.55518E-28
5.52264E-01 3.41857E-28
5.56602E-01 3.28743E-28
5.60935E-01 3.16152E-28
5.65263E-01 3.04063E-28
5.69587E-01 2.92455E-28
5.73905E-01 2.81308E-28
5.78217E-01 2.70602E-28
5.82524E-01 2.60319E-28
5.86824E-01 2.50442E-28
5.91118E-01 2.40954E-28
5.95404E-01 2.31839E-28
5.99684E-01 2.23081E-28
6.03956E-01 2.14667E-28
6.08220E-01 2.06580E-28
6.12476E-01 1.98809E-28
6.16723E-01 1.91341E-28
6.20961E-01 1.84163E-28
6.25190E-01 1.77263E-28
6.29410E-01 1.70630E-28
6.33619E-01 1.64253E-28
6.37819E-01 1.58122E-28
6.42008E-01 1.52227E-28
6.46186E-01 1.46558E-28
6.50353E-01 1.41107E-28
6.54508E-01 1.35865E-28
6.58652E-01 1.30823E-28
6.62784E-01 1.25973E-28
6.66903E-01 1.21308E-28
6.71010E-01 1.16820E-28
6.75104E-01 1.12502E-28
6.79184E-01 1.08348E-28
6.83251E-01 1.04351E-28
6.87303E-01 1.00505E-28
6.91342E-01 9.68039E-29
6.95366E-01 9.32420E-29
6.99375E-01 8.98138E-29
7.03368E-01 8.65141E-29
7.07347E-01 8.33380E-29
7.11309E-01 8.02805E-29
7.15256E-01 7.73371E-29
7.19186E-01 7.45033E-29
7.23099E-01 7.17749E-29
7.26995E-01 6.91478E-29
7.30874E-01 6.66180E-29
7.34736E-01 6.41819E-29
7.38579E-01 6.18358E-29
7.42405E-01 5.95762E-29
7.46212E-01 5.73998E-29
7.50000E-01 5.53035E-29
7.53769E-01 5.32841E-29
7.57519E-01 5.13387E-29
7.61249E-01 4.94646E-29
7.64960E-01 4.76589E-29
7.68650E-01 4.59192E-29
7.72320E-01 4.42428E-29
7.75968E-01 4.26274E-29
7.79596E-01 4.10707E-29
7.83203E-01 3.95705E-29
7.86788E-01 3.81246E-29
7.90351E-01 3.67310E-29
7.93893E-01 3.53877E-29
7.97411E-01 3.40929E-29
8.00908E-01 3.28447E-29
8.04381E-01 3.16414E-29
8.07831E-01 3.04813E-29
8.11257E-01 2.93628E-29
8.14660E-01 2.82844E-29
8.18039E-01 2.72446E-29
8.21394E-01 2.62419E-29
8.24724E-01 2.52749E-29
8.28030E-01 2.43425E-29
8.31310E-01 2.34432E-29
8.34565E-01 2.25758E-29
8.37795E-01 2.17393E-29
8.40999E-01 2.09324E-29
8.44177E-01 2.01541E-29
8.47329E-01 1.94033E-29
8.50455E-01 1.86791E-29
8.53553E-01 1.79804E-29
8.56625E-01 1.73063E-29
8.59670E-01 1.66560E-29
8.62687E-01 1.60285E-29
8.65677E-01 1.54231E-29
8.68639E-01 1.48390E-29
8.71572E-01 1.42753E-29
8.74478E-01 1.37314E-29
8.77355E-01 1.32066E-29
8.80203E-01 1.27001E-29
8.83022E-01 1.22113E-29
8.85812E-01 1.17396E-29
8.88573E-01 1.12844E-29
8.91304E-01 1.08451E-29
8.94005E-01 1.04211E-29
8.96677E-01 1.00118E-29
8.99318E-01 9.61685E-30
9.01928E-01 9.23564E-30
9.04508E-01 8.86770E-30
9.07058E-01 8.51257E-30
9.09576E-01 8.16981E-30
9.12063E-01 7.83898E-30
9.14519E-01 7.51967E-30
9.16943E-01 7.21148E-30
9.19335E-01 6.91403E-30
9.21696E-01 6.62693E-30
9.24024E-01 6.34985E-30
9.26320E-01 6.08244E-30
9.28584E-01 5.82436E-30
9.30815E-01 5.57530E-30
9.33013E-01 5.33495E-30
9.35178E-01 5.10302E-30
9.37310E-01 4.87923E-30
9.39409E-01 4.66330E-30
9.41474E-01 4.45496E-30
9.43505E-01 4.25398E-30
9.45503E-01 4.06009E-30
9.47467E-01 3.87308E-30
9.49397E-01 3.69271E-30
9.51293E-01 3.51877E-30
9.53154E-01 3.35105E-30
9.54981E-01 3.18934E-30
9.56773E-01 3.03346E-30
9.58530E-01 2.88322E-30
9.60252E-01 2.73844E-30
9.61940E-01 2.59895E-30
9.63592E-01 2.46459E-30
9.65209E-01 2.33518E-30
9.66790E-01 2.21059E-30
9.68336E-01 2.09067E-30
9.69846E-01 1.97527E-30
9.71321E-01 1.86426E-30
9.72759E-01 1.75751E-30
9.74162E-01 1.65489E-30
9.75528E-01 1.55630E-30
9.76858E-01 1.46160E-30
9.78152E-01 1.37069E-30
9.79410E-01 1.28347E-30
9.80631E-01 1.19983E-30
9.81815E-01 1.11968E-30
9.82963E-01 1.04292E-30
9.84074E-01 9.69470E-31
9.85148E-01 8.99243E-31
9.86185E-01 8.32158E-31
9.87185E-01 7.68137E-31
9.88148E-01 7.07107E-31
9.89074E-01 6.48999E-31
9.89962E-01 5.93745E-31
9.90814E-01 5.41284E-31
9.91627E-01 4.91555E-31
9.92404E-01 4.44501E-31
9.93143E-01 4.00069E-31
9.93844E-01 3.58209E-31
9.94508E-01 3.18873E-31
9.95134E-01 2.82017E-31
9.95722E-01 2.47598E-31
9.96273E-01 2.15578E-31
9.96786E-01 1.85920E-31
9.97261E-01 1.58591E-31
9.97698E-01 1.33561E-31
9.98097E-01 1.10800E-31
9.98459E-01 9.02842E-32
9.98782E-01 7.19891E-32
9.99067E-01 5.58945E-32
9.99315E-01 4.19822E-32
9.99524E-01 3.02367E-32
9.99695E-01 2.06448E-32
9.99829E-01 1.31955E-32
9.99924E-01 7.88054E-33
9.99981E-01 4.69398E-33
1.00000E+00 3.63215E-33
