 #
 # Subroutine ELSEPA. Elastic scattering of electrons and positrons
 #                    by neutral atoms and positive ions
 #
 # Projectile: positron
 # Kinetic energy = 5.00000E+06 eV = 1.83747E+05 a.u.
 #
 # WARNING: High-energy factorization with free-atom DF screening.
 #          Absorption, polarization and exchange corrections are
 #          switched off.
 #          Phase shifts are calculated for the bare nucleus.
 #          Scattering amplitudes are not evaluated.
 #
 # Element: Ru,  Z =  44,  atomic weight = 1.01070E+02 g/mol
 #
 # Nuclear model: Fermi distribution
 #                Average radius = 4.98415E-13 cm
 #                Skin thickness = 5.46000E-14 cm
 #
 # Number of electrons = 44
 #
 # Total elastic cross section = 4.20766E-18 cm**2 = 1.50258E-01 a0**2
 # 1st transport cross section = 8.52832E-23 cm**2 = 3.04552E-06 a0**2
 # 2nd transport cross section = 2.45615E-22 cm**2 = 8.77107E-06 a0**2
 #
 #
 # Differential cross section:                       MU=(1-COS(THETA))/2
 #
 #  THETA        MU          DCS          DCS        Sherman      error
 #  (deg)                 (cm**2/sr)   (a0**2/sr)    function
 #----------------------------------------------------------------------
0.00000E+00 1.03388E-12
7.61557E-13 1.03387E-12
1.18994E-12 1.03387E-12
1.71346E-12 1.03386E-12
2.33225E-12 1.03385E-12
3.04617E-12 1.03384E-12
3.85530E-12 1.03384E-12
4.75964E-12 1.03383E-12
5.75917E-12 1.03382E-12
6.85391E-12 1.03380E-12
8.04379E-12 1.03379E-12
9.32893E-12 1.03378E-12
1.07092E-11 1.03376E-12
1.21847E-11 1.03375E-12
1.37554E-11 1.03373E-12
1.54213E-11 1.03371E-12
1.71823E-11 1.03369E-12
1.90386E-11 1.03367E-12
2.09900E-11 1.03365E-12
2.30367E-11 1.03363E-12
2.51785E-11 1.03361E-12
2.74156E-11 1.03358E-12
2.97478E-11 1.03356E-12
3.21752E-11 1.03353E-12
3.46979E-11 1.03351E-12
3.73157E-11 1.03348E-12
4.00286E-11 1.03345E-12
4.28368E-11 1.03342E-12
4.57402E-11 1.03339E-12
4.87388E-11 1.03336E-12
5.18325E-11 1.03332E-12
5.50215E-11 1.03329E-12
5.83057E-11 1.03325E-12
6.16850E-11 1.03322E-12
6.51595E-11 1.03318E-12
6.87293E-11 1.03314E-12
7.23943E-11 1.03311E-12
7.61544E-11 1.03307E-12
1.18991E-10 1.03261E-12
1.71347E-10 1.03206E-12
2.33223E-10 1.03141E-12
3.04617E-10 1.03066E-12
3.85531E-10 1.02981E-12
4.75965E-10 1.02886E-12
5.75917E-10 1.02782E-12
6.85389E-10 1.02667E-12
8.04380E-10 1.02544E-12
9.32891E-10 1.02410E-12
1.07092E-09 1.02267E-12
1.21847E-09 1.02115E-12
1.37554E-09 1.01953E-12
1.54213E-09 1.01783E-12
1.71823E-09 1.01603E-12
1.90386E-09 1.01413E-12
2.09900E-09 1.01215E-12
2.30367E-09 1.01008E-12
2.51785E-09 1.00793E-12
2.74156E-09 1.00568E-12
2.97478E-09 1.00335E-12
3.21752E-09 1.00094E-12
3.46978E-09 9.98442E-13
3.73156E-09 9.95863E-13
4.00286E-09 9.93204E-13
4.28368E-09 9.90465E-13
4.57402E-09 9.87649E-13
4.87388E-09 9.84756E-13
5.18326E-09 9.81788E-13
5.50215E-09 9.78746E-13
5.83057E-09 9.75631E-13
6.16850E-09 9.72446E-13
6.51596E-09 9.69191E-13
6.87293E-09 9.65869E-13
7.23942E-09 9.62480E-13
7.61544E-09 9.59026E-13
1.18991E-08 9.21262E-13
1.71347E-08 8.78754E-13
2.33223E-08 8.33069E-13
3.04617E-08 7.85660E-13
3.85531E-08 7.37783E-13
4.75965E-08 6.90462E-13
5.75917E-08 6.44480E-13
6.85389E-08 6.00397E-13
8.04380E-08 5.58578E-13
9.32891E-08 5.19231E-13
1.07092E-07 4.82437E-13
1.21847E-07 4.48189E-13
1.37554E-07 4.16416E-13
1.54213E-07 3.87005E-13
1.71823E-07 3.59822E-13
1.90386E-07 3.34717E-13
2.09900E-07 3.11541E-13
2.30367E-07 2.90145E-13
2.51785E-07 2.70388E-13
2.74156E-07 2.52137E-13
2.97478E-07 2.35266E-13
3.21752E-07 2.19663E-13
3.46978E-07 2.05222E-13
3.73156E-07 1.91846E-13
4.00286E-07 1.79450E-13
4.28368E-07 1.67954E-13
4.57402E-07 1.57285E-13
4.87388E-07 1.47377E-13
5.18325E-07 1.38170E-13
5.50215E-07 1.29610E-13
5.83057E-07 1.21647E-13
6.16850E-07 1.14234E-13
6.51596E-07 1.07332E-13
6.87293E-07 1.00900E-13
7.23942E-07 9.49047E-14
7.61543E-07 8.93132E-14
1.18991E-06 5.01321E-14
1.71347E-06 2.97574E-14
2.33223E-06 1.86989E-14
3.04617E-06 1.24016E-14
3.85531E-06 8.62332E-15
4.75964E-06 6.23348E-15
5.75916E-06 4.64550E-15
6.85388E-06 3.54417E-15
8.04378E-06 2.75312E-15
9.32888E-06 2.16913E-15
1.07092E-05 1.72886E-15
1.21846E-05 1.39161E-15
1.37553E-05 1.13004E-15
1.54212E-05 9.25119E-16
1.71822E-05 7.63206E-16
1.90385E-05 6.34283E-16
2.09899E-05 5.30903E-16
2.30365E-05 4.47429E-16
2.51783E-05 3.79572E-16
2.74153E-05 3.24044E-16
2.97475E-05 2.78308E-16
3.21749E-05 2.40394E-16
3.46974E-05 2.08768E-16
3.73152E-05 1.82225E-16
4.00281E-05 1.59816E-16
4.28362E-05 1.40791E-16
4.57395E-05 1.24550E-16
4.87380E-05 1.10615E-16
5.18317E-05 9.85985E-17
5.50205E-05 8.81893E-17
5.83045E-05 7.91324E-17
6.16838E-05 7.12195E-17
6.51582E-05 6.42790E-17
6.87277E-05 5.81690E-17
7.23925E-05 5.27715E-17
7.61524E-05 4.79878E-17
9.21439E-05 3.35148E-17
1.09658E-04 2.40988E-17
1.28695E-04 1.77550E-17
1.49255E-04 1.33563E-17
1.71338E-04 1.02310E-17
1.94942E-04 7.96332E-18
2.20070E-04 6.28725E-18
2.46720E-04 5.02785E-18
2.74892E-04 4.06743E-18
3.04586E-04 3.32512E-18
3.35803E-04 2.74432E-18
3.68542E-04 2.28478E-18
4.02802E-04 1.91742E-18
4.38585E-04 1.62098E-18
4.75889E-04 1.37965E-18
5.14715E-04 1.18160E-18
5.55063E-04 1.01784E-18
5.96931E-04 8.81494E-19
6.40321E-04 7.67233E-19
6.85233E-04 6.70897E-19
7.31665E-04 5.89216E-19
7.79618E-04 5.19592E-19
8.29092E-04 4.59950E-19
8.80086E-04 4.08620E-19
9.32601E-04 3.64249E-19
9.86636E-04 3.25735E-19
1.04219E-03 2.92174E-19
1.09927E-03 2.62820E-19
1.15786E-03 2.37057E-19
1.21797E-03 2.14369E-19
1.27961E-03 1.94327E-19
1.34276E-03 1.76568E-19
1.40743E-03 1.60788E-19
1.47362E-03 1.46729E-19
1.54133E-03 1.34169E-19
1.61056E-03 1.22921E-19
1.68131E-03 1.12825E-19
1.75357E-03 1.03741E-19
1.82735E-03 9.55508E-20
1.90265E-03 8.81506E-20
1.97947E-03 8.14508E-20
2.05780E-03 7.53736E-20
2.13765E-03 6.98509E-20
2.21902E-03 6.48231E-20
2.30190E-03 6.02381E-20
2.38630E-03 5.60499E-20
2.47222E-03 5.22181E-20
2.55965E-03 4.87071E-20
2.64859E-03 4.54851E-20
2.73905E-03 4.25241E-20
2.83103E-03 3.97993E-20
2.92452E-03 3.72884E-20
3.01952E-03 3.49716E-20
3.11604E-03 3.28313E-20
3.21407E-03 3.08515E-20
3.31362E-03 2.90181E-20
3.41468E-03 2.73184E-20
3.51725E-03 2.57407E-20
3.62133E-03 2.42748E-20
3.72692E-03 2.29114E-20
3.83403E-03 2.16419E-20
3.94265E-03 2.04587E-20
4.05278E-03 1.93549E-20
4.16442E-03 1.83243E-20
4.27757E-03 1.73610E-20
4.39223E-03 1.64599E-20
4.50840E-03 1.56162E-20
4.62608E-03 1.48257E-20
4.74527E-03 1.40843E-20
4.86597E-03 1.33885E-20
4.98817E-03 1.27349E-20
5.11188E-03 1.21205E-20
5.23711E-03 1.15425E-20
5.36383E-03 1.09984E-20
5.49207E-03 1.04858E-20
5.62181E-03 1.00026E-20
5.75306E-03 9.54681E-21
5.88581E-03 9.11653E-21
6.02007E-03 8.71009E-21
6.15583E-03 8.32593E-21
6.29310E-03 7.96261E-21
6.43187E-03 7.61880E-21
6.57214E-03 7.29324E-21
6.71392E-03 6.98479E-21
6.85720E-03 6.69240E-21
7.00198E-03 6.41506E-21
7.14827E-03 6.15186E-21
7.29605E-03 5.90195E-21
7.44534E-03 5.66454E-21
7.59612E-03 5.43888E-21
7.97965E-03 4.92173E-21
8.37255E-03 4.46430E-21
8.77480E-03 4.05851E-21
9.18641E-03 3.69756E-21
9.60736E-03 3.37563E-21
1.00376E-02 3.08780E-21
1.04773E-02 2.82983E-21
1.09262E-02 2.59809E-21
1.13844E-02 2.38946E-21
1.18520E-02 2.20123E-21
1.23288E-02 2.03106E-21
1.28150E-02 1.87693E-21
1.33104E-02 1.73705E-21
1.38150E-02 1.60988E-21
1.43290E-02 1.49406E-21
1.48521E-02 1.38840E-21
1.53845E-02 1.29186E-21
1.59262E-02 1.20351E-21
1.64770E-02 1.12254E-21
1.70371E-02 1.04821E-21
1.76063E-02 9.79894E-22
1.81848E-02 9.17013E-22
1.87724E-02 8.59059E-22
1.93692E-02 8.05578E-22
1.99751E-02 7.56164E-22
2.05901E-02 7.10453E-22
2.12143E-02 6.68118E-22
2.18476E-02 6.28865E-22
2.24900E-02 5.92431E-22
2.31415E-02 5.58576E-22
2.38021E-02 5.27086E-22
2.44717E-02 4.97765E-22
2.51504E-02 4.70440E-22
2.58382E-02 4.44947E-22
2.65349E-02 4.21144E-22
2.72407E-02 3.98897E-22
2.79555E-02 3.78088E-22
2.86793E-02 3.58606E-22
2.94120E-02 3.40351E-22
3.01537E-02 3.23234E-22
3.09043E-02 3.07169E-22
3.16639E-02 2.92080E-22
3.24324E-02 2.77898E-22
3.32098E-02 2.64559E-22
3.39961E-02 2.52002E-22
3.47912E-02 2.40175E-22
3.55952E-02 2.29026E-22
3.64081E-02 2.18511E-22
3.72297E-02 2.08586E-22
3.80602E-02 1.99212E-22
3.88995E-02 1.90354E-22
3.97476E-02 1.81978E-22
4.06044E-02 1.74052E-22
4.14700E-02 1.66549E-22
4.23443E-02 1.59441E-22
4.32273E-02 1.52705E-22
4.41190E-02 1.46317E-22
4.50194E-02 1.40255E-22
4.59284E-02 1.34501E-22
4.68461E-02 1.29035E-22
4.87074E-02 1.18903E-22
5.06030E-02 1.09736E-22
5.25328E-02 1.01425E-22
5.44967E-02 9.38770E-23
5.64946E-02 8.70103E-23
5.85262E-02 8.07527E-23
6.05914E-02 7.50408E-23
6.26901E-02 6.98188E-23
6.48222E-02 6.50374E-23
6.69873E-02 6.06532E-23
6.91854E-02 5.66274E-23
7.14163E-02 5.29257E-23
7.36799E-02 4.95174E-23
7.59760E-02 4.63753E-23
7.83043E-02 4.34749E-23
8.06647E-02 4.07944E-23
8.30571E-02 3.83144E-23
8.54812E-02 3.60171E-23
8.79369E-02 3.38869E-23
9.04240E-02 3.19094E-23
9.29422E-02 3.00717E-23
9.54915E-02 2.83623E-23
9.80716E-02 2.67706E-23
1.00682E-01 2.52872E-23
1.03323E-01 2.39033E-23
1.05995E-01 2.26112E-23
1.08696E-01 2.14037E-23
1.11427E-01 2.02743E-23
1.14188E-01 1.92170E-23
1.16978E-01 1.82264E-23
1.19797E-01 1.72977E-23
1.22645E-01 1.64262E-23
1.25522E-01 1.56078E-23
1.28428E-01 1.48388E-23
1.31361E-01 1.41156E-23
1.34323E-01 1.34349E-23
1.37313E-01 1.27939E-23
1.40330E-01 1.21899E-23
1.43375E-01 1.16204E-23
1.46447E-01 1.10829E-23
1.49545E-01 1.05755E-23
1.52671E-01 1.00962E-23
1.55823E-01 9.64300E-24
1.59001E-01 9.21436E-24
1.62205E-01 8.80870E-24
1.65435E-01 8.42458E-24
1.68690E-01 8.06065E-24
1.71970E-01 7.71566E-24
1.75276E-01 7.38844E-24
1.78606E-01 7.07793E-24
1.81961E-01 6.78311E-24
1.85340E-01 6.50306E-24
1.88743E-01 6.23692E-24
1.92169E-01 5.98388E-24
1.95619E-01 5.74317E-24
1.99092E-01 5.51409E-24
2.02589E-01 5.29597E-24
2.06107E-01 5.08820E-24
2.09649E-01 4.89021E-24
2.13212E-01 4.70145E-24
2.16797E-01 4.52143E-24
2.20404E-01 4.34966E-24
2.24032E-01 4.18571E-24
2.27680E-01 4.02914E-24
2.31350E-01 3.87957E-24
2.35040E-01 3.73664E-24
2.38751E-01 3.60000E-24
2.42481E-01 3.46933E-24
2.46231E-01 3.34432E-24
2.50000E-01 3.22468E-24
2.53788E-01 3.11013E-24
2.57595E-01 3.00043E-24
2.61421E-01 2.89534E-24
2.65264E-01 2.79463E-24
2.69126E-01 2.69808E-24
2.73005E-01 2.60550E-24
2.76901E-01 2.51669E-24
2.80814E-01 2.43146E-24
2.84744E-01 2.34966E-24
2.88691E-01 2.27111E-24
2.92653E-01 2.19568E-24
2.96632E-01 2.12321E-24
3.00625E-01 2.05357E-24
3.04634E-01 1.98663E-24
3.08658E-01 1.92227E-24
3.12697E-01 1.86036E-24
3.16749E-01 1.80079E-24
3.20816E-01 1.74348E-24
3.24896E-01 1.68831E-24
3.28990E-01 1.63520E-24
3.33097E-01 1.58405E-24
3.37216E-01 1.53478E-24
3.41348E-01 1.48729E-24
3.45492E-01 1.44153E-24
3.49647E-01 1.39742E-24
3.53814E-01 1.35490E-24
3.57992E-01 1.31388E-24
3.62181E-01 1.27430E-24
3.66381E-01 1.23612E-24
3.70590E-01 1.19926E-24
3.74810E-01 1.16369E-24
3.79039E-01 1.12935E-24
3.83277E-01 1.09618E-24
3.87524E-01 1.06414E-24
3.91780E-01 1.03319E-24
3.96044E-01 1.00327E-24
4.00316E-01 9.74359E-25
4.04596E-01 9.46409E-25
4.08882E-01 9.19384E-25
4.13176E-01 8.93247E-25
4.17476E-01 8.67965E-25
4.21783E-01 8.43504E-25
4.26095E-01 8.19834E-25
4.30413E-01 7.96924E-25
4.34737E-01 7.74748E-25
4.39065E-01 7.53277E-25
4.43398E-01 7.32486E-25
4.47736E-01 7.12348E-25
4.52077E-01 6.92841E-25
4.56422E-01 6.73940E-25
4.60770E-01 6.55624E-25
4.65122E-01 6.37872E-25
4.69476E-01 6.20665E-25
4.73832E-01 6.03982E-25
4.78190E-01 5.87805E-25
4.82550E-01 5.72116E-25
4.86912E-01 5.56898E-25
4.91274E-01 5.42134E-25
4.95637E-01 5.27809E-25
5.00000E-01 5.13908E-25
5.04363E-01 5.00416E-25
5.08726E-01 4.87319E-25
5.13088E-01 4.74604E-25
5.17450E-01 4.62257E-25
5.21810E-01 4.50266E-25
5.26168E-01 4.38620E-25
5.30524E-01 4.27307E-25
5.34878E-01 4.16317E-25
5.39230E-01 4.05637E-25
5.43578E-01 3.95259E-25
5.47923E-01 3.85172E-25
5.52264E-01 3.75367E-25
5.56602E-01 3.65834E-25
5.60935E-01 3.56566E-25
5.65263E-01 3.47553E-25
5.69587E-01 3.38788E-25
5.73905E-01 3.30262E-25
5.78217E-01 3.21968E-25
5.82524E-01 3.13899E-25
5.86824E-01 3.06047E-25
5.91118E-01 2.98407E-25
5.95404E-01 2.90971E-25
5.99684E-01 2.83733E-25
6.03956E-01 2.76687E-25
6.08220E-01 2.69828E-25
6.12476E-01 2.63149E-25
6.16723E-01 2.56645E-25
6.20961E-01 2.50311E-25
6.25190E-01 2.44142E-25
6.29410E-01 2.38132E-25
6.33619E-01 2.32278E-25
6.37819E-01 2.26574E-25
6.42008E-01 2.21017E-25
6.46186E-01 2.15601E-25
6.50353E-01 2.10323E-25
6.54508E-01 2.05179E-25
6.58652E-01 2.00164E-25
6.62784E-01 1.95276E-25
6.66903E-01 1.90510E-25
6.71010E-01 1.85864E-25
6.75104E-01 1.81333E-25
6.79184E-01 1.76914E-25
6.83251E-01 1.72604E-25
6.87303E-01 1.68401E-25
6.91342E-01 1.64301E-25
6.95366E-01 1.60301E-25
6.99375E-01 1.56399E-25
7.03368E-01 1.52592E-25
7.07347E-01 1.48877E-25
7.11309E-01 1.45252E-25
7.15256E-01 1.41714E-25
7.19186E-01 1.38261E-25
7.23099E-01 1.34891E-25
7.26995E-01 1.31601E-25
7.30874E-01 1.28389E-25
7.34736E-01 1.25254E-25
7.38579E-01 1.22193E-25
7.42405E-01 1.19205E-25
7.46212E-01 1.16287E-25
7.50000E-01 1.13437E-25
7.53769E-01 1.10654E-25
7.57519E-01 1.07936E-25
7.61249E-01 1.05282E-25
7.64960E-01 1.02689E-25
7.68650E-01 1.00156E-25
7.72320E-01 9.76824E-26
7.75968E-01 9.52655E-26
7.79596E-01 9.29044E-26
7.83203E-01 9.05977E-26
7.86788E-01 8.83438E-26
7.90351E-01 8.61417E-26
7.93893E-01 8.39898E-26
7.97411E-01 8.18871E-26
8.00908E-01 7.98323E-26
8.04381E-01 7.78243E-26
8.07831E-01 7.58619E-26
8.11257E-01 7.39440E-26
8.14660E-01 7.20695E-26
8.18039E-01 7.02374E-26
8.21394E-01 6.84467E-26
8.24724E-01 6.66964E-26
8.28030E-01 6.49856E-26
8.31310E-01 6.33133E-26
8.34565E-01 6.16786E-26
8.37795E-01 6.00806E-26
8.40999E-01 5.85186E-26
8.44177E-01 5.69916E-26
8.47329E-01 5.54988E-26
8.50455E-01 5.40396E-26
8.53553E-01 5.26131E-26
8.56625E-01 5.12186E-26
8.59670E-01 4.98553E-26
8.62687E-01 4.85226E-26
8.65677E-01 4.72198E-26
8.68639E-01 4.59462E-26
8.71572E-01 4.47012E-26
8.74478E-01 4.34842E-26
8.77355E-01 4.22946E-26
8.80203E-01 4.11317E-26
8.83022E-01 3.99950E-26
8.85812E-01 3.88840E-26
8.88573E-01 3.77980E-26
8.91304E-01 3.67367E-26
8.94005E-01 3.56993E-26
8.96677E-01 3.46856E-26
8.99318E-01 3.36949E-26
9.01928E-01 3.27268E-26
9.04508E-01 3.17808E-26
9.07058E-01 3.08566E-26
9.09576E-01 2.99536E-26
9.12063E-01 2.90714E-26
9.14519E-01 2.82097E-26
9.16943E-01 2.73680E-26
9.19335E-01 2.65459E-26
9.21696E-01 2.57431E-26
9.24024E-01 2.49592E-26
9.26320E-01 2.41938E-26
9.28584E-01 2.34466E-26
9.30815E-01 2.27172E-26
9.33013E-01 2.20054E-26
9.35178E-01 2.13108E-26
9.37310E-01 2.06331E-26
9.39409E-01 1.99719E-26
9.41474E-01 1.93271E-26
9.43505E-01 1.86983E-26
9.45503E-01 1.80852E-26
9.47467E-01 1.74876E-26
9.49397E-01 1.69052E-26
9.51293E-01 1.63377E-26
9.53154E-01 1.57850E-26
9.54981E-01 1.52467E-26
9.56773E-01 1.47226E-26
9.58530E-01 1.42126E-26
9.60252E-01 1.37164E-26
9.61940E-01 1.32337E-26
9.63592E-01 1.27644E-26
9.65209E-01 1.23083E-26
9.66790E-01 1.18652E-26
9.68336E-01 1.14349E-26
9.69846E-01 1.10172E-26
9.71321E-01 1.06119E-26
9.72759E-01 1.02190E-26
9.74162E-01 9.83808E-27
9.75528E-01 9.46915E-27
9.76858E-01 9.11203E-27
9.78152E-01 8.76655E-27
9.79410E-01 8.43258E-27
9.80631E-01 8.10998E-27
9.81815E-01 7.79862E-27
9.82963E-01 7.49836E-27
9.84074E-01 7.20910E-27
9.85148E-01 6.93070E-27
9.86185E-01 6.66306E-27
9.87185E-01 6.40607E-27
9.88148E-01 6.15961E-27
9.89074E-01 5.92360E-27
9.89962E-01 5.69794E-27
9.90814E-01 5.48253E-27
9.91627E-01 5.27729E-27
9.92404E-01 5.08214E-27
9.93143E-01 4.89700E-27
9.93844E-01 4.72179E-27
9.94508E-01 4.55644E-27
9.95134E-01 4.40089E-27
9.95722E-01 4.25508E-27
9.96273E-01 4.11894E-27
9.96786E-01 3.99242E-27
9.97261E-01 3.87548E-27
9.97698E-01 3.76806E-27
9.98097E-01 3.67013E-27
9.98459E-01 3.58164E-27
9.98782E-01 3.50256E-27
9.99067E-01 3.43285E-27
9.99315E-01 3.37250E-27
9.99524E-01 3.32147E-27
9.99695E-01 3.27974E-27
9.99829E-01 3.24731E-27
9.99924E-01 3.22415E-27
9.99981E-01 3.21026E-27
1.00000E+00 3.20563E-27
