 #
 # Subroutine ELSEPA. Elastic scattering of electrons and positrons
 #                    by neutral atoms and positive ions
 #
 # Projectile: positron
 # Kinetic energy = 1.00000E+09 eV = 3.67493E+07 a.u.
 #
 # WARNING: High-energy factorization with free-atom DF screening.
 #          Absorption, polarization and exchange corrections are
 #          switched off.
 #          Phase shifts are calculated for the bare nucleus.
 #          Scattering amplitudes are not evaluated.
 #
 # Element: Ru,  Z =  44,  atomic weight = 1.01070E+02 g/mol
 #
 # Nuclear model: Fermi distribution
 #                Average radius = 4.98415E-13 cm
 #                Skin thickness = 5.46000E-14 cm
 #
 # Number of electrons = 44
 #
 # Total elastic cross section = 4.14030E-18 cm**2 = 1.47853E-01 a0**2
 # 1st transport cross section = 3.83661E-27 cm**2 = 1.37008E-10 a0**2
 # 2nd transport cross section = 1.15086E-26 cm**2 = 4.10980E-10 a0**2
 #
 #
 # Differential cross section:                       MU=(1-COS(THETA))/2
 #
 #  THETA        MU          DCS          DCS        Sherman      error
 #  (deg)                 (cm**2/sr)   (a0**2/sr)    function
 #----------------------------------------------------------------------
0.00000E+00 3.40763E-08
7.61557E-13 2.70032E-08
1.18994E-12 2.41352E-08
1.71346E-12 2.13339E-08
2.33225E-12 1.87303E-08
3.04617E-12 1.63919E-08
3.85530E-12 1.43333E-08
4.75964E-12 1.25413E-08
5.75917E-12 1.09900E-08
6.85391E-12 9.64693E-09
8.04379E-12 8.48509E-09
9.32893E-12 7.47942E-09
1.07092E-11 6.60714E-09
1.21847E-11 5.84872E-09
1.37554E-11 5.18768E-09
1.54213E-11 4.60877E-09
1.71823E-11 4.10231E-09
1.90386E-11 3.65831E-09
2.09900E-11 3.26836E-09
2.30367E-11 2.92355E-09
2.51785E-11 2.59947E-09
2.74156E-11 2.32516E-09
2.97478E-11 2.09156E-09
3.21752E-11 1.89149E-09
3.46979E-11 1.71920E-09
3.73157E-11 1.55605E-09
4.00286E-11 1.40547E-09
4.28368E-11 1.27487E-09
4.57402E-11 1.16108E-09
4.87388E-11 1.06151E-09
5.18325E-11 9.73224E-10
5.50215E-11 8.88255E-10
5.83057E-11 8.13357E-10
6.16850E-11 7.47100E-10
6.51595E-11 6.88289E-10
6.87293E-11 6.35914E-10
7.23943E-11 5.87381E-10
7.61544E-11 5.42920E-10
1.18991E-10 2.73383E-10
1.71347E-10 1.55942E-10
2.33223E-10 9.62878E-11
3.04617E-10 6.25724E-11
3.85531E-10 4.21417E-11
4.75965E-10 2.92037E-11
5.75917E-10 2.07595E-11
6.85389E-10 1.50941E-11
8.04380E-10 1.12236E-11
9.32891E-10 8.51912E-12
1.07092E-09 6.58601E-12
1.21847E-09 5.17522E-12
1.37554E-09 4.12649E-12
1.54213E-09 3.33352E-12
1.71823E-09 2.72450E-12
1.90386E-09 2.24969E-12
2.09900E-09 1.87455E-12
2.30367E-09 1.57462E-12
2.51785E-09 1.33169E-12
2.74156E-09 1.13520E-12
2.97478E-09 9.72639E-13
3.21752E-09 8.38663E-13
3.46978E-09 7.26555E-13
3.73156E-09 6.32584E-13
4.00286E-09 5.53245E-13
4.28368E-09 4.85815E-13
4.57402E-09 4.28399E-13
4.87388E-09 3.79017E-13
5.18326E-09 3.36648E-13
5.50215E-09 2.99861E-13
5.83057E-09 2.68045E-13
6.16850E-09 2.40230E-13
6.51596E-09 2.15965E-13
6.87293E-09 1.94645E-13
7.23942E-09 1.75895E-13
7.61544E-09 1.59339E-13
1.18991E-08 6.64335E-14
1.71347E-08 3.24223E-14
2.33223E-08 1.76635E-14
3.04617E-08 1.04310E-14
3.85531E-08 6.55116E-15
4.75965E-08 4.31892E-15
5.75917E-08 2.96135E-15
6.85389E-08 2.09745E-15
8.04380E-08 1.52666E-15
9.32891E-08 1.13737E-15
1.07092E-07 8.64534E-16
1.21847E-07 6.68765E-16
1.37554E-07 5.25364E-16
1.54213E-07 4.18395E-16
1.71823E-07 3.37300E-16
1.90386E-07 2.74922E-16
2.09900E-07 2.26312E-16
2.30367E-07 1.87980E-16
2.51785E-07 1.57427E-16
2.74156E-07 1.32833E-16
2.97478E-07 1.12858E-16
3.21752E-07 9.64985E-17
3.46978E-07 8.29977E-17
3.73156E-07 7.17767E-17
4.00286E-07 6.23888E-17
4.28368E-07 5.44862E-17
4.57402E-07 4.77958E-17
4.87388E-07 4.21011E-17
5.18325E-07 3.72296E-17
5.50215E-07 3.30426E-17
5.83057E-07 2.94279E-17
6.16850E-07 2.62940E-17
6.51596E-07 2.35664E-17
6.87293E-07 2.11833E-17
7.23942E-07 1.90940E-17
7.61543E-07 1.72559E-17
1.18991E-06 7.07020E-18
1.71347E-06 3.40990E-18
2.33223E-06 1.84054E-18
3.04617E-06 1.07881E-18
3.85531E-06 6.73429E-19
4.75964E-06 4.41784E-19
5.75916E-06 3.01705E-19
6.85388E-06 2.12995E-19
8.04378E-06 1.54618E-19
9.32888E-06 1.14937E-19
1.07092E-05 8.72053E-20
1.21846E-05 6.73537E-20
1.37553E-05 5.28423E-20
1.54212E-05 4.20361E-20
1.71822E-05 3.38557E-20
1.90385E-05 2.75656E-20
2.09899E-05 2.26808E-20
2.30365E-05 1.88302E-20
2.51783E-05 1.57610E-20
2.74153E-05 1.32908E-20
2.97475E-05 1.12852E-20
3.21749E-05 9.64381E-21
3.46974E-05 8.29054E-21
3.73152E-05 7.16693E-21
4.00281E-05 6.22769E-21
4.28362E-05 5.43751E-21
4.57395E-05 4.76872E-21
4.87380E-05 4.19950E-21
5.18317E-05 3.71256E-21
5.50205E-05 3.29404E-21
5.83045E-05 2.93280E-21
6.16838E-05 2.61974E-21
6.51582E-05 2.34739E-21
6.87277E-05 2.10956E-21
7.23925E-05 1.90113E-21
7.61524E-05 1.68566E-21
9.21439E-05 1.14283E-21
1.09658E-04 8.00083E-22
1.28695E-04 5.75397E-22
1.49255E-04 4.23268E-22
1.71338E-04 3.17475E-22
1.94942E-04 2.42138E-22
2.20070E-04 1.87393E-22
2.46720E-04 1.46893E-22
2.74892E-04 1.16452E-22
3.04586E-04 9.32506E-23
3.35803E-04 7.53410E-23
3.68542E-04 6.13609E-23
4.02802E-04 5.03357E-23
4.38585E-04 4.15603E-23
4.75889E-04 3.45171E-23
5.14715E-04 2.88203E-23
5.55063E-04 2.41807E-23
5.96931E-04 2.03774E-23
6.40321E-04 1.72415E-23
6.85233E-04 1.46419E-23
7.31665E-04 1.24759E-23
7.79618E-04 1.06630E-23
8.29092E-04 9.13915E-24
8.80086E-04 7.85321E-24
9.32601E-04 6.76408E-24
9.86636E-04 5.83851E-24
1.04219E-03 5.04949E-24
1.09927E-03 4.37492E-24
1.15786E-03 3.79666E-24
1.21797E-03 3.29971E-24
1.27961E-03 2.87166E-24
1.34276E-03 2.50217E-24
1.40743E-03 2.18261E-24
1.47362E-03 1.90572E-24
1.54133E-03 1.66539E-24
1.61056E-03 1.45650E-24
1.68131E-03 1.27465E-24
1.75357E-03 1.11615E-24
1.82735E-03 9.77837E-25
1.90265E-03 8.57008E-25
1.97947E-03 7.51353E-25
2.05780E-03 6.58884E-25
2.13765E-03 5.77894E-25
2.21902E-03 5.06909E-25
2.30190E-03 4.44656E-25
2.38630E-03 3.90034E-25
2.47222E-03 3.42086E-25
2.55965E-03 2.99983E-25
2.64859E-03 2.63001E-25
2.73905E-03 2.30512E-25
2.83103E-03 2.01967E-25
2.92452E-03 1.76886E-25
3.01952E-03 1.54848E-25
3.11604E-03 1.35487E-25
3.21407E-03 1.18480E-25
3.31362E-03 1.03545E-25
3.41468E-03 9.04329E-26
3.51725E-03 7.89256E-26
3.62133E-03 6.88311E-26
3.72692E-03 5.99806E-26
3.83403E-03 5.22253E-26
3.94265E-03 4.54338E-26
4.05278E-03 3.94908E-26
4.16442E-03 3.42943E-26
4.27757E-03 2.97544E-26
4.39223E-03 2.57918E-26
4.50840E-03 2.23365E-26
4.62608E-03 1.93268E-26
4.74527E-03 1.67082E-26
4.86597E-03 1.44326E-26
4.98817E-03 1.24577E-26
5.11188E-03 1.07460E-26
5.23711E-03 9.26461E-27
5.36383E-03 7.98445E-27
5.49207E-03 6.87993E-27
5.62181E-03 5.92850E-27
5.75306E-03 5.11036E-27
5.88581E-03 4.40806E-27
6.02007E-03 3.80630E-27
6.15583E-03 3.29164E-27
6.29310E-03 2.85229E-27
6.43187E-03 2.47795E-27
6.57214E-03 2.15957E-27
6.71392E-03 1.88929E-27
6.85720E-03 1.66022E-27
7.00198E-03 1.46639E-27
7.14827E-03 1.30257E-27
7.29605E-03 1.16426E-27
7.44534E-03 1.04756E-27
7.59612E-03 9.49078E-28
7.97965E-03 7.64520E-28
8.37255E-03 6.41563E-28
8.77480E-03 5.56552E-28
9.18641E-03 4.94023E-28
9.60736E-03 4.44211E-28
1.00376E-02 4.01240E-28
1.04773E-02 3.61826E-28
1.09262E-02 3.24351E-28
1.13844E-02 2.88219E-28
1.18520E-02 2.53415E-28
1.23288E-02 2.20208E-28
1.28150E-02 1.88969E-28
1.33104E-02 1.60050E-28
1.38150E-02 1.33728E-28
1.43290E-02 1.10179E-28
1.48521E-02 8.94679E-29
1.53845E-02 7.15613E-29
1.59262E-02 5.63433E-29
1.64770E-02 4.36338E-29
1.70371E-02 3.32083E-29
1.76063E-02 2.48158E-29
1.81848E-02 1.81942E-29
1.87724E-02 1.30832E-29
1.93692E-02 9.23363E-30
1.99751E-02 6.41484E-30
2.05901E-02 4.41906E-30
2.12143E-02 3.06391E-30
2.18476E-02 2.19314E-30
2.24900E-02 1.67613E-30
2.31415E-02 1.40640E-30
2.38021E-02 1.29943E-30
2.44717E-02 1.29018E-30
2.51504E-02 1.33039E-30
2.58382E-02 1.38584E-30
2.65349E-02 1.43378E-30
2.72407E-02 1.46054E-30
2.79555E-02 1.45937E-30
2.86793E-02 1.42860E-30
2.94120E-02 1.37008E-30
3.01537E-02 1.28788E-30
3.09043E-02 1.18731E-30
3.16639E-02 1.07411E-30
3.24324E-02 9.53902E-31
3.32098E-02 8.31816E-31
3.39961E-02 7.12239E-31
3.47912E-02 5.98700E-31
3.55952E-02 4.93837E-31
3.64081E-02 3.99436E-31
3.72297E-02 3.16508E-31
3.80602E-02 2.45398E-31
3.88995E-02 1.85903E-31
3.97476E-02 1.37398E-31
4.06044E-02 9.89533E-32
4.14700E-02 6.94433E-32
4.23443E-02 4.76376E-32
4.32273E-02 3.22804E-32
4.41190E-02 2.21518E-32
4.50194E-02 1.61135E-32
4.59284E-02 1.31408E-32
4.68461E-02 1.23411E-32
4.87074E-02 1.43956E-32
5.06030E-02 1.79098E-32
5.25328E-02 2.04558E-32
5.44967E-02 2.10770E-32
5.64946E-02 1.97765E-32
5.85262E-02 1.70658E-32
6.05914E-02 1.36235E-32
6.26901E-02 1.00753E-32
6.48222E-02 6.88203E-33
6.69873E-02 4.30708E-33
6.91854E-02 2.43709E-33
7.14163E-02 1.22805E-33
7.36799E-02 5.58277E-34
7.59760E-02 2.75470E-34
7.83043E-02 2.31731E-34
8.06647E-02 3.04827E-34
8.30571E-02 4.07321E-34
8.54812E-02 4.86587E-34
8.79369E-02 5.19176E-34
9.04240E-02 5.02610E-34
9.29422E-02 4.46965E-34
9.54915E-02 3.67688E-34
9.80716E-02 2.80391E-34
1.00682E-01 1.97700E-34
1.03323E-01 1.27892E-34
1.05995E-01 7.48618E-35
1.08696E-01 3.88982E-35
1.11427E-01 1.78203E-35
1.14188E-01 8.14393E-36
1.16978E-01 6.05996E-36
1.19797E-01 8.12441E-36
1.22645E-01 1.16494E-35
1.25522E-01 1.48357E-35
1.28428E-01 1.67188E-35
1.31361E-01 1.70021E-35
1.34323E-01 1.58460E-35
1.37313E-01 1.36613E-35
1.40330E-01 1.09395E-35
1.43375E-01 8.13196E-36
1.46447E-01 5.58189E-36
1.49545E-01 3.49917E-36
1.52671E-01 1.96745E-36
1.55823E-01 9.70215E-37
1.59001E-01 4.24835E-37
1.62205E-01 2.15991E-37
1.65435E-01 2.23191E-37
1.68690E-01 3.39914E-37
1.71970E-01 4.84347E-37
1.75276E-01 6.02750E-37
1.78606E-01 6.67475E-37
1.81961E-01 6.71798E-37
1.85340E-01 6.23288E-37
1.88743E-01 5.37365E-37
1.92169E-01 4.31924E-37
1.95619E-01 3.23315E-37
1.99092E-01 2.24129E-37
2.02589E-01 1.42282E-37
2.06107E-01 8.11746E-38
2.09649E-01 4.05768E-38
2.13212E-01 1.00000E-45
2.16797E-01 1.00000E-45
2.20404E-01 1.00000E-45
2.24032E-01 1.00000E-45
2.27680E-01 1.00000E-45
2.31350E-01 1.00000E-45
2.35040E-01 1.00000E-45
2.38751E-01 1.00000E-45
2.42481E-01 1.00000E-45
2.46231E-01 1.00000E-45
2.50000E-01 1.00000E-45
2.53788E-01 1.00000E-45
2.57595E-01 1.00000E-45
2.61421E-01 1.00000E-45
2.65264E-01 1.00000E-45
2.69126E-01 1.00000E-45
2.73005E-01 1.00000E-45
2.76901E-01 1.00000E-45
2.80814E-01 1.00000E-45
2.84744E-01 1.00000E-45
2.88691E-01 1.00000E-45
2.92653E-01 1.00000E-45
2.96632E-01 1.00000E-45
3.00625E-01 1.00000E-45
3.04634E-01 1.00000E-45
3.08658E-01 1.00000E-45
3.12697E-01 1.00000E-45
3.16749E-01 1.00000E-45
3.20816E-01 1.00000E-45
3.24896E-01 1.00000E-45
3.28990E-01 1.00000E-45
3.33097E-01 1.00000E-45
3.37216E-01 1.00000E-45
3.41348E-01 1.00000E-45
3.45492E-01 1.00000E-45
3.49647E-01 1.00000E-45
3.53814E-01 1.00000E-45
3.57992E-01 1.00000E-45
3.62181E-01 1.00000E-45
3.66381E-01 1.00000E-45
3.70590E-01 1.00000E-45
3.74810E-01 1.00000E-45
3.79039E-01 1.00000E-45
3.83277E-01 1.00000E-45
3.87524E-01 1.00000E-45
3.91780E-01 1.00000E-45
3.96044E-01 1.00000E-45
4.00316E-01 1.00000E-45
4.04596E-01 1.00000E-45
4.08882E-01 1.00000E-45
4.13176E-01 1.00000E-45
4.17476E-01 1.00000E-45
4.21783E-01 1.00000E-45
4.26095E-01 1.00000E-45
4.30413E-01 1.00000E-45
4.34737E-01 1.00000E-45
4.39065E-01 1.00000E-45
4.43398E-01 1.00000E-45
4.47736E-01 1.00000E-45
4.52077E-01 1.00000E-45
4.56422E-01 1.00000E-45
4.60770E-01 1.00000E-45
4.65122E-01 1.00000E-45
4.69476E-01 1.00000E-45
4.73832E-01 1.00000E-45
4.78190E-01 1.00000E-45
4.82550E-01 1.00000E-45
4.86912E-01 1.00000E-45
4.91274E-01 1.00000E-45
4.95637E-01 1.00000E-45
5.00000E-01 1.00000E-45
5.04363E-01 1.00000E-45
5.08726E-01 1.00000E-45
5.13088E-01 1.00000E-45
5.17450E-01 1.00000E-45
5.21810E-01 1.00000E-45
5.26168E-01 1.00000E-45
5.30524E-01 1.00000E-45
5.34878E-01 1.00000E-45
5.39230E-01 1.00000E-45
5.43578E-01 1.00000E-45
5.47923E-01 1.00000E-45
5.52264E-01 1.00000E-45
5.56602E-01 1.00000E-45
5.60935E-01 1.00000E-45
5.65263E-01 1.00000E-45
5.69587E-01 1.00000E-45
5.73905E-01 1.00000E-45
5.78217E-01 1.00000E-45
5.82524E-01 1.00000E-45
5.86824E-01 1.00000E-45
5.91118E-01 1.00000E-45
5.95404E-01 1.00000E-45
5.99684E-01 1.00000E-45
6.03956E-01 1.00000E-45
6.08220E-01 1.00000E-45
6.12476E-01 1.00000E-45
6.16723E-01 1.00000E-45
6.20961E-01 1.00000E-45
6.25190E-01 1.00000E-45
6.29410E-01 1.00000E-45
6.33619E-01 1.00000E-45
6.37819E-01 1.00000E-45
6.42008E-01 1.00000E-45
6.46186E-01 1.00000E-45
6.50353E-01 1.00000E-45
6.54508E-01 1.00000E-45
6.58652E-01 1.00000E-45
6.62784E-01 1.00000E-45
6.66903E-01 1.00000E-45
6.71010E-01 1.00000E-45
6.75104E-01 1.00000E-45
6.79184E-01 1.00000E-45
6.83251E-01 1.00000E-45
6.87303E-01 1.00000E-45
6.91342E-01 1.00000E-45
6.95366E-01 1.00000E-45
6.99375E-01 1.00000E-45
7.03368E-01 1.00000E-45
7.07347E-01 1.00000E-45
7.11309E-01 1.00000E-45
7.15256E-01 1.00000E-45
7.19186E-01 1.00000E-45
7.23099E-01 1.00000E-45
7.26995E-01 1.00000E-45
7.30874E-01 1.00000E-45
7.34736E-01 1.00000E-45
7.38579E-01 1.00000E-45
7.42405E-01 1.00000E-45
7.46212E-01 1.00000E-45
7.50000E-01 1.00000E-45
7.53769E-01 1.00000E-45
7.57519E-01 1.00000E-45
7.61249E-01 1.00000E-45
7.64960E-01 1.00000E-45
7.68650E-01 1.00000E-45
7.72320E-01 1.00000E-45
7.75968E-01 1.00000E-45
7.79596E-01 1.00000E-45
7.83203E-01 1.00000E-45
7.86788E-01 1.00000E-45
7.90351E-01 1.00000E-45
7.93893E-01 1.00000E-45
7.97411E-01 1.00000E-45
8.00908E-01 1.00000E-45
8.04381E-01 1.00000E-45
8.07831E-01 1.00000E-45
8.11257E-01 1.00000E-45
8.14660E-01 1.00000E-45
8.18039E-01 1.00000E-45
8.21394E-01 1.00000E-45
8.24724E-01 1.00000E-45
8.28030E-01 1.00000E-45
8.31310E-01 1.00000E-45
8.34565E-01 1.00000E-45
8.37795E-01 1.00000E-45
8.40999E-01 1.00000E-45
8.44177E-01 1.00000E-45
8.47329E-01 1.00000E-45
8.50455E-01 1.00000E-45
8.53553E-01 1.00000E-45
8.56625E-01 1.00000E-45
8.59670E-01 1.00000E-45
8.62687E-01 1.00000E-45
8.65677E-01 1.00000E-45
8.68639E-01 1.00000E-45
8.71572E-01 1.00000E-45
8.74478E-01 1.00000E-45
8.77355E-01 1.00000E-45
8.80203E-01 1.00000E-45
8.83022E-01 1.00000E-45
8.85812E-01 1.00000E-45
8.88573E-01 1.00000E-45
8.91304E-01 1.00000E-45
8.94005E-01 1.00000E-45
8.96677E-01 1.00000E-45
8.99318E-01 1.00000E-45
9.01928E-01 1.00000E-45
9.04508E-01 1.00000E-45
9.07058E-01 1.00000E-45
9.09576E-01 1.00000E-45
9.12063E-01 1.00000E-45
9.14519E-01 1.00000E-45
9.16943E-01 1.00000E-45
9.19335E-01 1.00000E-45
9.21696E-01 1.00000E-45
9.24024E-01 1.00000E-45
9.26320E-01 1.00000E-45
9.28584E-01 1.00000E-45
9.30815E-01 1.00000E-45
9.33013E-01 1.00000E-45
9.35178E-01 1.00000E-45
9.37310E-01 1.00000E-45
9.39409E-01 1.00000E-45
9.41474E-01 1.00000E-45
9.43505E-01 1.00000E-45
9.45503E-01 1.00000E-45
9.47467E-01 1.00000E-45
9.49397E-01 1.00000E-45
9.51293E-01 1.00000E-45
9.53154E-01 1.00000E-45
9.54981E-01 1.00000E-45
9.56773E-01 1.00000E-45
9.58530E-01 1.00000E-45
9.60252E-01 1.00000E-45
9.61940E-01 1.00000E-45
9.63592E-01 1.00000E-45
9.65209E-01 1.00000E-45
9.66790E-01 1.00000E-45
9.68336E-01 1.00000E-45
9.69846E-01 1.00000E-45
9.71321E-01 1.00000E-45
9.72759E-01 1.00000E-45
9.74162E-01 1.00000E-45
9.75528E-01 1.00000E-45
9.76858E-01 1.00000E-45
9.78152E-01 1.00000E-45
9.79410E-01 1.00000E-45
9.80631E-01 1.00000E-45
9.81815E-01 1.00000E-45
9.82963E-01 1.00000E-45
9.84074E-01 1.00000E-45
9.85148E-01 1.00000E-45
9.86185E-01 1.00000E-45
9.87185E-01 1.00000E-45
9.88148E-01 1.00000E-45
9.89074E-01 1.00000E-45
9.89962E-01 1.00000E-45
9.90814E-01 1.00000E-45
9.91627E-01 1.00000E-45
9.92404E-01 1.00000E-45
9.93143E-01 1.00000E-45
9.93844E-01 1.00000E-45
9.94508E-01 1.00000E-45
9.95134E-01 1.00000E-45
9.95722E-01 1.00000E-45
9.96273E-01 1.00000E-45
9.96786E-01 1.00000E-45
9.97261E-01 1.00000E-45
9.97698E-01 1.00000E-45
9.98097E-01 1.00000E-45
9.98459E-01 1.00000E-45
9.98782E-01 1.00000E-45
9.99067E-01 1.00000E-45
9.99315E-01 1.00000E-45
9.99524E-01 1.00000E-45
9.99695E-01 1.00000E-45
9.99829E-01 1.00000E-45
9.99924E-01 1.00000E-45
9.99981E-01 1.00000E-45
1.00000E+00 1.00000E-45
