 #
 # Subroutine ELSEPA. Elastic scattering of electrons and positrons
 #                    by neutral atoms and positive ions
 #
 # Projectile: positron
 # Kinetic energy = 8.00000E+08 eV = 2.93995E+07 a.u.
 #
 # WARNING: High-energy factorization with free-atom DF screening.
 #          Absorption, polarization and exchange corrections are
 #          switched off.
 #          Phase shifts are calculated for the bare nucleus.
 #          Scattering amplitudes are not evaluated.
 #
 # Element: Mg,  Z =  12,  atomic weight = 2.43050E+01 g/mol
 #
 # Nuclear model: Fermi distribution
 #                Average radius = 3.09943E-13 cm
 #                Skin thickness = 5.46000E-14 cm
 #
 # Number of electrons = 12
 #
 # Total elastic cross section = 6.02059E-19 cm**2 = 2.14999E-02 a0**2
 # 1st transport cross section = 4.89936E-28 cm**2 = 1.74959E-11 a0**2
 # 2nd transport cross section = 1.46942E-27 cm**2 = 5.24739E-11 a0**2
 #
 #
 # Differential cross section:                       MU=(1-COS(THETA))/2
 #
 #  THETA        MU          DCS          DCS        Sherman      error
 #  (deg)                 (cm**2/sr)   (a0**2/sr)    function
 #----------------------------------------------------------------------
0.00000E+00 6.64533E-09
7.61557E-13 5.17719E-09
1.18994E-12 4.54789E-09
1.71346E-12 3.91872E-09
2.33225E-12 3.32686E-09
3.04617E-12 2.79511E-09
3.85530E-12 2.33423E-09
4.75964E-12 1.94495E-09
5.75917E-12 1.62105E-09
6.85391E-12 1.35559E-09
8.04379E-12 1.13958E-09
9.32893E-12 9.63535E-10
1.07092E-11 8.21698E-10
1.21847E-11 7.05097E-10
1.37554E-11 6.11109E-10
1.54213E-11 5.33059E-10
1.71823E-11 4.68881E-10
1.90386E-11 4.15172E-10
2.09900E-11 3.70092E-10
2.30367E-11 3.31890E-10
2.51785E-11 2.99261E-10
2.74156E-11 2.71136E-10
2.97478E-11 2.46784E-10
3.21752E-11 2.25425E-10
3.46979E-11 2.06674E-10
3.73157E-11 1.90045E-10
4.00286E-11 1.75209E-10
4.28368E-11 1.61981E-10
4.57402E-11 1.49968E-10
4.87388E-11 1.39240E-10
5.18325E-11 1.29342E-10
5.50215E-11 1.20433E-10
5.83057E-11 1.12224E-10
6.16850E-11 1.04727E-10
6.51595E-11 9.78486E-11
6.87293E-11 9.14769E-11
7.23943E-11 8.56611E-11
7.61544E-11 8.02008E-11
1.18991E-10 4.32552E-11
1.71347E-10 2.45597E-11
2.33223E-10 1.46010E-11
3.04617E-10 9.06369E-12
3.85531E-10 5.87086E-12
4.75965E-10 3.95114E-12
5.75917E-10 2.74915E-12
6.85389E-10 1.97164E-12
8.04380E-10 1.45144E-12
9.32891E-10 1.09326E-12
1.07092E-09 8.40080E-13
1.21847E-09 6.56830E-13
1.37554E-09 5.21480E-13
1.54213E-09 4.19583E-13
1.71823E-09 3.41639E-13
1.90386E-09 2.81129E-13
2.09900E-09 2.33520E-13
2.30367E-09 1.95643E-13
2.51785E-09 1.65160E-13
2.74156E-09 1.40412E-13
2.97478E-09 1.20136E-13
3.21752E-09 1.03391E-13
3.46978E-09 8.94676E-14
3.73156E-09 7.78019E-14
4.00286E-09 6.79765E-14
4.28368E-09 5.96490E-14
4.57402E-09 5.25543E-14
4.87388E-09 4.64812E-14
5.18326E-09 4.12553E-14
5.50215E-09 3.67418E-14
5.83057E-09 3.28257E-14
6.16850E-09 2.94154E-14
6.51596E-09 2.64350E-14
6.87293E-09 2.38204E-14
7.23942E-09 2.15202E-14
7.61544E-09 1.94894E-14
1.18991E-08 8.09822E-15
1.71347E-08 3.93228E-15
2.33223E-08 2.13008E-15
3.04617E-08 1.25105E-15
3.85531E-08 7.81923E-16
4.75965E-08 5.13382E-16
5.75917E-08 3.50807E-16
6.85389E-08 2.47768E-16
8.04380E-08 1.79923E-16
9.32891E-08 1.33787E-16
1.07092E-07 1.01533E-16
1.21847E-07 7.84377E-17
1.37554E-07 6.15509E-17
1.54213E-07 4.89729E-17
1.71823E-07 3.94487E-17
1.90386E-07 3.21312E-17
2.09900E-07 2.64344E-17
2.30367E-07 2.19460E-17
2.51785E-07 1.83711E-17
2.74156E-07 1.54953E-17
2.97478E-07 1.31608E-17
3.21752E-07 1.12499E-17
3.46978E-07 9.67354E-18
3.73156E-07 8.36386E-18
4.00286E-07 7.26851E-18
4.28368E-07 6.34674E-18
4.57402E-07 5.56656E-18
4.87388E-07 4.90266E-18
5.18325E-07 4.33485E-18
5.50215E-07 3.84691E-18
5.83057E-07 3.42573E-18
6.16850E-07 3.06065E-18
6.51596E-07 2.74293E-18
6.87293E-07 2.46539E-18
7.23942E-07 2.22208E-18
7.61543E-07 2.00805E-18
1.18991E-06 8.22455E-19
1.71347E-06 3.96609E-19
2.33223E-06 2.14068E-19
3.04617E-06 1.25476E-19
3.85531E-06 7.83293E-20
4.75964E-06 5.13889E-20
5.75916E-06 3.50973E-20
6.85388E-06 2.47796E-20
8.04378E-06 1.79896E-20
9.32888E-06 1.33739E-20
1.07092E-05 1.01480E-20
1.21846E-05 7.83863E-21
1.37553E-05 6.15035E-21
1.54212E-05 4.89306E-21
1.71822E-05 3.94122E-21
1.90385E-05 3.21025E-21
2.09899E-05 2.64094E-21
2.30365E-05 2.19233E-21
2.51783E-05 1.83501E-21
2.74153E-05 1.54760E-21
2.97475E-05 1.31434E-21
3.21749E-05 1.12344E-21
3.46974E-05 9.65992E-22
3.73152E-05 8.35189E-22
4.00281E-05 7.25791E-22
4.28362E-05 6.33722E-22
4.57395E-05 5.55790E-22
4.87380E-05 4.89469E-22
5.18317E-05 4.32748E-22
5.50205E-05 3.84010E-22
5.83045E-05 3.41947E-22
6.16838E-05 3.05491E-22
6.51582E-05 2.73767E-22
6.87277E-05 2.46057E-22
7.23925E-05 2.21764E-22
7.61524E-05 1.97450E-22
9.21439E-05 1.34391E-22
1.09658E-04 9.45320E-23
1.28695E-04 6.83506E-23
1.49255E-04 5.05912E-23
1.71338E-04 3.82083E-23
1.94942E-04 2.93648E-23
2.20070E-04 2.29172E-23
2.46720E-04 1.81288E-23
2.74892E-04 1.45147E-23
3.04586E-04 1.17469E-23
3.35803E-04 9.59936E-24
3.68542E-04 7.91344E-24
4.02802E-04 6.57558E-24
4.38585E-04 5.50364E-24
4.75889E-04 4.63703E-24
5.14715E-04 3.93068E-24
5.55063E-04 3.35062E-24
5.96931E-04 2.87093E-24
6.40321E-04 2.47169E-24
6.85233E-04 2.13741E-24
7.31665E-04 1.85596E-24
7.79618E-04 1.61777E-24
8.29092E-04 1.41519E-24
8.80086E-04 1.24213E-24
9.32601E-04 1.09364E-24
9.86636E-04 9.65734E-25
1.04219E-03 8.55139E-25
1.09927E-03 7.59172E-25
1.15786E-03 6.75619E-25
1.21797E-03 6.02643E-25
1.27961E-03 5.38715E-25
1.34276E-03 4.82553E-25
1.40743E-03 4.33083E-25
1.47362E-03 3.89394E-25
1.54133E-03 3.50719E-25
1.61056E-03 3.16403E-25
1.68131E-03 2.85887E-25
1.75357E-03 2.58695E-25
1.82735E-03 2.34417E-25
1.90265E-03 2.12698E-25
1.97947E-03 1.93235E-25
2.05780E-03 1.75763E-25
2.13765E-03 1.60053E-25
2.21902E-03 1.45904E-25
2.30190E-03 1.33143E-25
2.38630E-03 1.21617E-25
2.47222E-03 1.11191E-25
2.55965E-03 1.01750E-25
2.64859E-03 9.31879E-26
2.73905E-03 8.54150E-26
2.83103E-03 7.83500E-26
2.92452E-03 7.19213E-26
3.01952E-03 6.60656E-26
3.11604E-03 6.07263E-26
3.21407E-03 5.58533E-26
3.31362E-03 5.14017E-26
3.41468E-03 4.73314E-26
3.51725E-03 4.36066E-26
3.62133E-03 4.01952E-26
3.72692E-03 3.70684E-26
3.83403E-03 3.42004E-26
3.94265E-03 3.15678E-26
4.05278E-03 2.91497E-26
4.16442E-03 2.69271E-26
4.27757E-03 2.48830E-26
4.39223E-03 2.30018E-26
4.50840E-03 2.12697E-26
4.62608E-03 1.96739E-26
4.74527E-03 1.82029E-26
4.86597E-03 1.68464E-26
4.98817E-03 1.55947E-26
5.11188E-03 1.44393E-26
5.23711E-03 1.33724E-26
5.36383E-03 1.23866E-26
5.49207E-03 1.14756E-26
5.62181E-03 1.06333E-26
5.75306E-03 9.85426E-27
5.88581E-03 9.13350E-27
6.02007E-03 8.46644E-27
6.15583E-03 7.84891E-27
6.29310E-03 7.27707E-27
6.43187E-03 6.74739E-27
6.57214E-03 6.25666E-27
6.71392E-03 5.80189E-27
6.85720E-03 5.38037E-27
7.00198E-03 4.98958E-27
7.14827E-03 4.62722E-27
7.29605E-03 4.29117E-27
7.44534E-03 3.97946E-27
7.59612E-03 3.69030E-27
7.97965E-03 3.05539E-27
8.37255E-03 2.52862E-27
8.77480E-03 2.09138E-27
9.18641E-03 1.72836E-27
9.60736E-03 1.42695E-27
1.00376E-02 1.17672E-27
1.04773E-02 9.69057E-28
1.09262E-02 7.96801E-28
1.13844E-02 6.54017E-28
1.18520E-02 5.35766E-28
1.23288E-02 4.37939E-28
1.28150E-02 3.57111E-28
1.33104E-02 2.90426E-28
1.38150E-02 2.35503E-28
1.43290E-02 1.90353E-28
1.48521E-02 1.53316E-28
1.53845E-02 1.23008E-28
1.59262E-02 9.82728E-29
1.64770E-02 7.81452E-29
1.70371E-02 6.18212E-29
1.76063E-02 4.86307E-29
1.81848E-02 3.80157E-29
1.87724E-02 2.95124E-29
1.93692E-02 2.27355E-29
1.99751E-02 1.73654E-29
2.05901E-02 1.31379E-29
2.12143E-02 9.83431E-30
2.18476E-02 7.27476E-30
2.24900E-02 5.31122E-30
2.31415E-02 3.82237E-30
2.38021E-02 2.70911E-30
2.44717E-02 1.89078E-30
2.51504E-02 1.30198E-30
2.58382E-02 8.89959E-31
2.65349E-02 6.12387E-31
2.72407E-02 4.35501E-31
2.79555E-02 3.32566E-31
2.86793E-02 2.82585E-31
2.94120E-02 2.69232E-31
3.01537E-02 2.79956E-31
3.09043E-02 3.05251E-31
3.16639E-02 3.38046E-31
3.24324E-02 3.73203E-31
3.32098E-02 4.07106E-31
3.39961E-02 4.37330E-31
3.47912E-02 4.62361E-31
3.55952E-02 4.81382E-31
3.64081E-02 4.94091E-31
3.72297E-02 5.00562E-31
3.80602E-02 5.01129E-31
3.88995E-02 4.96304E-31
3.97476E-02 4.86702E-31
4.06044E-02 4.72992E-31
4.14700E-02 4.55860E-31
4.23443E-02 4.35976E-31
4.32273E-02 4.13979E-31
4.41190E-02 3.90458E-31
4.50194E-02 3.65946E-31
4.59284E-02 3.40918E-31
4.68461E-02 3.15787E-31
4.87074E-02 2.66564E-31
5.06030E-02 2.20418E-31
5.25328E-02 1.78692E-31
5.44967E-02 1.42087E-31
5.64946E-02 1.10810E-31
5.85262E-02 8.47182E-32
6.05914E-02 6.34374E-32
6.26901E-02 4.64565E-32
6.48222E-02 3.32008E-32
6.69873E-02 2.30858E-32
6.91854E-02 1.55528E-32
7.14163E-02 1.00920E-32
7.36799E-02 6.25485E-33
7.59760E-02 3.65828E-33
7.83043E-02 1.98434E-33
8.06647E-02 9.75804E-34
8.30571E-02 4.29856E-34
8.54812E-02 1.90788E-34
8.79369E-02 1.42458E-34
9.04240E-02 2.01062E-34
9.29422E-02 3.08513E-34
9.54915E-02 4.26625E-34
9.80716E-02 5.32162E-34
1.00682E-01 6.12732E-34
1.03323E-01 6.63500E-34
1.05995E-01 6.84611E-34
1.08696E-01 6.79231E-34
1.11427E-01 6.52118E-34
1.14188E-01 6.08607E-34
1.16978E-01 5.53946E-34
1.19797E-01 4.92867E-34
1.22645E-01 4.29380E-34
1.25522E-01 3.66672E-34
1.28428E-01 3.07128E-34
1.31361E-01 2.52386E-34
1.34323E-01 2.03447E-34
1.37313E-01 1.60779E-34
1.40330E-01 1.24443E-34
1.43375E-01 9.41901E-35
1.46447E-01 6.95626E-35
1.49545E-01 4.99749E-35
1.52671E-01 3.47746E-35
1.55823E-01 2.32955E-35
1.59001E-01 1.48932E-35
1.62205E-01 8.97027E-36
1.65435E-01 4.99253E-36
1.68690E-01 2.49597E-36
1.71970E-01 1.08909E-36
1.75276E-01 4.50559E-37
1.78606E-01 3.23915E-37
1.81961E-01 5.10744E-37
1.85340E-01 8.62609E-37
1.88743E-01 1.27315E-36
1.92169E-01 1.67015E-36
1.95619E-01 2.00873E-36
1.99092E-01 2.26423E-36
2.02589E-01 2.42789E-36
2.06107E-01 2.50112E-36
2.09649E-01 2.49243E-36
2.13212E-01 2.41446E-36
2.16797E-01 2.28189E-36
2.20404E-01 2.10918E-36
2.24032E-01 1.91044E-36
2.27680E-01 1.69794E-36
2.31350E-01 1.48204E-36
2.35040E-01 1.27117E-36
2.38751E-01 1.07160E-36
2.42481E-01 8.87784E-37
2.46231E-01 7.22532E-37
2.50000E-01 5.77159E-37
2.53788E-01 4.51951E-37
2.57595E-01 3.46331E-37
2.61421E-01 2.59039E-37
2.65264E-01 1.88494E-37
2.69126E-01 1.32802E-37
2.73005E-01 8.99767E-38
2.76901E-01 5.80653E-38
2.80814E-01 3.51667E-38
2.84744E-01 1.95397E-38
2.88691E-01 9.61359E-39
2.92653E-01 4.02239E-39
2.96632E-01 1.59541E-39
3.00625E-01 1.36306E-39
3.04634E-01 2.54452E-39
3.08658E-01 4.53103E-39
3.12697E-01 6.85679E-39
3.16749E-01 9.19352E-39
3.20816E-01 1.13148E-38
3.24896E-01 1.30816E-38
3.28990E-01 1.44148E-38
3.33097E-01 1.52919E-38
3.37216E-01 1.57213E-38
3.41348E-01 1.57425E-38
3.45492E-01 1.54062E-38
3.49647E-01 1.47800E-38
3.53814E-01 1.39137E-38
3.57992E-01 1.28822E-38
3.62181E-01 1.17378E-38
3.66381E-01 1.05380E-38
3.70590E-01 9.32661E-39
3.74810E-01 8.14184E-39
3.79039E-01 7.01438E-39
3.83277E-01 5.96279E-39
3.87524E-01 5.00155E-39
3.91780E-01 4.13744E-39
3.96044E-01 3.37596E-39
4.00316E-01 2.71126E-39
4.04596E-01 2.14340E-39
4.08882E-01 1.66161E-39
4.13176E-01 1.26265E-39
4.17476E-01 9.36221E-40
4.21783E-01 6.74611E-40
4.26095E-01 1.00000E-45
4.30413E-01 1.00000E-45
4.34737E-01 1.00000E-45
4.39065E-01 1.00000E-45
4.43398E-01 1.00000E-45
4.47736E-01 1.00000E-45
4.52077E-01 1.00000E-45
4.56422E-01 1.00000E-45
4.60770E-01 1.00000E-45
4.65122E-01 1.00000E-45
4.69476E-01 1.00000E-45
4.73832E-01 1.00000E-45
4.78190E-01 1.00000E-45
4.82550E-01 1.00000E-45
4.86912E-01 1.00000E-45
4.91274E-01 1.00000E-45
4.95637E-01 1.00000E-45
5.00000E-01 1.00000E-45
5.04363E-01 1.00000E-45
5.08726E-01 1.00000E-45
5.13088E-01 1.00000E-45
5.17450E-01 1.00000E-45
5.21810E-01 1.00000E-45
5.26168E-01 1.00000E-45
5.30524E-01 1.00000E-45
5.34878E-01 1.00000E-45
5.39230E-01 1.00000E-45
5.43578E-01 1.00000E-45
5.47923E-01 1.00000E-45
5.52264E-01 1.00000E-45
5.56602E-01 1.00000E-45
5.60935E-01 1.00000E-45
5.65263E-01 1.00000E-45
5.69587E-01 1.00000E-45
5.73905E-01 1.00000E-45
5.78217E-01 1.00000E-45
5.82524E-01 1.00000E-45
5.86824E-01 1.00000E-45
5.91118E-01 1.00000E-45
5.95404E-01 1.00000E-45
5.99684E-01 1.00000E-45
6.03956E-01 1.00000E-45
6.08220E-01 1.00000E-45
6.12476E-01 1.00000E-45
6.16723E-01 1.00000E-45
6.20961E-01 1.00000E-45
6.25190E-01 1.00000E-45
6.29410E-01 1.00000E-45
6.33619E-01 1.00000E-45
6.37819E-01 1.00000E-45
6.42008E-01 1.00000E-45
6.46186E-01 1.00000E-45
6.50353E-01 1.00000E-45
6.54508E-01 1.00000E-45
6.58652E-01 1.00000E-45
6.62784E-01 1.00000E-45
6.66903E-01 1.00000E-45
6.71010E-01 1.00000E-45
6.75104E-01 1.00000E-45
6.79184E-01 1.00000E-45
6.83251E-01 1.00000E-45
6.87303E-01 1.00000E-45
6.91342E-01 1.00000E-45
6.95366E-01 1.00000E-45
6.99375E-01 1.00000E-45
7.03368E-01 1.00000E-45
7.07347E-01 1.00000E-45
7.11309E-01 1.00000E-45
7.15256E-01 1.00000E-45
7.19186E-01 1.00000E-45
7.23099E-01 1.00000E-45
7.26995E-01 1.00000E-45
7.30874E-01 1.00000E-45
7.34736E-01 1.00000E-45
7.38579E-01 1.00000E-45
7.42405E-01 1.00000E-45
7.46212E-01 1.00000E-45
7.50000E-01 1.00000E-45
7.53769E-01 1.00000E-45
7.57519E-01 1.00000E-45
7.61249E-01 1.00000E-45
7.64960E-01 1.00000E-45
7.68650E-01 1.00000E-45
7.72320E-01 1.00000E-45
7.75968E-01 1.00000E-45
7.79596E-01 1.00000E-45
7.83203E-01 1.00000E-45
7.86788E-01 1.00000E-45
7.90351E-01 1.00000E-45
7.93893E-01 1.00000E-45
7.97411E-01 1.00000E-45
8.00908E-01 1.00000E-45
8.04381E-01 1.00000E-45
8.07831E-01 1.00000E-45
8.11257E-01 1.00000E-45
8.14660E-01 1.00000E-45
8.18039E-01 1.00000E-45
8.21394E-01 1.00000E-45
8.24724E-01 1.00000E-45
8.28030E-01 1.00000E-45
8.31310E-01 1.00000E-45
8.34565E-01 1.00000E-45
8.37795E-01 1.00000E-45
8.40999E-01 1.00000E-45
8.44177E-01 1.00000E-45
8.47329E-01 1.00000E-45
8.50455E-01 1.00000E-45
8.53553E-01 1.00000E-45
8.56625E-01 1.00000E-45
8.59670E-01 1.00000E-45
8.62687E-01 1.00000E-45
8.65677E-01 1.00000E-45
8.68639E-01 1.00000E-45
8.71572E-01 1.00000E-45
8.74478E-01 1.00000E-45
8.77355E-01 1.00000E-45
8.80203E-01 1.00000E-45
8.83022E-01 1.00000E-45
8.85812E-01 1.00000E-45
8.88573E-01 1.00000E-45
8.91304E-01 1.00000E-45
8.94005E-01 1.00000E-45
8.96677E-01 1.00000E-45
8.99318E-01 1.00000E-45
9.01928E-01 1.00000E-45
9.04508E-01 1.00000E-45
9.07058E-01 1.00000E-45
9.09576E-01 1.00000E-45
9.12063E-01 1.00000E-45
9.14519E-01 1.00000E-45
9.16943E-01 1.00000E-45
9.19335E-01 1.00000E-45
9.21696E-01 1.00000E-45
9.24024E-01 1.00000E-45
9.26320E-01 1.00000E-45
9.28584E-01 1.00000E-45
9.30815E-01 1.00000E-45
9.33013E-01 1.00000E-45
9.35178E-01 1.00000E-45
9.37310E-01 1.00000E-45
9.39409E-01 1.00000E-45
9.41474E-01 1.00000E-45
9.43505E-01 1.00000E-45
9.45503E-01 1.00000E-45
9.47467E-01 1.00000E-45
9.49397E-01 1.00000E-45
9.51293E-01 1.00000E-45
9.53154E-01 1.00000E-45
9.54981E-01 1.00000E-45
9.56773E-01 1.00000E-45
9.58530E-01 1.00000E-45
9.60252E-01 1.00000E-45
9.61940E-01 1.00000E-45
9.63592E-01 1.00000E-45
9.65209E-01 1.00000E-45
9.66790E-01 1.00000E-45
9.68336E-01 1.00000E-45
9.69846E-01 1.00000E-45
9.71321E-01 1.00000E-45
9.72759E-01 1.00000E-45
9.74162E-01 1.00000E-45
9.75528E-01 1.00000E-45
9.76858E-01 1.00000E-45
9.78152E-01 1.00000E-45
9.79410E-01 1.00000E-45
9.80631E-01 1.00000E-45
9.81815E-01 1.00000E-45
9.82963E-01 1.00000E-45
9.84074E-01 1.00000E-45
9.85148E-01 1.00000E-45
9.86185E-01 1.00000E-45
9.87185E-01 1.00000E-45
9.88148E-01 1.00000E-45
9.89074E-01 1.00000E-45
9.89962E-01 1.00000E-45
9.90814E-01 1.00000E-45
9.91627E-01 1.00000E-45
9.92404E-01 1.00000E-45
9.93143E-01 1.00000E-45
9.93844E-01 1.00000E-45
9.94508E-01 1.00000E-45
9.95134E-01 1.00000E-45
9.95722E-01 1.00000E-45
9.96273E-01 1.00000E-45
9.96786E-01 1.00000E-45
9.97261E-01 1.00000E-45
9.97698E-01 1.00000E-45
9.98097E-01 1.00000E-45
9.98459E-01 1.00000E-45
9.98782E-01 1.00000E-45
9.99067E-01 1.00000E-45
9.99315E-01 1.00000E-45
9.99524E-01 1.00000E-45
9.99695E-01 1.00000E-45
9.99829E-01 1.00000E-45
9.99924E-01 1.00000E-45
9.99981E-01 1.00000E-45
1.00000E+00 1.00000E-45
