 #
 # Subroutine ELSEPA. Elastic scattering of electrons and positrons
 #                    by neutral atoms and positive ions
 #
 # Projectile: positron
 # Kinetic energy = 2.50000E+06 eV = 9.18733E+04 a.u.
 #
 # WARNING: High-energy factorization with free-atom DF screening.
 #          Absorption, polarization and exchange corrections are
 #          switched off.
 #          Phase shifts are calculated for the bare nucleus.
 #          Scattering amplitudes are not evaluated.
 #
 # Element: Mg,  Z =  12,  atomic weight = 2.43050E+01 g/mol
 #
 # Nuclear model: Fermi distribution
 #                Average radius = 3.09943E-13 cm
 #                Skin thickness = 5.46000E-14 cm
 #
 # Number of electrons = 12
 #
 # Total elastic cross section = 6.26940E-19 cm**2 = 2.23884E-02 a0**2
 # 1st transport cross section = 2.25939E-23 cm**2 = 8.06844E-07 a0**2
 # 2nd transport cross section = 6.46545E-23 cm**2 = 2.30885E-06 a0**2
 #
 #
 # Differential cross section:                       MU=(1-COS(THETA))/2
 #
 #  THETA        MU          DCS          DCS        Sherman      error
 #  (deg)                 (cm**2/sr)   (a0**2/sr)    function
 #----------------------------------------------------------------------
0.00000E+00 9.40163E-14
7.61557E-13 9.40158E-14
1.18994E-12 9.40156E-14
1.71346E-12 9.40154E-14
2.33225E-12 9.40151E-14
3.04617E-12 9.40148E-14
3.85530E-12 9.40144E-14
4.75964E-12 9.40140E-14
5.75917E-12 9.40135E-14
6.85391E-12 9.40130E-14
8.04379E-12 9.40125E-14
9.32893E-12 9.40119E-14
1.07092E-11 9.40112E-14
1.21847E-11 9.40106E-14
1.37554E-11 9.40098E-14
1.54213E-11 9.40091E-14
1.71823E-11 9.40083E-14
1.90386E-11 9.40074E-14
2.09900E-11 9.40066E-14
2.30367E-11 9.40056E-14
2.51785E-11 9.40047E-14
2.74156E-11 9.40036E-14
2.97478E-11 9.40026E-14
3.21752E-11 9.40015E-14
3.46979E-11 9.40004E-14
3.73157E-11 9.39992E-14
4.00286E-11 9.39979E-14
4.28368E-11 9.39967E-14
4.57402E-11 9.39954E-14
4.87388E-11 9.39940E-14
5.18325E-11 9.39926E-14
5.50215E-11 9.39912E-14
5.83057E-11 9.39897E-14
6.16850E-11 9.39882E-14
6.51595E-11 9.39866E-14
6.87293E-11 9.39850E-14
7.23943E-11 9.39834E-14
7.61544E-11 9.39817E-14
1.18991E-10 9.39624E-14
1.71347E-10 9.39390E-14
2.33223E-10 9.39113E-14
3.04617E-10 9.38793E-14
3.85531E-10 9.38432E-14
4.75965E-10 9.38028E-14
5.75917E-10 9.37583E-14
6.85389E-10 9.37096E-14
8.04380E-10 9.36566E-14
9.32891E-10 9.35995E-14
1.07092E-09 9.35382E-14
1.21847E-09 9.34728E-14
1.37554E-09 9.34033E-14
1.54213E-09 9.33296E-14
1.71823E-09 9.32518E-14
1.90386E-09 9.31699E-14
2.09900E-09 9.30839E-14
2.30367E-09 9.29938E-14
2.51785E-09 9.28997E-14
2.74156E-09 9.28016E-14
2.97478E-09 9.26994E-14
3.21752E-09 9.25933E-14
3.46978E-09 9.24832E-14
3.73156E-09 9.23691E-14
4.00286E-09 9.22511E-14
4.28368E-09 9.21292E-14
4.57402E-09 9.20033E-14
4.87388E-09 9.18737E-14
5.18326E-09 9.17402E-14
5.50215E-09 9.16028E-14
5.83057E-09 9.14617E-14
6.16850E-09 9.13167E-14
6.51596E-09 9.11681E-14
6.87293E-09 9.10158E-14
7.23942E-09 9.08597E-14
7.61544E-09 9.07000E-14
1.18991E-08 8.89083E-14
1.71347E-08 8.67856E-14
2.33223E-08 8.43683E-14
3.04617E-08 8.16959E-14
3.85531E-08 7.88100E-14
4.75965E-08 7.57530E-14
5.75917E-08 7.25673E-14
6.85389E-08 6.92933E-14
8.04380E-08 6.59695E-14
9.32891E-08 6.26318E-14
1.07092E-07 5.93122E-14
1.21847E-07 5.60390E-14
1.37554E-07 5.28365E-14
1.54213E-07 4.97250E-14
1.71823E-07 4.67209E-14
1.90386E-07 4.38343E-14
2.09900E-07 4.10797E-14
2.30367E-07 3.84625E-14
2.51785E-07 3.59844E-14
2.74156E-07 3.36456E-14
2.97478E-07 3.14560E-14
3.21752E-07 2.93990E-14
3.46978E-07 2.74704E-14
3.73156E-07 2.56653E-14
4.00286E-07 2.39859E-14
4.28368E-07 2.24400E-14
4.57402E-07 2.09976E-14
4.87388E-07 1.96529E-14
5.18325E-07 1.84001E-14
5.50215E-07 1.72479E-14
5.83057E-07 1.61912E-14
6.16850E-07 1.52069E-14
6.51596E-07 1.42903E-14
6.87293E-07 1.34368E-14
7.23942E-07 1.26582E-14
7.61543E-07 1.19404E-14
1.18991E-06 7.03536E-15
1.71347E-06 4.57627E-15
2.33223E-06 3.20281E-15
3.04617E-06 2.35266E-15
3.85531E-06 1.78228E-15
4.75964E-06 1.37732E-15
5.75916E-06 1.07909E-15
6.85388E-06 8.53881E-16
8.04378E-06 6.81100E-16
9.32888E-06 5.47233E-16
1.07092E-05 4.42673E-16
1.21846E-05 3.60433E-16
1.37553E-05 2.95334E-16
1.54212E-05 2.43500E-16
1.71822E-05 2.02001E-16
1.90385E-05 1.68307E-16
2.09899E-05 1.41526E-16
2.30365E-05 1.19393E-16
2.51783E-05 1.01508E-16
2.74153E-05 8.66006E-17
2.97475E-05 7.43855E-17
3.21749E-05 6.41486E-17
3.46974E-05 5.56360E-17
3.73152E-05 4.84506E-17
4.00281E-05 4.23988E-17
4.28362E-05 3.72502E-17
4.57395E-05 3.28656E-17
4.87380E-05 2.91049E-17
5.18317E-05 2.58714E-17
5.50205E-05 2.30765E-17
5.83045E-05 2.06526E-17
6.16838E-05 1.85417E-17
6.51582E-05 1.66964E-17
6.87277E-05 1.50780E-17
7.23925E-05 1.36529E-17
7.61524E-05 1.23947E-17
9.21439E-05 8.61678E-18
1.09658E-04 6.18700E-18
1.28695E-04 4.56288E-18
1.49255E-04 3.44178E-18
1.71338E-04 2.64646E-18
1.94942E-04 2.06881E-18
2.20070E-04 1.64075E-18
2.46720E-04 1.31788E-18
2.74892E-04 1.07056E-18
3.04586E-04 8.78497E-19
3.35803E-04 7.27501E-19
3.68542E-04 6.07481E-19
4.02802E-04 5.11115E-19
4.38585E-04 4.33033E-19
4.75889E-04 3.69239E-19
5.14715E-04 3.16715E-19
5.55063E-04 2.73164E-19
5.96931E-04 2.36811E-19
6.40321E-04 2.06281E-19
6.85233E-04 1.80493E-19
7.31665E-04 1.58594E-19
7.79618E-04 1.39903E-19
8.29092E-04 1.23874E-19
8.80086E-04 1.10067E-19
9.32601E-04 9.81223E-20
9.86636E-04 8.77491E-20
1.04219E-03 7.87059E-20
1.09927E-03 7.07940E-20
1.15786E-03 6.38484E-20
1.21797E-03 5.77311E-20
1.27961E-03 5.23268E-20
1.34276E-03 4.75384E-20
1.40743E-03 4.32837E-20
1.47362E-03 3.94931E-20
1.54133E-03 3.61073E-20
1.61056E-03 3.30757E-20
1.68131E-03 3.03548E-20
1.75357E-03 2.79072E-20
1.82735E-03 2.57009E-20
1.90265E-03 2.37077E-20
1.97947E-03 2.19036E-20
2.05780E-03 2.02676E-20
2.13765E-03 1.87811E-20
2.21902E-03 1.74281E-20
2.30190E-03 1.61945E-20
2.38630E-03 1.50679E-20
2.47222E-03 1.40373E-20
2.55965E-03 1.30932E-20
2.64859E-03 1.22270E-20
2.73905E-03 1.14311E-20
2.83103E-03 1.06988E-20
2.92452E-03 1.00240E-20
3.01952E-03 9.40156E-21
3.11604E-03 8.82656E-21
3.21407E-03 8.29476E-21
3.31362E-03 7.80234E-21
3.41468E-03 7.34586E-21
3.51725E-03 6.92219E-21
3.62133E-03 6.52858E-21
3.72692E-03 6.16250E-21
3.83403E-03 5.82166E-21
3.94265E-03 5.50403E-21
4.05278E-03 5.20772E-21
4.16442E-03 4.93104E-21
4.27757E-03 4.67246E-21
4.39223E-03 4.43057E-21
4.50840E-03 4.20411E-21
4.62608E-03 3.99190E-21
4.74527E-03 3.79289E-21
4.86597E-03 3.60610E-21
4.98817E-03 3.43064E-21
5.11188E-03 3.26571E-21
5.23711E-03 3.11055E-21
5.36383E-03 2.96447E-21
5.49207E-03 2.82685E-21
5.62181E-03 2.69712E-21
5.75306E-03 2.57472E-21
5.88581E-03 2.45917E-21
6.02007E-03 2.35002E-21
6.15583E-03 2.24684E-21
6.29310E-03 2.14926E-21
6.43187E-03 2.05690E-21
6.57214E-03 1.96944E-21
6.71392E-03 1.88657E-21
6.85720E-03 1.80800E-21
7.00198E-03 1.73347E-21
7.14827E-03 1.66273E-21
7.29605E-03 1.59556E-21
7.44534E-03 1.53174E-21
7.59612E-03 1.47106E-21
7.97965E-03 1.33199E-21
8.37255E-03 1.20894E-21
8.77480E-03 1.09974E-21
9.18641E-03 1.00257E-21
9.60736E-03 9.15874E-22
1.00376E-02 8.38325E-22
1.04773E-02 7.68793E-22
1.09262E-02 7.06302E-22
1.13844E-02 6.50013E-22
1.18520E-02 5.99205E-22
1.23288E-02 5.53251E-22
1.28150E-02 5.11608E-22
1.33104E-02 4.73799E-22
1.38150E-02 4.39409E-22
1.43290E-02 4.08075E-22
1.48521E-02 3.79476E-22
1.53845E-02 3.53331E-22
1.59262E-02 3.29392E-22
1.64770E-02 3.07441E-22
1.70371E-02 2.87282E-22
1.76063E-02 2.68742E-22
1.81848E-02 2.51670E-22
1.87724E-02 2.35927E-22
1.93692E-02 2.21392E-22
1.99751E-02 2.07955E-22
2.05901E-02 1.95518E-22
2.12143E-02 1.83994E-22
2.18476E-02 1.73303E-22
2.24900E-02 1.63374E-22
2.31415E-02 1.54143E-22
2.38021E-02 1.45553E-22
2.44717E-02 1.37550E-22
2.51504E-02 1.30088E-22
2.58382E-02 1.23122E-22
2.65349E-02 1.16615E-22
2.72407E-02 1.10529E-22
2.79555E-02 1.04834E-22
2.86793E-02 9.94994E-23
2.94120E-02 9.44981E-23
3.01537E-02 8.98055E-23
3.09043E-02 8.53993E-23
3.16639E-02 8.12586E-23
3.24324E-02 7.73646E-23
3.32098E-02 7.36999E-23
3.39961E-02 7.02484E-23
3.47912E-02 6.69956E-23
3.55952E-02 6.39279E-23
3.64081E-02 6.10328E-23
3.72297E-02 5.82988E-23
3.80602E-02 5.57153E-23
3.88995E-02 5.32725E-23
3.97476E-02 5.09614E-23
4.06044E-02 4.87735E-23
4.14700E-02 4.67010E-23
4.23443E-02 4.47368E-23
4.32273E-02 4.28741E-23
4.41190E-02 4.11067E-23
4.50194E-02 3.94289E-23
4.59284E-02 3.78353E-23
4.68461E-02 3.63208E-23
4.87074E-02 3.35111E-23
5.06030E-02 3.09660E-23
5.25328E-02 2.86564E-23
5.44967E-02 2.65567E-23
5.64946E-02 2.46444E-23
5.85262E-02 2.29000E-23
6.05914E-02 2.13060E-23
6.26901E-02 1.98472E-23
6.48222E-02 1.85101E-23
6.69873E-02 1.72829E-23
6.91854E-02 1.61548E-23
7.14163E-02 1.51164E-23
7.36799E-02 1.41595E-23
7.59760E-02 1.32763E-23
7.83043E-02 1.24603E-23
8.06647E-02 1.17054E-23
8.30571E-02 1.10063E-23
8.54812E-02 1.03580E-23
8.79369E-02 9.75632E-24
9.04240E-02 9.19719E-24
9.29422E-02 8.67710E-24
9.54915E-02 8.19285E-24
9.80716E-02 7.74151E-24
1.00682E-01 7.32046E-24
1.03323E-01 6.92730E-24
1.05995E-01 6.55985E-24
1.08696E-01 6.21613E-24
1.11427E-01 5.89434E-24
1.14188E-01 5.59282E-24
1.16978E-01 5.31007E-24
1.19797E-01 5.04472E-24
1.22645E-01 4.79549E-24
1.25522E-01 4.56124E-24
1.28428E-01 4.34090E-24
1.31361E-01 4.13351E-24
1.34323E-01 3.93815E-24
1.37313E-01 3.75401E-24
1.40330E-01 3.58034E-24
1.43375E-01 3.41642E-24
1.46447E-01 3.26161E-24
1.49545E-01 3.11532E-24
1.52671E-01 2.97699E-24
1.55823E-01 2.84611E-24
1.59001E-01 2.72221E-24
1.62205E-01 2.60485E-24
1.65435E-01 2.49362E-24
1.68690E-01 2.38815E-24
1.71970E-01 2.28807E-24
1.75276E-01 2.19308E-24
1.78606E-01 2.10286E-24
1.81961E-01 2.01713E-24
1.85340E-01 1.93562E-24
1.88743E-01 1.85810E-24
1.92169E-01 1.78433E-24
1.95619E-01 1.71409E-24
1.99092E-01 1.64720E-24
2.02589E-01 1.58345E-24
2.06107E-01 1.52268E-24
2.09649E-01 1.46473E-24
2.13212E-01 1.40943E-24
2.16797E-01 1.35665E-24
2.20404E-01 1.30624E-24
2.24032E-01 1.25809E-24
2.27680E-01 1.21208E-24
2.31350E-01 1.16809E-24
2.35040E-01 1.12601E-24
2.38751E-01 1.08576E-24
2.42481E-01 1.04723E-24
2.46231E-01 1.01035E-24
2.50000E-01 9.75019E-25
2.53788E-01 9.41170E-25
2.57595E-01 9.08729E-25
2.61421E-01 8.77626E-25
2.65264E-01 8.47797E-25
2.69126E-01 8.19179E-25
2.73005E-01 7.91715E-25
2.76901E-01 7.65350E-25
2.80814E-01 7.40033E-25
2.84744E-01 7.15714E-25
2.88691E-01 6.92347E-25
2.92653E-01 6.69888E-25
2.96632E-01 6.48296E-25
3.00625E-01 6.27531E-25
3.04634E-01 6.07556E-25
3.08658E-01 5.88336E-25
3.12697E-01 5.69837E-25
3.16749E-01 5.52028E-25
3.20816E-01 5.34877E-25
3.24896E-01 5.18357E-25
3.28990E-01 5.02440E-25
3.33097E-01 4.87100E-25
3.37216E-01 4.72314E-25
3.41348E-01 4.58056E-25
3.45492E-01 4.44306E-25
3.49647E-01 4.31041E-25
3.53814E-01 4.18242E-25
3.57992E-01 4.05890E-25
3.62181E-01 3.93966E-25
3.66381E-01 3.82452E-25
3.70590E-01 3.71333E-25
3.74810E-01 3.60592E-25
3.79039E-01 3.50215E-25
3.83277E-01 3.40186E-25
3.87524E-01 3.30492E-25
3.91780E-01 3.21121E-25
3.96044E-01 3.12058E-25
4.00316E-01 3.03294E-25
4.04596E-01 2.94815E-25
4.08882E-01 2.86611E-25
4.13176E-01 2.78672E-25
4.17476E-01 2.70987E-25
4.21783E-01 2.63548E-25
4.26095E-01 2.56344E-25
4.30413E-01 2.49368E-25
4.34737E-01 2.42610E-25
4.39065E-01 2.36064E-25
4.43398E-01 2.29720E-25
4.47736E-01 2.23572E-25
4.52077E-01 2.17612E-25
4.56422E-01 2.11835E-25
4.60770E-01 2.06232E-25
4.65122E-01 2.00799E-25
4.69476E-01 1.95529E-25
4.73832E-01 1.90417E-25
4.78190E-01 1.85457E-25
4.82550E-01 1.80643E-25
4.86912E-01 1.75971E-25
4.91274E-01 1.71436E-25
4.95637E-01 1.67033E-25
5.00000E-01 1.62757E-25
5.04363E-01 1.58605E-25
5.08726E-01 1.54572E-25
5.13088E-01 1.50655E-25
5.17450E-01 1.46848E-25
5.21810E-01 1.43150E-25
5.26168E-01 1.39555E-25
5.30524E-01 1.36061E-25
5.34878E-01 1.32665E-25
5.39230E-01 1.29363E-25
5.43578E-01 1.26152E-25
5.47923E-01 1.23030E-25
5.52264E-01 1.19993E-25
5.56602E-01 1.17039E-25
5.60935E-01 1.14165E-25
5.65263E-01 1.11368E-25
5.69587E-01 1.08647E-25
5.73905E-01 1.05999E-25
5.78217E-01 1.03422E-25
5.82524E-01 1.00913E-25
5.86824E-01 9.84700E-26
5.91118E-01 9.60916E-26
5.95404E-01 9.37755E-26
5.99684E-01 9.15200E-26
6.03956E-01 8.93231E-26
6.08220E-01 8.71831E-26
6.12476E-01 8.50983E-26
6.16723E-01 8.30671E-26
6.20961E-01 8.10879E-26
6.25190E-01 7.91591E-26
6.29410E-01 7.72793E-26
6.33619E-01 7.54471E-26
6.37819E-01 7.36610E-26
6.42008E-01 7.19197E-26
6.46186E-01 7.02221E-26
6.50353E-01 6.85667E-26
6.54508E-01 6.69524E-26
6.58652E-01 6.53780E-26
6.62784E-01 6.38425E-26
6.66903E-01 6.23446E-26
6.71010E-01 6.08835E-26
6.75104E-01 5.94579E-26
6.79184E-01 5.80671E-26
6.83251E-01 5.67099E-26
6.87303E-01 5.53854E-26
6.91342E-01 5.40929E-26
6.95366E-01 5.28314E-26
6.99375E-01 5.16000E-26
7.03368E-01 5.03980E-26
7.07347E-01 4.92245E-26
7.11309E-01 4.80788E-26
7.15256E-01 4.69602E-26
7.19186E-01 4.58679E-26
7.23099E-01 4.48013E-26
7.26995E-01 4.37597E-26
7.30874E-01 4.27423E-26
7.34736E-01 4.17487E-26
7.38579E-01 4.07781E-26
7.42405E-01 3.98299E-26
7.46212E-01 3.89037E-26
7.50000E-01 3.79988E-26
7.53769E-01 3.71147E-26
7.57519E-01 3.62509E-26
7.61249E-01 3.54068E-26
7.64960E-01 3.45820E-26
7.68650E-01 3.37759E-26
7.72320E-01 3.29882E-26
7.75968E-01 3.22182E-26
7.79596E-01 3.14658E-26
7.83203E-01 3.07302E-26
7.86788E-01 3.00113E-26
7.90351E-01 2.93085E-26
7.93893E-01 2.86215E-26
7.97411E-01 2.79499E-26
8.00908E-01 2.72933E-26
8.04381E-01 2.66513E-26
8.07831E-01 2.60237E-26
8.11257E-01 2.54101E-26
8.14660E-01 2.48100E-26
8.18039E-01 2.42234E-26
8.21394E-01 2.36497E-26
8.24724E-01 2.30887E-26
8.28030E-01 2.25402E-26
8.31310E-01 2.20038E-26
8.34565E-01 2.14792E-26
8.37795E-01 2.09662E-26
8.40999E-01 2.04646E-26
8.44177E-01 1.99740E-26
8.47329E-01 1.94942E-26
8.50455E-01 1.90251E-26
8.53553E-01 1.85662E-26
8.56625E-01 1.81175E-26
8.59670E-01 1.76786E-26
8.62687E-01 1.72495E-26
8.65677E-01 1.68298E-26
8.68639E-01 1.64194E-26
8.71572E-01 1.60180E-26
8.74478E-01 1.56255E-26
8.77355E-01 1.52417E-26
8.80203E-01 1.48664E-26
8.83022E-01 1.44994E-26
8.85812E-01 1.41405E-26
8.88573E-01 1.37897E-26
8.91304E-01 1.34467E-26
8.94005E-01 1.31113E-26
8.96677E-01 1.27834E-26
8.99318E-01 1.24629E-26
9.01928E-01 1.21496E-26
9.04508E-01 1.18433E-26
9.07058E-01 1.15440E-26
9.09576E-01 1.12515E-26
9.12063E-01 1.09656E-26
9.14519E-01 1.06862E-26
9.16943E-01 1.04133E-26
9.19335E-01 1.01466E-26
9.21696E-01 9.88616E-27
9.24024E-01 9.63173E-27
9.26320E-01 9.38323E-27
9.28584E-01 9.14057E-27
9.30815E-01 8.90364E-27
9.33013E-01 8.67234E-27
9.35178E-01 8.44656E-27
9.37310E-01 8.22621E-27
9.39409E-01 8.01119E-27
9.41474E-01 7.80142E-27
9.43505E-01 7.59680E-27
9.45503E-01 7.39725E-27
9.47467E-01 7.20269E-27
9.49397E-01 7.01302E-27
9.51293E-01 6.82818E-27
9.53154E-01 6.64809E-27
9.54981E-01 6.47267E-27
9.56773E-01 6.30185E-27
9.58530E-01 6.13555E-27
9.60252E-01 5.97372E-27
9.61940E-01 5.81628E-27
9.63592E-01 5.66316E-27
9.65209E-01 5.51432E-27
9.66790E-01 5.36968E-27
9.68336E-01 5.22920E-27
9.69846E-01 5.09280E-27
9.71321E-01 4.96044E-27
9.72759E-01 4.83206E-27
9.74162E-01 4.70761E-27
9.75528E-01 4.58705E-27
9.76858E-01 4.47032E-27
9.78152E-01 4.35738E-27
9.79410E-01 4.24818E-27
9.80631E-01 4.14269E-27
9.81815E-01 4.04085E-27
9.82963E-01 3.94263E-27
9.84074E-01 3.84799E-27
9.85148E-01 3.75689E-27
9.86185E-01 3.66930E-27
9.87185E-01 3.58518E-27
9.88148E-01 3.50450E-27
9.89074E-01 3.42723E-27
9.89962E-01 3.35334E-27
9.90814E-01 3.28279E-27
9.91627E-01 3.21557E-27
9.92404E-01 3.15165E-27
9.93143E-01 3.09100E-27
9.93844E-01 3.03360E-27
9.94508E-01 2.97942E-27
9.95134E-01 2.92845E-27
9.95722E-01 2.88067E-27
9.96273E-01 2.83605E-27
9.96786E-01 2.79458E-27
9.97261E-01 2.75625E-27
9.97698E-01 2.72104E-27
9.98097E-01 2.68894E-27
9.98459E-01 2.65993E-27
9.98782E-01 2.63400E-27
9.99067E-01 2.61115E-27
9.99315E-01 2.59136E-27
9.99524E-01 2.57463E-27
9.99695E-01 2.56095E-27
9.99829E-01 2.55031E-27
9.99924E-01 2.54272E-27
9.99981E-01 2.53816E-27
1.00000E+00 2.53664E-27
