 #
 # Subroutine ELSEPA. Elastic scattering of electrons and positrons
 #                    by neutral atoms and positive ions
 #
 # Projectile: positron
 # Kinetic energy = 1.50000E+08 eV = 5.51240E+06 a.u.
 #
 # WARNING: High-energy factorization with free-atom DF screening.
 #          Absorption, polarization and exchange corrections are
 #          switched off.
 #          Phase shifts are calculated for the bare nucleus.
 #          Scattering amplitudes are not evaluated.
 #
 # Element: Mg,  Z =  12,  atomic weight = 2.43050E+01 g/mol
 #
 # Nuclear model: Fermi distribution
 #                Average radius = 3.09943E-13 cm
 #                Skin thickness = 5.46000E-14 cm
 #
 # Number of electrons = 12
 #
 # Total elastic cross section = 6.08596E-19 cm**2 = 2.17334E-02 a0**2
 # 1st transport cross section = 1.37124E-26 cm**2 = 4.89678E-10 a0**2
 # 2nd transport cross section = 4.08584E-26 cm**2 = 1.45908E-09 a0**2
 #
 #
 # Differential cross section:                       MU=(1-COS(THETA))/2
 #
 #  THETA        MU          DCS          DCS        Sherman      error
 #  (deg)                 (cm**2/sr)   (a0**2/sr)    function
 #----------------------------------------------------------------------
0.00000E+00 2.34919E-10
7.61557E-13 2.32746E-10
1.18994E-12 2.31537E-10
1.71346E-12 2.30073E-10
2.33225E-12 2.28358E-10
3.04617E-12 2.26403E-10
3.85530E-12 2.24215E-10
4.75964E-12 2.21805E-10
5.75917E-12 2.19184E-10
6.85391E-12 2.16363E-10
8.04379E-12 2.13355E-10
9.32893E-12 2.10172E-10
1.07092E-11 2.06828E-10
1.21847E-11 2.03335E-10
1.37554E-11 1.99709E-10
1.54213E-11 1.95962E-10
1.71823E-11 1.92108E-10
1.90386E-11 1.88162E-10
2.09900E-11 1.84137E-10
2.30367E-11 1.80047E-10
2.51785E-11 1.75904E-10
2.74156E-11 1.71721E-10
2.97478E-11 1.67510E-10
3.21752E-11 1.63283E-10
3.46979E-11 1.59052E-10
3.73157E-11 1.54826E-10
4.00286E-11 1.50617E-10
4.28368E-11 1.46432E-10
4.57402E-11 1.42280E-10
4.87388E-11 1.38170E-10
5.18325E-11 1.34109E-10
5.50215E-11 1.30103E-10
5.83057E-11 1.26159E-10
6.16850E-11 1.22281E-10
6.51595E-11 1.18475E-10
6.87293E-11 1.14744E-10
7.23943E-11 1.11088E-10
7.61544E-11 1.07517E-10
1.18991E-10 7.67156E-11
1.71347E-10 5.44869E-11
2.33223E-10 3.91991E-11
3.04617E-10 2.88612E-11
3.85531E-10 2.18426E-11
4.75965E-10 1.69946E-11
5.75917E-10 1.35622E-11
6.85389E-10 1.10627E-11
8.04380E-10 9.18946E-12
9.32891E-10 7.74689E-12
1.07092E-09 6.60823E-12
1.21847E-09 5.68996E-12
1.37554E-09 4.93583E-12
1.54213E-09 4.30597E-12
1.71823E-09 3.77424E-12
1.90386E-09 3.32140E-12
2.09900E-09 2.93269E-12
2.30367E-09 2.59690E-12
2.51785E-09 2.30530E-12
2.74156E-09 2.05102E-12
2.97478E-09 1.82852E-12
3.21752E-09 1.63327E-12
3.46978E-09 1.46154E-12
3.73156E-09 1.31018E-12
4.00286E-09 1.17651E-12
4.28368E-09 1.05827E-12
4.57402E-09 9.53493E-13
4.87388E-09 8.60491E-13
5.18326E-09 7.77812E-13
5.50215E-09 7.04201E-13
5.83057E-09 6.38522E-13
6.16850E-09 5.79882E-13
6.51596E-09 5.27464E-13
6.87293E-09 4.80387E-13
7.23942E-09 4.37787E-13
7.61544E-09 4.00027E-13
1.18991E-08 1.76319E-13
1.71347E-08 8.82679E-14
2.33223E-08 4.89441E-14
3.04617E-08 2.93856E-14
3.85531E-08 1.87609E-14
4.75965E-08 1.25677E-14
5.75917E-08 8.74833E-15
6.85389E-08 6.28200E-15
8.04380E-08 4.62901E-15
9.32891E-08 3.48627E-15
1.07092E-07 2.67499E-15
1.21847E-07 2.08617E-15
1.37554E-07 1.65041E-15
1.54213E-07 1.32227E-15
1.71823E-07 1.07150E-15
1.90386E-07 8.77222E-16
2.09900E-07 7.24853E-16
2.30367E-07 6.04049E-16
2.51785E-07 5.07293E-16
2.74156E-07 4.29078E-16
2.97478E-07 3.65318E-16
3.21752E-07 3.12931E-16
3.46978E-07 2.69573E-16
3.73156E-07 2.33448E-16
4.00286E-07 2.03157E-16
4.28368E-07 1.77610E-16
4.57402E-07 1.55945E-16
4.87388E-07 1.37476E-16
5.18325E-07 1.21656E-16
5.50215E-07 1.08042E-16
5.83057E-07 9.62764E-17
6.16850E-07 8.60666E-17
6.51596E-07 7.71727E-17
6.87293E-07 6.93962E-17
7.23942E-07 6.25737E-17
7.61543E-07 5.65682E-17
1.18991E-06 2.32220E-17
1.71347E-06 1.12088E-17
2.33223E-06 6.05264E-18
3.04617E-06 3.54860E-18
3.85531E-06 2.21555E-18
4.75964E-06 1.45362E-18
5.75916E-06 9.92794E-19
6.85388E-06 7.00944E-19
8.04378E-06 5.08877E-19
9.32888E-06 3.78313E-19
1.07092E-05 2.87062E-19
1.21846E-05 2.21737E-19
1.37553E-05 1.73979E-19
1.54212E-05 1.38414E-19
1.71822E-05 1.11489E-19
1.90385E-05 9.08113E-20
2.09899E-05 7.47068E-20
2.30365E-05 6.20166E-20
2.51783E-05 5.19087E-20
2.74153E-05 4.37786E-20
2.97475E-05 3.71802E-20
3.21749E-05 3.17800E-20
3.46974E-05 2.73261E-20
3.73152E-05 2.36260E-20
4.00281E-05 2.05313E-20
4.28362E-05 1.79268E-20
4.57395E-05 1.57223E-20
4.87380E-05 1.38462E-20
5.18317E-05 1.22417E-20
5.50205E-05 1.08630E-20
5.83045E-05 9.67307E-21
6.16838E-05 8.64179E-21
6.51582E-05 7.74440E-21
6.87277E-05 6.96051E-21
7.23925E-05 6.27331E-21
7.61524E-05 5.66644E-21
9.21439E-05 3.86888E-21
1.09658E-04 2.73083E-21
1.28695E-04 1.98196E-21
1.49255E-04 1.47299E-21
1.71338E-04 1.11736E-21
1.94942E-04 8.62803E-22
2.20070E-04 6.76758E-22
2.46720E-04 5.38227E-22
2.74892E-04 4.33378E-22
3.04586E-04 3.52843E-22
3.35803E-04 2.90160E-22
3.68542E-04 2.40789E-22
4.02802E-04 2.01475E-22
4.38585E-04 1.69860E-22
4.75889E-04 1.44203E-22
5.14715E-04 1.23206E-22
5.55063E-04 1.05891E-22
5.96931E-04 9.15095E-23
6.40321E-04 7.94852E-23
6.85233E-04 6.93693E-23
7.31665E-04 6.08102E-23
7.79618E-04 5.35290E-23
8.29092E-04 4.73036E-23
8.80086E-04 4.19557E-23
9.32601E-04 3.73410E-23
9.86636E-04 3.33423E-23
1.04219E-03 2.98636E-23
1.09927E-03 2.68258E-23
1.15786E-03 2.41636E-23
1.21797E-03 2.18227E-23
1.27961E-03 1.97578E-23
1.34276E-03 1.79306E-23
1.40743E-03 1.63093E-23
1.47362E-03 1.48665E-23
1.54133E-03 1.35792E-23
1.61056E-03 1.24278E-23
1.68131E-03 1.13954E-23
1.75357E-03 1.04676E-23
1.82735E-03 9.63199E-24
1.90265E-03 8.87775E-24
1.97947E-03 8.19559E-24
2.05780E-03 7.57740E-24
2.13765E-03 7.01615E-24
2.21902E-03 6.50566E-24
2.30190E-03 6.04052E-24
2.38630E-03 5.61601E-24
2.47222E-03 5.22793E-24
2.55965E-03 4.87262E-24
2.64859E-03 4.54681E-24
2.73905E-03 4.24762E-24
2.83103E-03 3.97249E-24
2.92452E-03 3.71913E-24
3.01952E-03 3.48552E-24
3.11604E-03 3.26984E-24
3.21407E-03 3.07048E-24
3.31362E-03 2.88597E-24
3.41468E-03 2.71501E-24
3.51725E-03 2.55642E-24
3.62133E-03 2.40916E-24
3.72692E-03 2.27226E-24
3.83403E-03 2.14487E-24
3.94265E-03 2.02621E-24
4.05278E-03 1.91557E-24
4.16442E-03 1.81231E-24
4.27757E-03 1.71585E-24
4.39223E-03 1.62566E-24
4.50840E-03 1.54127E-24
4.62608E-03 1.46222E-24
4.74527E-03 1.38813E-24
4.86597E-03 1.31862E-24
4.98817E-03 1.25336E-24
5.11188E-03 1.19205E-24
5.23711E-03 1.13439E-24
5.36383E-03 1.08015E-24
5.49207E-03 1.02906E-24
5.62181E-03 9.80928E-25
5.75306E-03 9.35540E-25
5.88581E-03 8.92715E-25
6.02007E-03 8.52281E-25
6.15583E-03 8.14080E-25
6.29310E-03 7.77967E-25
6.43187E-03 7.43808E-25
6.57214E-03 7.11477E-25
6.71392E-03 6.80858E-25
6.85720E-03 6.51845E-25
7.00198E-03 6.24339E-25
7.14827E-03 5.98246E-25
7.29605E-03 5.73481E-25
7.44534E-03 5.49964E-25
7.59612E-03 5.27622E-25
7.97965E-03 4.76458E-25
8.37255E-03 4.31252E-25
8.77480E-03 3.91194E-25
9.18641E-03 3.55602E-25
9.60736E-03 3.23895E-25
1.00376E-02 2.95579E-25
1.04773E-02 2.70230E-25
1.09262E-02 2.47486E-25
1.13844E-02 2.27035E-25
1.18520E-02 2.08607E-25
1.23288E-02 1.91968E-25
1.28150E-02 1.76917E-25
1.33104E-02 1.63276E-25
1.38150E-02 1.50891E-25
1.43290E-02 1.39628E-25
1.48521E-02 1.29367E-25
1.53845E-02 1.20006E-25
1.59262E-02 1.11451E-25
1.64770E-02 1.03623E-25
1.70371E-02 9.64484E-26
1.76063E-02 8.98645E-26
1.81848E-02 8.38143E-26
1.87724E-02 7.82476E-26
1.93692E-02 7.31193E-26
1.99751E-02 6.83892E-26
2.05901E-02 6.40214E-26
2.12143E-02 5.99836E-26
2.18476E-02 5.62467E-26
2.24900E-02 5.27848E-26
2.31415E-02 4.95742E-26
2.38021E-02 4.65937E-26
2.44717E-02 4.38243E-26
2.51504E-02 4.12485E-26
2.58382E-02 3.88506E-26
2.65349E-02 3.66164E-26
2.72407E-02 3.45329E-26
2.79555E-02 3.25883E-26
2.86793E-02 3.07720E-26
2.94120E-02 2.90740E-26
3.01537E-02 2.74855E-26
3.09043E-02 2.59982E-26
3.16639E-02 2.46048E-26
3.24324E-02 2.32984E-26
3.32098E-02 2.20727E-26
3.39961E-02 2.09219E-26
3.47912E-02 1.98408E-26
3.55952E-02 1.88245E-26
3.64081E-02 1.78684E-26
3.72297E-02 1.69686E-26
3.80602E-02 1.61211E-26
3.88995E-02 1.53225E-26
3.97476E-02 1.45696E-26
4.06044E-02 1.38592E-26
4.14700E-02 1.31888E-26
4.23443E-02 1.25556E-26
4.32273E-02 1.19573E-26
4.41190E-02 1.13917E-26
4.50194E-02 1.08567E-26
4.59284E-02 1.03506E-26
4.68461E-02 9.87134E-27
4.87074E-02 8.98737E-27
5.06030E-02 8.19300E-27
5.25328E-02 7.47793E-27
5.44967E-02 6.83321E-27
5.64946E-02 6.25100E-27
5.85262E-02 5.72447E-27
6.05914E-02 5.24762E-27
6.26901E-02 4.81516E-27
6.48222E-02 4.42245E-27
6.69873E-02 4.06538E-27
6.91854E-02 3.74033E-27
7.14163E-02 3.44408E-27
7.36799E-02 3.17379E-27
7.59760E-02 2.92690E-27
7.83043E-02 2.70116E-27
8.06647E-02 2.49456E-27
8.30571E-02 2.30529E-27
8.54812E-02 2.13173E-27
8.79369E-02 1.97245E-27
9.04240E-02 1.82614E-27
9.29422E-02 1.69163E-27
9.54915E-02 1.56789E-27
9.80716E-02 1.45395E-27
1.00682E-01 1.34896E-27
1.03323E-01 1.25216E-27
1.05995E-01 1.16284E-27
1.08696E-01 1.08037E-27
1.11427E-01 1.00418E-27
1.14188E-01 9.33745E-28
1.16978E-01 8.68592E-28
1.19797E-01 8.08292E-28
1.22645E-01 7.52451E-28
1.25522E-01 7.00714E-28
1.28428E-01 6.52754E-28
1.31361E-01 6.08273E-28
1.34323E-01 5.66999E-28
1.37313E-01 5.28684E-28
1.40330E-01 4.93099E-28
1.43375E-01 4.60036E-28
1.46447E-01 4.29304E-28
1.49545E-01 4.00726E-28
1.52671E-01 3.74142E-28
1.55823E-01 3.49404E-28
1.59001E-01 3.26374E-28
1.62205E-01 3.04928E-28
1.65435E-01 2.84950E-28
1.68690E-01 2.66334E-28
1.71970E-01 2.48982E-28
1.75276E-01 2.32802E-28
1.78606E-01 2.17711E-28
1.81961E-01 2.03633E-28
1.85340E-01 1.90495E-28
1.88743E-01 1.78232E-28
1.92169E-01 1.66783E-28
1.95619E-01 1.56090E-28
1.99092E-01 1.46103E-28
2.02589E-01 1.36772E-28
2.06107E-01 1.28052E-28
2.09649E-01 1.19901E-28
2.13212E-01 1.12282E-28
2.16797E-01 1.05157E-28
2.20404E-01 9.84946E-29
2.24032E-01 9.22624E-29
2.27680E-01 8.64320E-29
2.31350E-01 8.09767E-29
2.35040E-01 7.58715E-29
2.38751E-01 7.10933E-29
2.42481E-01 6.66205E-29
2.46231E-01 6.24330E-29
2.50000E-01 5.85122E-29
2.53788E-01 5.48405E-29
2.57595E-01 5.14018E-29
2.61421E-01 4.81810E-29
2.65264E-01 4.51638E-29
2.69126E-01 4.23372E-29
2.73005E-01 3.96889E-29
2.76901E-01 3.72073E-29
2.80814E-01 3.48818E-29
2.84744E-01 3.27025E-29
2.88691E-01 3.06599E-29
2.92653E-01 2.87453E-29
2.96632E-01 2.69506E-29
3.00625E-01 2.52682E-29
3.04634E-01 2.36910E-29
3.08658E-01 2.22123E-29
3.12697E-01 2.08258E-29
3.16749E-01 1.95259E-29
3.20816E-01 1.83069E-29
3.24896E-01 1.71639E-29
3.28990E-01 1.60921E-29
3.33097E-01 1.50869E-29
3.37216E-01 1.41443E-29
3.41348E-01 1.32603E-29
3.45492E-01 1.24312E-29
3.49647E-01 1.16537E-29
3.53814E-01 1.09244E-29
3.57992E-01 1.02405E-29
3.62181E-01 9.59901E-30
3.66381E-01 8.99738E-30
3.70590E-01 8.43312E-30
3.74810E-01 7.90390E-30
3.79039E-01 7.40755E-30
3.83277E-01 6.94203E-30
3.87524E-01 6.50543E-30
3.91780E-01 6.09596E-30
3.96044E-01 5.71194E-30
4.00316E-01 5.35179E-30
4.04596E-01 5.01404E-30
4.08882E-01 4.69730E-30
4.13176E-01 4.40027E-30
4.17476E-01 4.12174E-30
4.21783E-01 3.86056E-30
4.26095E-01 3.61565E-30
4.30413E-01 3.38602E-30
4.34737E-01 3.17072E-30
4.39065E-01 2.96886E-30
4.43398E-01 2.77961E-30
4.47736E-01 2.60220E-30
4.52077E-01 2.43588E-30
4.56422E-01 2.27998E-30
4.60770E-01 2.13386E-30
4.65122E-01 1.99690E-30
4.69476E-01 1.86854E-30
4.73832E-01 1.74824E-30
4.78190E-01 1.63552E-30
4.82550E-01 1.52989E-30
4.86912E-01 1.43092E-30
4.91274E-01 1.33820E-30
4.95637E-01 1.25133E-30
5.00000E-01 1.16996E-30
5.04363E-01 1.09374E-30
5.08726E-01 1.02236E-30
5.13088E-01 9.55509E-31
5.17450E-01 8.92908E-31
5.21810E-01 8.34292E-31
5.26168E-01 7.79414E-31
5.30524E-01 7.28039E-31
5.34878E-01 6.79950E-31
5.39230E-01 6.34940E-31
5.43578E-01 5.92817E-31
5.47923E-01 5.53400E-31
5.52264E-01 5.16520E-31
5.56602E-01 4.82017E-31
5.60935E-01 4.49742E-31
5.65263E-01 4.19554E-31
5.69587E-01 3.91323E-31
5.73905E-01 3.64926E-31
5.78217E-01 3.40245E-31
5.82524E-01 3.17173E-31
5.86824E-01 2.95608E-31
5.91118E-01 2.75454E-31
5.95404E-01 2.56622E-31
5.99684E-01 2.39027E-31
6.03956E-01 2.22592E-31
6.08220E-01 2.07241E-31
6.12476E-01 1.92906E-31
6.16723E-01 1.79523E-31
6.20961E-01 1.67028E-31
6.25190E-01 1.55367E-31
6.29410E-01 1.44485E-31
6.33619E-01 1.34332E-31
6.37819E-01 1.24861E-31
6.42008E-01 1.16027E-31
6.46186E-01 1.07791E-31
6.50353E-01 1.00112E-31
6.54508E-01 9.29543E-32
6.58652E-01 8.62845E-32
6.62784E-01 8.00705E-32
6.66903E-01 7.42823E-32
6.71010E-01 6.88921E-32
6.75104E-01 6.38737E-32
6.79184E-01 5.92026E-32
6.83251E-01 5.48558E-32
6.87303E-01 5.08119E-32
6.91342E-01 4.70507E-32
6.95366E-01 4.35535E-32
6.99375E-01 4.03026E-32
7.03368E-01 3.72814E-32
7.07347E-01 3.44747E-32
7.11309E-01 3.18680E-32
7.15256E-01 2.94478E-32
7.19186E-01 2.72013E-32
7.23099E-01 2.51169E-32
7.26995E-01 2.31836E-32
7.30874E-01 2.13908E-32
7.34736E-01 1.97292E-32
7.38579E-01 1.81895E-32
7.42405E-01 1.67634E-32
7.46212E-01 1.54430E-32
7.50000E-01 1.42209E-32
7.53769E-01 1.30904E-32
7.57519E-01 1.20449E-32
7.61249E-01 1.10785E-32
7.64960E-01 1.01857E-32
7.68650E-01 9.36106E-33
7.72320E-01 8.59987E-33
7.75968E-01 7.89755E-33
7.79596E-01 7.24987E-33
7.83203E-01 6.65289E-33
7.86788E-01 6.10292E-33
7.90351E-01 5.59653E-33
7.93893E-01 5.13051E-33
7.97411E-01 4.70191E-33
8.00908E-01 4.30794E-33
8.04381E-01 3.94602E-33
8.07831E-01 3.61374E-33
8.11257E-01 3.30888E-33
8.14660E-01 3.02935E-33
8.18039E-01 2.77322E-33
8.21394E-01 2.53868E-33
8.24724E-01 2.32407E-33
8.28030E-01 2.12782E-33
8.31310E-01 1.94852E-33
8.34565E-01 1.78480E-33
8.37795E-01 1.63543E-33
8.40999E-01 1.49926E-33
8.44177E-01 1.37522E-33
8.47329E-01 1.26231E-33
8.50455E-01 1.15963E-33
8.53553E-01 1.06632E-33
8.56625E-01 9.81582E-34
8.59670E-01 9.04709E-34
8.62687E-01 8.35014E-34
8.65677E-01 7.71890E-34
8.68639E-01 7.14740E-34
8.71572E-01 6.63054E-34
8.74478E-01 6.16332E-34
8.77355E-01 5.74137E-34
8.80203E-01 5.36037E-34
8.83022E-01 5.01654E-34
8.85812E-01 4.70650E-34
8.88573E-01 4.42682E-34
8.91304E-01 4.17467E-34
8.94005E-01 3.94733E-34
8.96677E-01 3.74224E-34
8.99318E-01 3.55715E-34
9.01928E-01 3.38995E-34
9.04508E-01 3.23877E-34
9.07058E-01 3.10184E-34
9.09576E-01 2.97761E-34
9.12063E-01 2.86460E-34
9.14519E-01 2.76147E-34
9.16943E-01 2.66718E-34
9.19335E-01 2.58049E-34
9.21696E-01 2.50054E-34
9.24024E-01 2.42637E-34
9.26320E-01 2.35724E-34
9.28584E-01 2.29241E-34
9.30815E-01 2.23130E-34
9.33013E-01 2.17331E-34
9.35178E-01 2.11798E-34
9.37310E-01 2.06474E-34
9.39409E-01 2.01339E-34
9.41474E-01 1.96348E-34
9.43505E-01 1.91476E-34
9.45503E-01 1.86687E-34
9.47467E-01 1.81971E-34
9.49397E-01 1.77305E-34
9.51293E-01 1.72667E-34
9.53154E-01 1.68056E-34
9.54981E-01 1.63449E-34
9.56773E-01 1.58851E-34
9.58530E-01 1.54245E-34
9.60252E-01 1.49635E-34
9.61940E-01 1.45013E-34
9.63592E-01 1.40378E-34
9.65209E-01 1.35733E-34
9.66790E-01 1.31080E-34
9.68336E-01 1.26413E-34
9.69846E-01 1.21744E-34
9.71321E-01 1.17074E-34
9.72759E-01 1.12407E-34
9.74162E-01 1.07748E-34
9.75528E-01 1.03109E-34
9.76858E-01 9.84832E-35
9.78152E-01 9.38901E-35
9.79410E-01 8.93248E-35
9.80631E-01 8.48049E-35
9.81815E-01 8.03310E-35
9.82963E-01 7.59109E-35
9.84074E-01 7.15561E-35
9.85148E-01 6.72679E-35
9.86185E-01 6.30584E-35
9.87185E-01 5.89329E-35
9.88148E-01 5.48987E-35
9.89074E-01 5.09574E-35
9.89962E-01 4.71258E-35
9.90814E-01 4.33983E-35
9.91627E-01 3.97929E-35
9.92404E-01 3.63132E-35
9.93143E-01 3.29597E-35
9.93844E-01 2.97443E-35
9.94508E-01 2.66708E-35
9.95134E-01 2.37401E-35
9.95722E-01 2.09629E-35
9.96273E-01 1.83423E-35
9.96786E-01 1.58829E-35
9.97261E-01 1.35876E-35
9.97698E-01 1.14633E-35
9.98097E-01 9.50672E-36
9.98459E-01 7.73228E-36
9.98782E-01 6.13386E-36
9.99067E-01 4.71713E-36
9.99315E-01 3.48527E-36
9.99524E-01 2.43841E-36
9.99695E-01 1.58012E-36
9.99829E-01 9.10276E-37
9.99924E-01 4.29918E-37
9.99981E-01 1.43291E-37
1.00000E+00 4.70088E-38
