 #
 # Subroutine ELSEPA. Elastic scattering of electrons and positrons
 #                    by neutral atoms and positive ions
 #
 # Projectile: positron
 # Kinetic energy = 2.00000E+08 eV = 7.34987E+06 a.u.
 #
 # WARNING: High-energy factorization with free-atom DF screening.
 #          Absorption, polarization and exchange corrections are
 #          switched off.
 #          Phase shifts are calculated for the bare nucleus.
 #          Scattering amplitudes are not evaluated.
 #
 # Element: Mg,  Z =  12,  atomic weight = 2.43050E+01 g/mol
 #
 # Nuclear model: Fermi distribution
 #                Average radius = 3.09943E-13 cm
 #                Skin thickness = 5.46000E-14 cm
 #
 # Number of electrons = 12
 #
 # Total elastic cross section = 6.08778E-19 cm**2 = 2.17399E-02 a0**2
 # 1st transport cross section = 7.75966E-27 cm**2 = 2.77103E-10 a0**2
 # 2nd transport cross section = 2.31855E-26 cm**2 = 8.27969E-10 a0**2
 #
 #
 # Differential cross section:                       MU=(1-COS(THETA))/2
 #
 #  THETA        MU          DCS          DCS        Sherman      error
 #  (deg)                 (cm**2/sr)   (a0**2/sr)    function
 #----------------------------------------------------------------------
0.00000E+00 4.16925E-10
7.61557E-13 4.10118E-10
1.18994E-12 4.06362E-10
1.71346E-12 4.01836E-10
2.33225E-12 3.96579E-10
3.04617E-12 3.90634E-10
3.85530E-12 3.84046E-10
4.75964E-12 3.76868E-10
5.75917E-12 3.69152E-10
6.85391E-12 3.60957E-10
8.04379E-12 3.52337E-10
9.32893E-12 3.43353E-10
1.07092E-11 3.34063E-10
1.21847E-11 3.24522E-10
1.37554E-11 3.14790E-10
1.54213E-11 3.04914E-10
1.71823E-11 2.94954E-10
1.90386E-11 2.84953E-10
2.09900E-11 2.74958E-10
2.30367E-11 2.65013E-10
2.51785E-11 2.55152E-10
2.74156E-11 2.45415E-10
2.97478E-11 2.35831E-10
3.21752E-11 2.26427E-10
3.46979E-11 2.17228E-10
3.73157E-11 2.08253E-10
4.00286E-11 1.99512E-10
4.28368E-11 1.91030E-10
4.57402E-11 1.82819E-10
4.87388E-11 1.74887E-10
5.18325E-11 1.67236E-10
5.50215E-11 1.59867E-10
5.83057E-11 1.52779E-10
6.16850E-11 1.45992E-10
6.51595E-11 1.39497E-10
6.87293E-11 1.33269E-10
7.23943E-11 1.27305E-10
7.61544E-11 1.21598E-10
1.18991E-10 7.75470E-11
1.71347E-10 5.13233E-11
2.33223E-10 3.56045E-11
3.04617E-10 2.59308E-11
3.85531E-10 1.96723E-11
4.75965E-10 1.54147E-11
5.75917E-10 1.23731E-11
6.85389E-10 1.01180E-11
8.04380E-10 8.37778E-12
9.32891E-10 7.00838E-12
1.07092E-09 5.90747E-12
1.21847E-09 5.00685E-12
1.37554E-09 4.26754E-12
1.54213E-09 3.64870E-12
1.71823E-09 3.13275E-12
1.90386E-09 2.69837E-12
2.09900E-09 2.33123E-12
2.30367E-09 2.02106E-12
2.51785E-09 1.75633E-12
2.74156E-09 1.53136E-12
2.97478E-09 1.33880E-12
3.21752E-09 1.17379E-12
3.46978E-09 1.03218E-12
3.73156E-09 9.09970E-13
4.00286E-09 8.03584E-13
4.28368E-09 7.12097E-13
4.57402E-09 6.33883E-13
4.87388E-09 5.64679E-13
5.18326E-09 5.04564E-13
5.50215E-09 4.52528E-13
5.83057E-09 4.06172E-13
6.16850E-09 3.65722E-13
6.51596E-09 3.30252E-13
6.87293E-09 2.98623E-13
7.23942E-09 2.70775E-13
7.61544E-09 2.46093E-13
1.18991E-08 1.05033E-13
1.71347E-08 5.23219E-14
2.33223E-08 2.90878E-14
3.04617E-08 1.75095E-14
3.85531E-08 1.11852E-14
4.75965E-08 7.48206E-15
5.75917E-08 5.19275E-15
6.85389E-08 3.71466E-15
8.04380E-08 2.72579E-15
9.32891E-08 2.04409E-15
1.07092E-07 1.56206E-15
1.21847E-07 1.21355E-15
1.37554E-07 9.56696E-16
1.54213E-07 7.64080E-16
1.71823E-07 6.17430E-16
1.90386E-07 5.04214E-16
2.09900E-07 4.15722E-16
2.30367E-07 3.45763E-16
2.51785E-07 2.89882E-16
2.74156E-07 2.44820E-16
2.97478E-07 2.08164E-16
3.21752E-07 1.78105E-16
3.46978E-07 1.53271E-16
3.73156E-07 1.32611E-16
4.00286E-07 1.15312E-16
4.28368E-07 1.00740E-16
4.57402E-07 8.83963E-17
4.87388E-07 7.78840E-17
5.18325E-07 6.88872E-17
5.50215E-07 6.11517E-17
5.83057E-07 5.44708E-17
6.16850E-07 4.86773E-17
6.51596E-07 4.36332E-17
6.87293E-07 3.92254E-17
7.23942E-07 3.53601E-17
7.61543E-07 3.19590E-17
1.18991E-06 1.31012E-17
1.71347E-06 6.32000E-18
2.33223E-06 3.41177E-18
3.04617E-06 1.99986E-18
3.85531E-06 1.24844E-18
4.75964E-06 8.19064E-19
5.75916E-06 5.59403E-19
6.85388E-06 3.94955E-19
8.04378E-06 2.86732E-19
9.32888E-06 2.13164E-19
1.07092E-05 1.61747E-19
1.21846E-05 1.24939E-19
1.37553E-05 9.80297E-20
1.54212E-05 7.79901E-20
1.71822E-05 6.28189E-20
1.90385E-05 5.11680E-20
2.09899E-05 4.20939E-20
2.30365E-05 3.49435E-20
2.51783E-05 2.92481E-20
2.74153E-05 2.46672E-20
2.97475E-05 2.09493E-20
3.21749E-05 1.79065E-20
3.46974E-05 1.53970E-20
3.73152E-05 1.33121E-20
4.00281E-05 1.15684E-20
4.28362E-05 1.01009E-20
4.57395E-05 8.85875E-21
4.87380E-05 7.80166E-21
5.18317E-05 6.89759E-21
5.50205E-05 6.12076E-21
5.83045E-05 5.45031E-21
6.16838E-05 4.86923E-21
6.51582E-05 4.36359E-21
6.87277E-05 3.92191E-21
7.23925E-05 3.53471E-21
7.61524E-05 3.19162E-21
9.21439E-05 2.17897E-21
1.09658E-04 1.53788E-21
1.28695E-04 1.11604E-21
1.49255E-04 8.29355E-22
1.71338E-04 6.29049E-22
1.94942E-04 4.85679E-22
2.20070E-04 3.80903E-22
2.46720E-04 3.02891E-22
2.74892E-04 2.43850E-22
3.04586E-04 1.98505E-22
3.35803E-04 1.63213E-22
3.68542E-04 1.35419E-22
4.02802E-04 1.13288E-22
4.38585E-04 9.54932E-23
4.75889E-04 8.10528E-23
5.14715E-04 6.92369E-23
5.55063E-04 5.94938E-23
5.96931E-04 5.14020E-23
6.40321E-04 4.46374E-23
6.85233E-04 3.89471E-23
7.31665E-04 3.41331E-23
7.79618E-04 3.00383E-23
8.29092E-04 2.65377E-23
8.80086E-04 2.35310E-23
9.32601E-04 2.09369E-23
9.86636E-04 1.86894E-23
1.04219E-03 1.67344E-23
1.09927E-03 1.50274E-23
1.15786E-03 1.35318E-23
1.21797E-03 1.22169E-23
1.27961E-03 1.10571E-23
1.34276E-03 1.00311E-23
1.40743E-03 9.12083E-24
1.47362E-03 8.31094E-24
1.54133E-03 7.58848E-24
1.61056E-03 6.94240E-24
1.68131E-03 6.36322E-24
1.75357E-03 5.84282E-24
1.82735E-03 5.37419E-24
1.90265E-03 4.95130E-24
1.97947E-03 4.56891E-24
2.05780E-03 4.22245E-24
2.13765E-03 3.90797E-24
2.21902E-03 3.62200E-24
2.30190E-03 3.36149E-24
2.38630E-03 3.12379E-24
2.47222E-03 2.90655E-24
2.55965E-03 2.70769E-24
2.64859E-03 2.52539E-24
2.73905E-03 2.35803E-24
2.83103E-03 2.20417E-24
2.92452E-03 2.06252E-24
3.01952E-03 1.93194E-24
3.11604E-03 1.81142E-24
3.21407E-03 1.70005E-24
3.31362E-03 1.59700E-24
3.41468E-03 1.50155E-24
3.51725E-03 1.41303E-24
3.62133E-03 1.33086E-24
3.72692E-03 1.25450E-24
3.83403E-03 1.18346E-24
3.94265E-03 1.11730E-24
4.05278E-03 1.05564E-24
4.16442E-03 9.98113E-25
4.27757E-03 9.44391E-25
4.39223E-03 8.94178E-25
4.50840E-03 8.47205E-25
4.62608E-03 8.03225E-25
4.74527E-03 7.62014E-25
4.86597E-03 7.23367E-25
4.98817E-03 6.87096E-25
5.11188E-03 6.53029E-25
5.23711E-03 6.21009E-25
5.36383E-03 5.90889E-25
5.49207E-03 5.62539E-25
5.62181E-03 5.35834E-25
5.75306E-03 5.10664E-25
5.88581E-03 4.86923E-25
6.02007E-03 4.64518E-25
6.15583E-03 4.43358E-25
6.29310E-03 4.23363E-25
6.43187E-03 4.04457E-25
6.57214E-03 3.86570E-25
6.71392E-03 3.69638E-25
6.85720E-03 3.53601E-25
7.00198E-03 3.38402E-25
7.14827E-03 3.23992E-25
7.29605E-03 3.10321E-25
7.44534E-03 2.97344E-25
7.59612E-03 2.85021E-25
7.97965E-03 2.56825E-25
8.37255E-03 2.31941E-25
8.77480E-03 2.09917E-25
9.18641E-03 1.90374E-25
9.60736E-03 1.72985E-25
1.00376E-02 1.57477E-25
1.04773E-02 1.43612E-25
1.09262E-02 1.31190E-25
1.13844E-02 1.20035E-25
1.18520E-02 1.09999E-25
1.23288E-02 1.00951E-25
1.28150E-02 9.27781E-26
1.33104E-02 8.53828E-26
1.38150E-02 7.86794E-26
1.43290E-02 7.25928E-26
1.48521E-02 6.70576E-26
1.53845E-02 6.20158E-26
1.59262E-02 5.74168E-26
1.64770E-02 5.32155E-26
1.70371E-02 4.93723E-26
1.76063E-02 4.58520E-26
1.81848E-02 4.26232E-26
1.87724E-02 3.96582E-26
1.93692E-02 3.69322E-26
1.99751E-02 3.44229E-26
2.05901E-02 3.21106E-26
2.12143E-02 2.99774E-26
2.18476E-02 2.80075E-26
2.24900E-02 2.61865E-26
2.31415E-02 2.45014E-26
2.38021E-02 2.29407E-26
2.44717E-02 2.14938E-26
2.51504E-02 2.01513E-26
2.58382E-02 1.89045E-26
2.65349E-02 1.77456E-26
2.72407E-02 1.66676E-26
2.79555E-02 1.56640E-26
2.86793E-02 1.47289E-26
2.94120E-02 1.38571E-26
3.01537E-02 1.30437E-26
3.09043E-02 1.22842E-26
3.16639E-02 1.15745E-26
3.24324E-02 1.09110E-26
3.32098E-02 1.02903E-26
3.39961E-02 9.70916E-27
3.47912E-02 9.16481E-27
3.55952E-02 8.65461E-27
3.64081E-02 8.17613E-27
3.72297E-02 7.72716E-27
3.80602E-02 7.30563E-27
3.88995E-02 6.90967E-27
3.97476E-02 6.53753E-27
4.06044E-02 6.18760E-27
4.14700E-02 5.85839E-27
4.23443E-02 5.54854E-27
4.32273E-02 5.25676E-27
4.41190E-02 4.98188E-27
4.50194E-02 4.72280E-27
4.59284E-02 4.47852E-27
4.68461E-02 4.24808E-27
4.87074E-02 3.82533E-27
5.06030E-02 3.44827E-27
5.25328E-02 3.11146E-27
5.44967E-02 2.81018E-27
5.64946E-02 2.54031E-27
5.85262E-02 2.29828E-27
6.05914E-02 2.08094E-27
6.26901E-02 1.88555E-27
6.48222E-02 1.70971E-27
6.69873E-02 1.55129E-27
6.91854E-02 1.40842E-27
7.14163E-02 1.27946E-27
7.36799E-02 1.16295E-27
7.59760E-02 1.05759E-27
7.83043E-02 9.62249E-28
8.06647E-02 8.75898E-28
8.30571E-02 7.97636E-28
8.54812E-02 7.26655E-28
8.79369E-02 6.62237E-28
9.04240E-02 6.03738E-28
9.29422E-02 5.50582E-28
9.54915E-02 5.02256E-28
9.80716E-02 4.58297E-28
1.00682E-01 4.18291E-28
1.03323E-01 3.81865E-28
1.05995E-01 3.48684E-28
1.08696E-01 3.18447E-28
1.11427E-01 2.90881E-28
1.14188E-01 2.65742E-28
1.16978E-01 2.42808E-28
1.19797E-01 2.21878E-28
1.22645E-01 2.02773E-28
1.25522E-01 1.85328E-28
1.28428E-01 1.69395E-28
1.31361E-01 1.54839E-28
1.34323E-01 1.41538E-28
1.37313E-01 1.29383E-28
1.40330E-01 1.18271E-28
1.43375E-01 1.08113E-28
1.46447E-01 9.88244E-29
1.49545E-01 9.03302E-29
1.52671E-01 8.25615E-29
1.55823E-01 7.54557E-29
1.59001E-01 6.89558E-29
1.62205E-01 6.30096E-29
1.65435E-01 5.75698E-29
1.68690E-01 5.25931E-29
1.71970E-01 4.80400E-29
1.75276E-01 4.38744E-29
1.78606E-01 4.00634E-29
1.81961E-01 3.65769E-29
1.85340E-01 3.33873E-29
1.88743E-01 3.04697E-29
1.92169E-01 2.78008E-29
1.95619E-01 2.53598E-29
1.99092E-01 2.31274E-29
2.02589E-01 2.10860E-29
2.06107E-01 1.92195E-29
2.09649E-01 1.75131E-29
2.13212E-01 1.59533E-29
2.16797E-01 1.45278E-29
2.20404E-01 1.32252E-29
2.24032E-01 1.20351E-29
2.27680E-01 1.09481E-29
2.31350E-01 9.95547E-30
2.35040E-01 9.04918E-30
2.38751E-01 8.22194E-30
2.42481E-01 7.46705E-30
2.46231E-01 6.77839E-30
2.50000E-01 6.15031E-30
2.53788E-01 5.57767E-30
2.57595E-01 5.05574E-30
2.61421E-01 4.58019E-30
2.65264E-01 4.14705E-30
2.69126E-01 3.75270E-30
2.73005E-01 3.39378E-30
2.76901E-01 3.06726E-30
2.80814E-01 2.77034E-30
2.84744E-01 2.50046E-30
2.88691E-01 2.25526E-30
2.92653E-01 2.03260E-30
2.96632E-01 1.83051E-30
3.00625E-01 1.64719E-30
3.04634E-01 1.48099E-30
3.08658E-01 1.33039E-30
3.12697E-01 1.19402E-30
3.16749E-01 1.07061E-30
3.20816E-01 9.59009E-31
3.24896E-01 8.58151E-31
3.28990E-01 7.67071E-31
3.33097E-01 6.84884E-31
3.37216E-01 6.10782E-31
3.41348E-01 5.44027E-31
3.45492E-01 4.83944E-31
3.49647E-01 4.29917E-31
3.53814E-01 3.81383E-31
3.57992E-01 3.37829E-31
3.62181E-01 2.98788E-31
3.66381E-01 2.63831E-31
3.70590E-01 2.32572E-31
3.74810E-01 2.04654E-31
3.79039E-01 1.79755E-31
3.83277E-01 1.57582E-31
3.87524E-01 1.37867E-31
3.91780E-01 1.20367E-31
3.96044E-01 1.04860E-31
4.00316E-01 9.11468E-32
4.04596E-01 7.90445E-32
4.08882E-01 6.83878E-32
4.13176E-01 5.90268E-32
4.17476E-01 5.08256E-32
4.21783E-01 4.36612E-32
4.26095E-01 3.74223E-32
4.30413E-01 3.20081E-32
4.34737E-01 2.73279E-32
4.39065E-01 2.32995E-32
4.43398E-01 1.98489E-32
4.47736E-01 1.69095E-32
4.52077E-01 1.44211E-32
4.56422E-01 1.23300E-32
4.60770E-01 1.05875E-32
4.65122E-01 9.15035E-33
4.69476E-01 7.97950E-33
4.73832E-01 7.04017E-33
4.78190E-01 6.30129E-33
4.82550E-01 5.73508E-33
4.86912E-01 5.31689E-33
4.91274E-01 5.02478E-33
4.95637E-01 4.83931E-33
5.00000E-01 4.74326E-33
5.04363E-01 4.72143E-33
5.08726E-01 4.76048E-33
5.13088E-01 4.84867E-33
5.17450E-01 4.97571E-33
5.21810E-01 5.13267E-33
5.26168E-01 5.31174E-33
5.30524E-01 5.50626E-33
5.34878E-01 5.71041E-33
5.39230E-01 5.91928E-33
5.43578E-01 6.12863E-33
5.47923E-01 6.33496E-33
5.52264E-01 6.53534E-33
5.56602E-01 6.72734E-33
5.60935E-01 6.90897E-33
5.65263E-01 7.07870E-33
5.69587E-01 7.23531E-33
5.73905E-01 7.37788E-33
5.78217E-01 7.50583E-33
5.82524E-01 7.61870E-33
5.86824E-01 7.71633E-33
5.91118E-01 7.79867E-33
5.95404E-01 7.86585E-33
5.99684E-01 7.91809E-33
6.03956E-01 7.95574E-33
6.08220E-01 7.97924E-33
6.12476E-01 7.98908E-33
6.16723E-01 7.98578E-33
6.20961E-01 7.96998E-33
6.25190E-01 7.94226E-33
6.29410E-01 7.90331E-33
6.33619E-01 7.85376E-33
6.37819E-01 7.79430E-33
6.42008E-01 7.72558E-33
6.46186E-01 7.64827E-33
6.50353E-01 7.56305E-33
6.54508E-01 7.47053E-33
6.58652E-01 7.37138E-33
6.62784E-01 7.26618E-33
6.66903E-01 7.15553E-33
6.71010E-01 7.04001E-33
6.75104E-01 6.92015E-33
6.79184E-01 6.79650E-33
6.83251E-01 6.66955E-33
6.87303E-01 6.53976E-33
6.91342E-01 6.40761E-33
6.95366E-01 6.27350E-33
6.99375E-01 6.13785E-33
7.03368E-01 6.00103E-33
7.07347E-01 5.86341E-33
7.11309E-01 5.72529E-33
7.15256E-01 5.58699E-33
7.19186E-01 5.44881E-33
7.23099E-01 5.31100E-33
7.26995E-01 5.17381E-33
7.30874E-01 5.03747E-33
7.34736E-01 4.90217E-33
7.38579E-01 4.76812E-33
7.42405E-01 4.63548E-33
7.46212E-01 4.50441E-33
7.50000E-01 4.37505E-33
7.53769E-01 4.24752E-33
7.57519E-01 4.12192E-33
7.61249E-01 3.99837E-33
7.64960E-01 3.87695E-33
7.68650E-01 3.75774E-33
7.72320E-01 3.64078E-33
7.75968E-01 3.52615E-33
7.79596E-01 3.41388E-33
7.83203E-01 3.30401E-33
7.86788E-01 3.19657E-33
7.90351E-01 3.09158E-33
7.93893E-01 2.98904E-33
7.97411E-01 2.88898E-33
8.00908E-01 2.79139E-33
8.04381E-01 2.69625E-33
8.07831E-01 2.60357E-33
8.11257E-01 2.51333E-33
8.14660E-01 2.42552E-33
8.18039E-01 2.34010E-33
8.21394E-01 2.25705E-33
8.24724E-01 2.17636E-33
8.28030E-01 2.09797E-33
8.31310E-01 2.02187E-33
8.34565E-01 1.94800E-33
8.37795E-01 1.87636E-33
8.40999E-01 1.80687E-33
8.44177E-01 1.73952E-33
8.47329E-01 1.67425E-33
8.50455E-01 1.61103E-33
8.53553E-01 1.54980E-33
8.56625E-01 1.49053E-33
8.59670E-01 1.43318E-33
8.62687E-01 1.37769E-33
8.65677E-01 1.32403E-33
8.68639E-01 1.27214E-33
8.71572E-01 1.22198E-33
8.74478E-01 1.17352E-33
8.77355E-01 1.12669E-33
8.80203E-01 1.08147E-33
8.83022E-01 1.03779E-33
8.85812E-01 9.95637E-34
8.88573E-01 9.54944E-34
8.91304E-01 9.15679E-34
8.94005E-01 8.77802E-34
8.96677E-01 8.41265E-34
8.99318E-01 8.06033E-34
9.01928E-01 7.72063E-34
9.04508E-01 7.39320E-34
9.07058E-01 7.07763E-34
9.09576E-01 6.77356E-34
9.12063E-01 6.48062E-34
9.14519E-01 6.19844E-34
9.16943E-01 5.92673E-34
9.19335E-01 5.66509E-34
9.21696E-01 5.41323E-34
9.24024E-01 5.17079E-34
9.26320E-01 4.93748E-34
9.28584E-01 4.71297E-34
9.30815E-01 4.49700E-34
9.33013E-01 4.28927E-34
9.35178E-01 4.08949E-34
9.37310E-01 3.89736E-34
9.39409E-01 3.71269E-34
9.41474E-01 3.53516E-34
9.43505E-01 3.36456E-34
9.45503E-01 3.20060E-34
9.47467E-01 3.04311E-34
9.49397E-01 2.89182E-34
9.51293E-01 2.74652E-34
9.53154E-01 2.60701E-34
9.54981E-01 2.47306E-34
9.56773E-01 2.34452E-34
9.58530E-01 2.22115E-34
9.60252E-01 2.10281E-34
9.61940E-01 1.98929E-34
9.63592E-01 1.88042E-34
9.65209E-01 1.77606E-34
9.66790E-01 1.67604E-34
9.68336E-01 1.58019E-34
9.69846E-01 1.48837E-34
9.71321E-01 1.40046E-34
9.72759E-01 1.31630E-34
9.74162E-01 1.23576E-34
9.75528E-01 1.15874E-34
9.76858E-01 1.08507E-34
9.78152E-01 1.01469E-34
9.79410E-01 9.47438E-35
9.80631E-01 8.83247E-35
9.81815E-01 8.21993E-35
9.82963E-01 7.63579E-35
9.84074E-01 7.07927E-35
9.85148E-01 6.54928E-35
9.86185E-01 6.04512E-35
9.87185E-01 5.56593E-35
9.88148E-01 5.11090E-35
9.89074E-01 4.67916E-35
9.89962E-01 4.27032E-35
9.90814E-01 3.88330E-35
9.91627E-01 3.51785E-35
9.92404E-01 3.17331E-35
9.93143E-01 2.84889E-35
9.93844E-01 2.54428E-35
9.94508E-01 2.25892E-35
9.95134E-01 1.99219E-35
9.95722E-01 1.74383E-35
9.96273E-01 1.51338E-35
9.96786E-01 1.30047E-35
9.97261E-01 1.10467E-35
9.97698E-01 9.25789E-36
9.98097E-01 7.63288E-36
9.98459E-01 6.17267E-36
9.98782E-01 4.87170E-36
9.99067E-01 3.72887E-36
9.99315E-01 2.74259E-36
9.99524E-01 1.91045E-36
9.99695E-01 1.23173E-36
9.99829E-01 7.04715E-37
9.99924E-01 3.28593E-37
9.99981E-01 1.03790E-37
1.00000E+00 2.86649E-38
