 #
 # Subroutine ELSEPA. Elastic scattering of electrons and positrons
 #                    by neutral atoms and positive ions
 #
 # Projectile: positron
 # Kinetic energy = 1.75000E+08 eV = 6.43113E+06 a.u.
 #
 # WARNING: High-energy factorization with free-atom DF screening.
 #          Absorption, polarization and exchange corrections are
 #          switched off.
 #          Phase shifts are calculated for the bare nucleus.
 #          Scattering amplitudes are not evaluated.
 #
 # Element: Mg,  Z =  12,  atomic weight = 2.43050E+01 g/mol
 #
 # Nuclear model: Fermi distribution
 #                Average radius = 3.09943E-13 cm
 #                Skin thickness = 5.46000E-14 cm
 #
 # Number of electrons = 12
 #
 # Total elastic cross section = 6.08668E-19 cm**2 = 2.17359E-02 a0**2
 # 1st transport cross section = 1.01103E-26 cm**2 = 3.61045E-10 a0**2
 # 2nd transport cross section = 3.01749E-26 cm**2 = 1.07756E-09 a0**2
 #
 #
 # Differential cross section:                       MU=(1-COS(THETA))/2
 #
 #  THETA        MU          DCS          DCS        Sherman      error
 #  (deg)                 (cm**2/sr)   (a0**2/sr)    function
 #----------------------------------------------------------------------
0.00000E+00 3.19441E-10
7.61557E-13 3.15433E-10
1.18994E-12 3.13212E-10
1.71346E-12 3.10528E-10
2.33225E-12 3.07398E-10
3.04617E-12 3.03841E-10
3.85530E-12 2.99880E-10
4.75964E-12 2.95539E-10
5.75917E-12 2.90843E-10
6.85391E-12 2.85820E-10
8.04379E-12 2.80499E-10
9.32893E-12 2.74907E-10
1.07092E-11 2.69076E-10
1.21847E-11 2.63036E-10
1.37554E-11 2.56816E-10
1.54213E-11 2.50444E-10
1.71823E-11 2.43951E-10
1.90386E-11 2.37365E-10
2.09900E-11 2.30714E-10
2.30367E-11 2.24021E-10
2.51785E-11 2.17311E-10
2.74156E-11 2.10609E-10
2.97478E-11 2.03937E-10
3.21752E-11 1.97312E-10
3.46979E-11 1.90754E-10
3.73157E-11 1.84280E-10
4.00286E-11 1.77904E-10
4.28368E-11 1.71640E-10
4.57402E-11 1.65498E-10
4.87388E-11 1.59491E-10
5.18325E-11 1.53620E-10
5.50215E-11 1.47899E-10
5.83057E-11 1.42338E-10
6.16850E-11 1.36938E-10
6.51595E-11 1.31703E-10
6.87293E-11 1.26633E-10
7.23943E-11 1.21728E-10
7.61544E-11 1.16989E-10
1.18991E-10 7.84521E-11
1.71347E-10 5.33600E-11
2.33223E-10 3.74313E-11
3.04617E-10 2.72557E-11
3.85531E-10 2.06000E-11
4.75965E-10 1.60818E-11
5.75917E-10 1.28875E-11
6.85389E-10 1.05458E-11
8.04380E-10 8.77006E-12
9.32891E-10 7.37898E-12
1.07092E-09 6.26835E-12
1.21847E-09 5.36498E-12
1.37554E-09 4.61951E-12
1.54213E-09 3.99289E-12
1.71823E-09 3.46538E-12
1.90386E-09 3.01832E-12
2.09900E-09 2.63719E-12
2.30367E-09 2.30938E-12
2.51785E-09 2.02722E-12
2.74156E-09 1.78418E-12
2.97478E-09 1.57419E-12
3.21752E-09 1.39193E-12
3.46978E-09 1.23327E-12
3.73156E-09 1.09526E-12
4.00286E-09 9.74913E-13
4.28368E-09 8.69697E-13
4.57402E-09 7.77327E-13
4.87388E-09 6.96320E-13
5.18326E-09 6.24459E-13
5.50215E-09 5.61363E-13
5.83057E-09 5.06416E-13
6.16850E-09 4.57753E-13
6.51596E-09 4.14027E-13
6.87293E-09 3.75583E-13
7.23942E-09 3.41573E-13
7.61544E-09 3.10780E-13
1.18991E-08 1.33887E-13
1.71347E-08 6.66774E-14
2.33223E-08 3.70038E-14
3.04617E-08 2.22557E-14
3.85531E-08 1.42233E-14
4.75965E-08 9.52738E-15
5.75917E-08 6.62498E-15
6.85389E-08 4.74946E-15
8.04380E-08 3.49265E-15
9.32891E-08 2.62463E-15
1.07092E-07 2.00953E-15
1.21847E-07 1.56391E-15
1.37554E-07 1.23479E-15
1.54213E-07 9.87534E-16
1.71823E-07 7.98940E-16
1.90386E-07 6.53119E-16
2.09900E-07 5.38977E-16
2.30367E-07 4.48627E-16
2.51785E-07 3.76377E-16
2.74156E-07 3.18056E-16
2.97478E-07 2.70574E-16
3.21752E-07 2.31606E-16
3.46978E-07 1.99390E-16
3.73156E-07 1.72572E-16
4.00286E-07 1.50106E-16
4.28368E-07 1.31172E-16
4.57402E-07 1.15125E-16
4.87388E-07 1.01455E-16
5.18325E-07 8.97517E-17
5.50215E-07 7.96861E-17
5.83057E-07 7.09904E-17
6.16850E-07 6.34478E-17
6.51596E-07 5.68798E-17
6.87293E-07 5.11392E-17
7.23942E-07 4.61040E-17
7.61543E-07 4.16730E-17
1.18991E-06 1.70918E-17
1.71347E-06 8.24674E-18
2.33223E-06 4.45232E-18
3.04617E-06 2.61010E-18
3.85531E-06 1.62942E-18
4.75964E-06 1.06901E-18
5.75916E-06 7.30114E-19
6.85388E-06 5.15482E-19
8.04378E-06 3.74233E-19
9.32888E-06 2.78215E-19
1.07092E-05 2.11108E-19
1.21846E-05 1.63067E-19
1.37553E-05 1.27946E-19
1.54212E-05 1.01790E-19
1.71822E-05 8.19896E-20
1.90385E-05 6.67831E-20
2.09899E-05 5.49398E-20
2.30365E-05 4.56073E-20
2.51783E-05 3.81739E-20
2.74153E-05 3.21950E-20
2.97475E-05 2.73425E-20
3.21749E-05 2.33712E-20
3.46974E-05 2.00957E-20
3.73152E-05 1.73746E-20
4.00281E-05 1.50988E-20
4.28362E-05 1.31835E-20
4.57395E-05 1.15622E-20
4.87380E-05 1.01825E-20
5.18317E-05 9.00257E-21
5.50205E-05 7.98867E-21
5.83045E-05 7.11361E-21
6.16838E-05 6.35520E-21
6.51582E-05 5.69526E-21
6.87277E-05 5.11879E-21
7.23925E-05 4.61342E-21
7.61524E-05 4.16644E-21
9.21439E-05 2.84462E-21
1.09658E-04 2.00778E-21
1.28695E-04 1.45712E-21
1.49255E-04 1.08288E-21
1.71338E-04 8.21394E-22
1.94942E-04 6.34227E-22
2.20070E-04 4.97440E-22
2.46720E-04 3.95589E-22
2.74892E-04 3.18505E-22
3.04586E-04 2.59299E-22
3.35803E-04 2.13218E-22
3.68542E-04 1.76925E-22
4.02802E-04 1.48026E-22
4.38585E-04 1.24787E-22
4.75889E-04 1.05928E-22
5.14715E-04 9.04958E-23
5.55063E-04 7.77702E-23
5.96931E-04 6.72007E-23
6.40321E-04 5.83644E-23
6.85233E-04 5.09308E-23
7.31665E-04 4.46415E-23
7.79618E-04 3.92916E-23
8.29092E-04 3.47177E-23
8.80086E-04 3.07888E-23
9.32601E-04 2.73988E-23
9.86636E-04 2.44614E-23
1.04219E-03 2.19062E-23
1.09927E-03 1.96750E-23
1.15786E-03 1.77199E-23
1.21797E-03 1.60008E-23
1.27961E-03 1.44845E-23
1.34276E-03 1.31429E-23
1.40743E-03 1.19525E-23
1.47362E-03 1.08933E-23
1.54133E-03 9.94839E-24
1.61056E-03 9.10325E-24
1.68131E-03 8.34555E-24
1.75357E-03 7.66467E-24
1.82735E-03 7.05147E-24
1.90265E-03 6.49805E-24
1.97947E-03 5.99757E-24
2.05780E-03 5.54408E-24
2.13765E-03 5.13239E-24
2.21902E-03 4.75796E-24
2.30190E-03 4.41685E-24
2.38630E-03 4.10556E-24
2.47222E-03 3.82102E-24
2.55965E-03 3.56053E-24
2.64859E-03 3.32170E-24
2.73905E-03 3.10240E-24
2.83103E-03 2.90076E-24
2.92452E-03 2.71511E-24
3.01952E-03 2.54394E-24
3.11604E-03 2.38594E-24
3.21407E-03 2.23990E-24
3.31362E-03 2.10476E-24
3.41468E-03 1.97956E-24
3.51725E-03 1.86344E-24
3.62133E-03 1.75562E-24
3.72692E-03 1.65541E-24
3.83403E-03 1.56217E-24
3.94265E-03 1.47533E-24
4.05278E-03 1.39438E-24
4.16442E-03 1.31883E-24
4.27757E-03 1.24827E-24
4.39223E-03 1.18231E-24
4.50840E-03 1.12059E-24
4.62608E-03 1.06280E-24
4.74527E-03 1.00864E-24
4.86597E-03 9.57830E-25
4.98817E-03 9.10139E-25
5.11188E-03 8.65338E-25
5.23711E-03 8.23218E-25
5.36383E-03 7.83592E-25
5.49207E-03 7.46286E-25
5.62181E-03 7.11138E-25
5.75306E-03 6.78003E-25
5.88581E-03 6.46743E-25
6.02007E-03 6.17235E-25
6.15583E-03 5.89361E-25
6.29310E-03 5.63016E-25
6.43187E-03 5.38100E-25
6.57214E-03 5.14522E-25
6.71392E-03 4.92198E-25
6.85720E-03 4.71048E-25
7.00198E-03 4.51001E-25
7.14827E-03 4.31987E-25
7.29605E-03 4.13945E-25
7.44534E-03 3.96816E-25
7.59612E-03 3.80545E-25
7.97965E-03 3.43300E-25
8.37255E-03 3.10409E-25
8.77480E-03 2.81280E-25
9.18641E-03 2.55413E-25
9.60736E-03 2.32383E-25
1.00376E-02 2.11827E-25
1.04773E-02 1.93438E-25
1.09262E-02 1.76948E-25
1.13844E-02 1.62131E-25
1.18520E-02 1.48788E-25
1.23288E-02 1.36749E-25
1.28150E-02 1.25866E-25
1.33104E-02 1.16010E-25
1.38150E-02 1.07068E-25
1.43290E-02 9.89417E-26
1.48521E-02 9.15446E-26
1.53845E-02 8.48008E-26
1.59262E-02 7.86433E-26
1.64770E-02 7.30128E-26
1.70371E-02 6.78571E-26
1.76063E-02 6.31297E-26
1.81848E-02 5.87894E-26
1.87724E-02 5.47994E-26
1.93692E-02 5.11269E-26
1.99751E-02 4.77428E-26
2.05901E-02 4.46207E-26
2.12143E-02 4.17372E-26
2.18476E-02 3.90713E-26
2.24900E-02 3.66039E-26
2.31415E-02 3.43179E-26
2.38021E-02 3.21980E-26
2.44717E-02 3.02303E-26
2.51504E-02 2.84020E-26
2.58382E-02 2.67019E-26
2.65349E-02 2.51196E-26
2.72407E-02 2.36457E-26
2.79555E-02 2.22717E-26
2.86793E-02 2.09897E-26
2.94120E-02 1.97926E-26
3.01537E-02 1.86741E-26
3.09043E-02 1.76282E-26
3.16639E-02 1.66495E-26
3.24324E-02 1.57330E-26
3.32098E-02 1.48742E-26
3.39961E-02 1.40690E-26
3.47912E-02 1.33135E-26
3.55952E-02 1.26043E-26
3.64081E-02 1.19380E-26
3.72297E-02 1.13118E-26
3.80602E-02 1.07228E-26
3.88995E-02 1.01686E-26
3.97476E-02 9.64681E-27
4.06044E-02 9.15529E-27
4.14700E-02 8.69203E-27
4.23443E-02 8.25519E-27
4.32273E-02 7.84306E-27
4.41190E-02 7.45407E-27
4.50194E-02 7.08672E-27
4.59284E-02 6.73968E-27
4.68461E-02 6.41166E-27
4.87074E-02 5.80806E-27
5.06030E-02 5.26747E-27
5.25328E-02 4.78252E-27
5.44967E-02 4.34683E-27
5.64946E-02 3.95481E-27
5.85262E-02 3.60160E-27
6.05914E-02 3.28294E-27
6.26901E-02 2.99507E-27
6.48222E-02 2.73470E-27
6.69873E-02 2.49894E-27
6.91854E-02 2.28521E-27
7.14163E-02 2.09126E-27
7.36799E-02 1.91507E-27
7.59760E-02 1.75486E-27
7.83043E-02 1.60905E-27
8.06647E-02 1.47622E-27
8.30571E-02 1.35511E-27
8.54812E-02 1.24460E-27
8.79369E-02 1.14369E-27
9.04240E-02 1.05146E-27
9.29422E-02 9.67111E-28
9.54915E-02 8.89919E-28
9.80716E-02 8.19227E-28
1.00682E-01 7.54448E-28
1.03323E-01 6.95051E-28
1.05995E-01 6.40557E-28
1.08696E-01 5.90535E-28
1.11427E-01 5.44592E-28
1.14188E-01 5.02375E-28
1.16978E-01 4.63562E-28
1.19797E-01 4.27864E-28
1.22645E-01 3.95015E-28
1.25522E-01 3.64775E-28
1.28428E-01 3.36926E-28
1.31361E-01 3.11268E-28
1.34323E-01 2.87622E-28
1.37313E-01 2.65821E-28
1.40330E-01 2.45715E-28
1.43375E-01 2.27166E-28
1.46447E-01 2.10048E-28
1.49545E-01 1.94247E-28
1.52671E-01 1.79658E-28
1.55823E-01 1.66183E-28
1.59001E-01 1.53735E-28
1.62205E-01 1.42233E-28
1.65435E-01 1.31602E-28
1.68690E-01 1.21775E-28
1.71970E-01 1.12690E-28
1.75276E-01 1.04288E-28
1.78606E-01 9.65171E-29
1.81961E-01 8.93286E-29
1.85340E-01 8.26780E-29
1.88743E-01 7.65242E-29
1.92169E-01 7.08293E-29
1.95619E-01 6.55585E-29
1.99092E-01 6.06797E-29
2.02589E-01 5.61634E-29
2.06107E-01 5.19821E-29
2.09649E-01 4.81109E-29
2.13212E-01 4.45264E-29
2.16797E-01 4.12073E-29
2.20404E-01 3.81337E-29
2.24032E-01 3.52873E-29
2.27680E-01 3.26512E-29
2.31350E-01 3.02100E-29
2.35040E-01 2.79490E-29
2.38751E-01 2.58550E-29
2.42481E-01 2.39157E-29
2.46231E-01 2.21196E-29
2.50000E-01 2.04562E-29
2.53788E-01 1.89157E-29
2.57595E-01 1.74891E-29
2.61421E-01 1.61680E-29
2.65264E-01 1.49446E-29
2.69126E-01 1.38119E-29
2.73005E-01 1.27630E-29
2.76901E-01 1.17919E-29
2.80814E-01 1.08930E-29
2.84744E-01 1.00607E-29
2.88691E-01 9.29044E-30
2.92653E-01 8.57749E-30
2.96632E-01 7.91770E-30
3.00625E-01 7.30716E-30
3.04634E-01 6.74227E-30
3.08658E-01 6.21967E-30
3.12697E-01 5.73627E-30
3.16749E-01 5.28918E-30
3.20816E-01 4.87574E-30
3.24896E-01 4.49347E-30
3.28990E-01 4.14007E-30
3.33097E-01 3.81343E-30
3.37216E-01 3.51157E-30
3.41348E-01 3.23265E-30
3.45492E-01 2.97499E-30
3.49647E-01 2.73701E-30
3.53814E-01 2.51725E-30
3.57992E-01 2.31436E-30
3.62181E-01 2.12709E-30
3.66381E-01 1.95428E-30
3.70590E-01 1.79484E-30
3.74810E-01 1.64779E-30
3.79039E-01 1.51219E-30
3.83277E-01 1.38718E-30
3.87524E-01 1.27197E-30
3.91780E-01 1.16583E-30
3.96044E-01 1.06806E-30
4.00316E-01 9.78038E-31
4.04596E-01 8.95175E-31
4.08882E-01 8.18927E-31
4.13176E-01 7.48790E-31
4.17476E-01 6.84297E-31
4.21783E-01 6.25017E-31
4.26095E-01 5.70549E-31
4.30413E-01 5.20523E-31
4.34737E-01 4.74596E-31
4.39065E-01 4.32449E-31
4.43398E-01 3.93790E-31
4.47736E-01 3.58346E-31
4.52077E-01 3.25865E-31
4.56422E-01 2.96115E-31
4.60770E-01 2.68880E-31
4.65122E-01 2.43962E-31
4.69476E-01 2.21176E-31
4.73832E-01 2.00352E-31
4.78190E-01 1.81333E-31
4.82550E-01 1.63973E-31
4.86912E-01 1.48139E-31
4.91274E-01 1.33706E-31
4.95637E-01 1.20560E-31
5.00000E-01 1.08596E-31
5.04363E-01 9.77151E-32
5.08726E-01 8.78286E-32
5.13088E-01 7.88533E-32
5.17450E-01 7.07128E-32
5.21810E-01 6.33366E-32
5.26168E-01 5.66597E-32
5.30524E-01 5.06225E-32
5.34878E-01 4.51699E-32
5.39230E-01 4.02511E-32
5.43578E-01 3.58198E-32
5.47923E-01 3.18329E-32
5.52264E-01 2.82511E-32
5.56602E-01 2.50382E-32
5.60935E-01 2.21609E-32
5.65263E-01 1.95888E-32
5.69587E-01 1.72938E-32
5.73905E-01 1.52503E-32
5.78217E-01 1.34347E-32
5.82524E-01 1.18254E-32
5.86824E-01 1.04027E-32
5.91118E-01 9.14860E-33
5.95404E-01 8.04649E-33
5.99684E-01 7.08131E-33
6.03956E-01 6.23926E-33
6.08220E-01 5.50779E-33
6.12476E-01 4.87541E-33
6.16723E-01 4.33167E-33
6.20961E-01 3.86708E-33
6.25190E-01 3.47296E-33
6.29410E-01 3.14148E-33
6.33619E-01 2.86549E-33
6.37819E-01 2.63853E-33
6.42008E-01 2.45474E-33
6.46186E-01 2.30882E-33
6.50353E-01 2.19599E-33
6.54508E-01 2.11193E-33
6.58652E-01 2.05276E-33
6.62784E-01 2.01496E-33
6.66903E-01 1.99541E-33
6.71010E-01 1.99130E-33
6.75104E-01 2.00009E-33
6.79184E-01 2.01957E-33
6.83251E-01 2.04773E-33
6.87303E-01 2.08277E-33
6.91342E-01 2.12317E-33
6.95366E-01 2.16751E-33
6.99375E-01 2.21459E-33
7.03368E-01 2.26334E-33
7.07347E-01 2.31284E-33
7.11309E-01 2.36229E-33
7.15256E-01 2.41097E-33
7.19186E-01 2.45832E-33
7.23099E-01 2.50383E-33
7.26995E-01 2.54709E-33
7.30874E-01 2.58774E-33
7.34736E-01 2.62551E-33
7.38579E-01 2.66017E-33
7.42405E-01 2.69156E-33
7.46212E-01 2.71954E-33
7.50000E-01 2.74404E-33
7.53769E-01 2.76500E-33
7.57519E-01 2.78237E-33
7.61249E-01 2.79622E-33
7.64960E-01 2.80653E-33
7.68650E-01 2.81339E-33
7.72320E-01 2.81684E-33
7.75968E-01 2.81696E-33
7.79596E-01 2.81387E-33
7.83203E-01 2.80766E-33
7.86788E-01 2.79846E-33
7.90351E-01 2.78636E-33
7.93893E-01 2.77151E-33
7.97411E-01 2.75404E-33
8.00908E-01 2.73408E-33
8.04381E-01 2.71176E-33
8.07831E-01 2.68720E-33
8.11257E-01 2.66056E-33
8.14660E-01 2.63196E-33
8.18039E-01 2.60154E-33
8.21394E-01 2.56941E-33
8.24724E-01 2.53572E-33
8.28030E-01 2.50058E-33
8.31310E-01 2.46413E-33
8.34565E-01 2.42645E-33
8.37795E-01 2.38770E-33
8.40999E-01 2.34795E-33
8.44177E-01 2.30734E-33
8.47329E-01 2.26594E-33
8.50455E-01 2.22387E-33
8.53553E-01 2.18122E-33
8.56625E-01 2.13807E-33
8.59670E-01 2.09452E-33
8.62687E-01 2.05064E-33
8.65677E-01 2.00652E-33
8.68639E-01 1.96221E-33
8.71572E-01 1.91780E-33
8.74478E-01 1.87335E-33
8.77355E-01 1.82892E-33
8.80203E-01 1.78457E-33
8.83022E-01 1.74035E-33
8.85812E-01 1.69633E-33
8.88573E-01 1.65252E-33
8.91304E-01 1.60900E-33
8.94005E-01 1.56581E-33
8.96677E-01 1.52296E-33
8.99318E-01 1.48051E-33
9.01928E-01 1.43849E-33
9.04508E-01 1.39692E-33
9.07058E-01 1.35584E-33
9.09576E-01 1.31527E-33
9.12063E-01 1.27524E-33
9.14519E-01 1.23575E-33
9.16943E-01 1.19685E-33
9.19335E-01 1.15853E-33
9.21696E-01 1.12083E-33
9.24024E-01 1.08374E-33
9.26320E-01 1.04729E-33
9.28584E-01 1.01147E-33
9.30815E-01 9.76312E-34
9.33013E-01 9.41811E-34
9.35178E-01 9.07978E-34
9.37310E-01 8.74809E-34
9.39409E-01 8.42321E-34
9.41474E-01 8.10510E-34
9.43505E-01 7.79382E-34
9.45503E-01 7.48929E-34
9.47467E-01 7.19161E-34
9.49397E-01 6.90075E-34
9.51293E-01 6.61664E-34
9.53154E-01 6.33935E-34
9.54981E-01 6.06875E-34
9.56773E-01 5.80495E-34
9.58530E-01 5.54779E-34
9.60252E-01 5.29732E-34
9.61940E-01 5.05344E-34
9.63592E-01 4.81611E-34
9.65209E-01 4.58530E-34
9.66790E-01 4.36096E-34
9.68336E-01 4.14299E-34
9.69846E-01 3.93137E-34
9.71321E-01 3.72605E-34
9.72759E-01 3.52694E-34
9.74162E-01 3.33398E-34
9.75528E-01 3.14717E-34
9.76858E-01 2.96634E-34
9.78152E-01 2.79152E-34
9.79410E-01 2.62256E-34
9.80631E-01 2.45948E-34
9.81815E-01 2.30217E-34
9.82963E-01 2.15057E-34
9.84074E-01 2.00464E-34
9.85148E-01 1.86429E-34
9.86185E-01 1.72948E-34
9.87185E-01 1.60015E-34
9.88148E-01 1.47623E-34
9.89074E-01 1.35763E-34
9.89962E-01 1.24436E-34
9.90814E-01 1.13629E-34
9.91627E-01 1.03345E-34
9.92404E-01 9.35758E-35
9.93143E-01 8.43130E-35
9.93844E-01 7.55564E-35
9.94508E-01 6.73002E-35
9.95134E-01 5.95369E-35
9.95722E-01 5.22663E-35
9.96273E-01 4.54835E-35
9.96786E-01 3.91850E-35
9.97261E-01 3.33661E-35
9.97698E-01 2.80261E-35
9.98097E-01 2.31568E-35
9.98459E-01 1.87641E-35
9.98782E-01 1.48382E-35
9.99067E-01 1.13794E-35
9.99315E-01 8.38652E-36
9.99524E-01 5.85612E-36
9.99695E-01 3.78827E-36
9.99829E-01 2.18050E-36
9.99924E-01 1.03200E-36
9.99981E-01 3.44612E-37
1.00000E+00 1.14982E-37
