 #
 # Subroutine ELSEPA. Elastic scattering of electrons and positrons
 #                    by neutral atoms and positive ions
 #
 # Projectile: positron
 # Kinetic energy = 1.00000E+07 eV = 3.67493E+05 a.u.
 #
 # WARNING: High-energy factorization with free-atom DF screening.
 #          Absorption, polarization and exchange corrections are
 #          switched off.
 #          Phase shifts are calculated for the bare nucleus.
 #          Scattering amplitudes are not evaluated.
 #
 # Element: Mg,  Z =  12,  atomic weight = 2.43050E+01 g/mol
 #
 # Nuclear model: Fermi distribution
 #                Average radius = 3.09943E-13 cm
 #                Skin thickness = 5.46000E-14 cm
 #
 # Number of electrons = 12
 #
 # Total elastic cross section = 6.09781E-19 cm**2 = 2.17757E-02 a0**2
 # 1st transport cross section = 2.18013E-24 cm**2 = 7.78539E-08 a0**2
 # 2nd transport cross section = 6.30644E-24 cm**2 = 2.25207E-07 a0**2
 #
 #
 # Differential cross section:                       MU=(1-COS(THETA))/2
 #
 #  THETA        MU          DCS          DCS        Sherman      error
 #  (deg)                 (cm**2/sr)   (a0**2/sr)    function
 #----------------------------------------------------------------------
0.00000E+00 1.14570E-12
7.61557E-13 1.14564E-12
1.18994E-12 1.14561E-12
1.71346E-12 1.14558E-12
2.33225E-12 1.14553E-12
3.04617E-12 1.14549E-12
3.85530E-12 1.14543E-12
4.75964E-12 1.14537E-12
5.75917E-12 1.14530E-12
6.85391E-12 1.14522E-12
8.04379E-12 1.14514E-12
9.32893E-12 1.14506E-12
1.07092E-11 1.14496E-12
1.21847E-11 1.14486E-12
1.37554E-11 1.14475E-12
1.54213E-11 1.14464E-12
1.71823E-11 1.14452E-12
1.90386E-11 1.14439E-12
2.09900E-11 1.14426E-12
2.30367E-11 1.14412E-12
2.51785E-11 1.14397E-12
2.74156E-11 1.14382E-12
2.97478E-11 1.14366E-12
3.21752E-11 1.14350E-12
3.46979E-11 1.14333E-12
3.73157E-11 1.14315E-12
4.00286E-11 1.14296E-12
4.28368E-11 1.14277E-12
4.57402E-11 1.14258E-12
4.87388E-11 1.14237E-12
5.18325E-11 1.14216E-12
5.50215E-11 1.14195E-12
5.83057E-11 1.14172E-12
6.16850E-11 1.14149E-12
6.51595E-11 1.14126E-12
6.87293E-11 1.14102E-12
7.23943E-11 1.14077E-12
7.61544E-11 1.14051E-12
1.18991E-10 1.13762E-12
1.71347E-10 1.13410E-12
2.33223E-10 1.12996E-12
3.04617E-10 1.12520E-12
3.85531E-10 1.11985E-12
4.75965E-10 1.11392E-12
5.75917E-10 1.10741E-12
6.85389E-10 1.10034E-12
8.04380E-10 1.09272E-12
9.32891E-10 1.08459E-12
1.07092E-09 1.07594E-12
1.21847E-09 1.06681E-12
1.37554E-09 1.05720E-12
1.54213E-09 1.04715E-12
1.71823E-09 1.03667E-12
1.90386E-09 1.02578E-12
2.09900E-09 1.01451E-12
2.30367E-09 1.00287E-12
2.51785E-09 9.90901E-13
2.74156E-09 9.78606E-13
2.97478E-09 9.66019E-13
3.21752E-09 9.53164E-13
3.46978E-09 9.40062E-13
3.73156E-09 9.26728E-13
4.00286E-09 9.13196E-13
4.28368E-09 8.99486E-13
4.57402E-09 8.85617E-13
4.87388E-09 8.71607E-13
5.18326E-09 8.57486E-13
5.50215E-09 8.43274E-13
5.83057E-09 8.28984E-13
6.16850E-09 8.14639E-13
6.51596E-09 8.00262E-13
6.87293E-09 7.85872E-13
7.23942E-09 7.71477E-13
7.61544E-09 7.57101E-13
1.18991E-08 6.17614E-13
1.71347E-08 4.93214E-13
2.33223E-08 3.89453E-13
3.04617E-08 3.06388E-13
3.85531E-08 2.42028E-13
4.75965E-08 1.92670E-13
5.75917E-08 1.55018E-13
6.85389E-08 1.26462E-13
8.04380E-08 1.04626E-13
9.32891E-08 8.76822E-14
1.07092E-07 7.44084E-14
1.21847E-07 6.39169E-14
1.37554E-07 5.54634E-14
1.54213E-07 4.85630E-14
1.71823E-07 4.28673E-14
1.90386E-07 3.80841E-14
2.09900E-07 3.40295E-14
2.30367E-07 3.05643E-14
2.51785E-07 2.75749E-14
2.74156E-07 2.49457E-14
2.97478E-07 2.26429E-14
3.21752E-07 2.06137E-14
3.46978E-07 1.88088E-14
3.73156E-07 1.71845E-14
4.00286E-07 1.57338E-14
4.28368E-07 1.44329E-14
4.57402E-07 1.32550E-14
4.87388E-07 1.21839E-14
5.18325E-07 1.12162E-14
5.50215E-07 1.03394E-14
5.83057E-07 9.53682E-15
6.16850E-07 8.80395E-15
6.51596E-07 8.13712E-15
6.87293E-07 7.52917E-15
7.23942E-07 6.96929E-15
7.61543E-07 6.45700E-15
1.18991E-06 3.15068E-15
1.71347E-06 1.65968E-15
2.33223E-06 9.39824E-16
3.04617E-06 5.67317E-16
3.85531E-06 3.61892E-16
4.75964E-06 2.41816E-16
5.75916E-06 1.67972E-16
6.85388E-06 1.20520E-16
8.04378E-06 8.88569E-17
9.32888E-06 6.70302E-17
1.07092E-05 5.15649E-17
1.21846E-05 4.03423E-17
1.37553E-05 3.20283E-17
1.54212E-05 2.57571E-17
1.71822E-05 2.09511E-17
1.90385E-05 1.72170E-17
2.09899E-05 1.42771E-17
2.30365E-05 1.19373E-17
2.51783E-05 1.00564E-17
2.74153E-05 8.53071E-18
2.97475E-05 7.28274E-18
3.21749E-05 6.25410E-18
3.46974E-05 5.40004E-18
3.73152E-05 4.68633E-18
4.00281E-05 4.08620E-18
4.28362E-05 3.57866E-18
4.57395E-05 3.14712E-18
4.87380E-05 2.77839E-18
5.18317E-05 2.46185E-18
5.50205E-05 2.18893E-18
5.83045E-05 1.95266E-18
6.16838E-05 1.74732E-18
6.51582E-05 1.56818E-18
6.87277E-05 1.41134E-18
7.23925E-05 1.27354E-18
7.61524E-05 1.15209E-18
9.21439E-05 7.89462E-19
1.09658E-04 5.58674E-19
1.28695E-04 4.06234E-19
1.49255E-04 3.02340E-19
1.71338E-04 2.29596E-19
1.94942E-04 1.77443E-19
2.20070E-04 1.39280E-19
2.46720E-04 1.10835E-19
2.74892E-04 8.92898E-20
3.04586E-04 7.27300E-20
3.35803E-04 5.98342E-20
3.68542E-04 4.96723E-20
4.02802E-04 4.15771E-20
4.38585E-04 3.50650E-20
4.75889E-04 2.97784E-20
5.14715E-04 2.54509E-20
5.55063E-04 2.18813E-20
5.96931E-04 1.89157E-20
6.40321E-04 1.64356E-20
6.85233E-04 1.43486E-20
7.31665E-04 1.25825E-20
7.79618E-04 1.10797E-20
8.29092E-04 9.79452E-21
8.80086E-04 8.69027E-21
9.32601E-04 7.73711E-21
9.86636E-04 6.91103E-21
1.04219E-03 6.19223E-21
1.09927E-03 5.56443E-21
1.15786E-03 5.01416E-21
1.21797E-03 4.53019E-21
1.27961E-03 4.10320E-21
1.34276E-03 3.72530E-21
1.40743E-03 3.38989E-21
1.47362E-03 3.09135E-21
1.54133E-03 2.82494E-21
1.61056E-03 2.58660E-21
1.68131E-03 2.37284E-21
1.75357E-03 2.18070E-21
1.82735E-03 2.00759E-21
1.90265E-03 1.85131E-21
1.97947E-03 1.70993E-21
2.05780E-03 1.58178E-21
2.13765E-03 1.46540E-21
2.21902E-03 1.35951E-21
2.30190E-03 1.26301E-21
2.38630E-03 1.17491E-21
2.47222E-03 1.09435E-21
2.55965E-03 1.02057E-21
2.64859E-03 9.52898E-22
2.73905E-03 8.90735E-22
2.83103E-03 8.33553E-22
2.92452E-03 7.80880E-22
3.01952E-03 7.32298E-22
3.11604E-03 6.87431E-22
3.21407E-03 6.45943E-22
3.31362E-03 6.07533E-22
3.41468E-03 5.71933E-22
3.51725E-03 5.38899E-22
3.62133E-03 5.08212E-22
3.72692E-03 4.79675E-22
3.83403E-03 4.53111E-22
3.94265E-03 4.28357E-22
4.05278E-03 4.05268E-22
4.16442E-03 3.83711E-22
4.27757E-03 3.63567E-22
4.39223E-03 3.44725E-22
4.50840E-03 3.27086E-22
4.62608E-03 3.10559E-22
4.74527E-03 2.95061E-22
4.86597E-03 2.80516E-22
4.98817E-03 2.66855E-22
5.11188E-03 2.54014E-22
5.23711E-03 2.41934E-22
5.36383E-03 2.30563E-22
5.49207E-03 2.19851E-22
5.62181E-03 2.09752E-22
5.75306E-03 2.00226E-22
5.88581E-03 1.91233E-22
6.02007E-03 1.82739E-22
6.15583E-03 1.74710E-22
6.29310E-03 1.67116E-22
6.43187E-03 1.59930E-22
6.57214E-03 1.53125E-22
6.71392E-03 1.46677E-22
6.85720E-03 1.40564E-22
7.00198E-03 1.34766E-22
7.14827E-03 1.29263E-22
7.29605E-03 1.24038E-22
7.44534E-03 1.19073E-22
7.59612E-03 1.14353E-22
7.97965E-03 1.03536E-22
8.37255E-03 9.39656E-23
8.77480E-03 8.54732E-23
9.18641E-03 7.79166E-23
9.60736E-03 7.11750E-23
1.00376E-02 6.51451E-23
1.04773E-02 5.97389E-23
1.09262E-02 5.48805E-23
1.13844E-02 5.05048E-23
1.18520E-02 4.65555E-23
1.23288E-02 4.29836E-23
1.28150E-02 3.97468E-23
1.33104E-02 3.68081E-23
1.38150E-02 3.41352E-23
1.43290E-02 3.16998E-23
1.48521E-02 2.94771E-23
1.53845E-02 2.74452E-23
1.59262E-02 2.55848E-23
1.64770E-02 2.38788E-23
1.70371E-02 2.23122E-23
1.76063E-02 2.08715E-23
1.81848E-02 1.95448E-23
1.87724E-02 1.83215E-23
1.93692E-02 1.71920E-23
1.99751E-02 1.61479E-23
2.05901E-02 1.51815E-23
2.12143E-02 1.42861E-23
2.18476E-02 1.34554E-23
2.24900E-02 1.26840E-23
2.31415E-02 1.19668E-23
2.38021E-02 1.12994E-23
2.44717E-02 1.06777E-23
2.51504E-02 1.00979E-23
2.58382E-02 9.55678E-24
2.65349E-02 9.05124E-24
2.72407E-02 8.57853E-24
2.79555E-02 8.13612E-24
2.86793E-02 7.72172E-24
2.94120E-02 7.33324E-24
3.01537E-02 6.96875E-24
3.09043E-02 6.62650E-24
3.16639E-02 6.30489E-24
3.24324E-02 6.00245E-24
3.32098E-02 5.71783E-24
3.39961E-02 5.44977E-24
3.47912E-02 5.19715E-24
3.55952E-02 4.95892E-24
3.64081E-02 4.73409E-24
3.72297E-02 4.52178E-24
3.80602E-02 4.32117E-24
3.88995E-02 4.13149E-24
3.97476E-02 3.95203E-24
4.06044E-02 3.78215E-24
4.14700E-02 3.62123E-24
4.23443E-02 3.46873E-24
4.32273E-02 3.32411E-24
4.41190E-02 3.18690E-24
4.50194E-02 3.05664E-24
4.59284E-02 2.93293E-24
4.68461E-02 2.81536E-24
4.87074E-02 2.59725E-24
5.06030E-02 2.39970E-24
5.25328E-02 2.22045E-24
5.44967E-02 2.05749E-24
5.64946E-02 1.90908E-24
5.85262E-02 1.77371E-24
6.05914E-02 1.65003E-24
6.26901E-02 1.53684E-24
6.48222E-02 1.43311E-24
6.69873E-02 1.33790E-24
6.91854E-02 1.25040E-24
7.14163E-02 1.16986E-24
7.36799E-02 1.09563E-24
7.59760E-02 1.02714E-24
7.83043E-02 9.63864E-25
8.06647E-02 9.05329E-25
8.30571E-02 8.51122E-25
8.54812E-02 8.00864E-25
8.79369E-02 7.54217E-25
9.04240E-02 7.10876E-25
9.29422E-02 6.70565E-25
9.54915E-02 6.33034E-25
9.80716E-02 5.98058E-25
1.00682E-01 5.65431E-25
1.03323E-01 5.34969E-25
1.05995E-01 5.06501E-25
1.08696E-01 4.79874E-25
1.11427E-01 4.54948E-25
1.14188E-01 4.31595E-25
1.16978E-01 4.09697E-25
1.19797E-01 3.89149E-25
1.22645E-01 3.69852E-25
1.25522E-01 3.51715E-25
1.28428E-01 3.34658E-25
1.31361E-01 3.18604E-25
1.34323E-01 3.03484E-25
1.37313E-01 2.89234E-25
1.40330E-01 2.75795E-25
1.43375E-01 2.63112E-25
1.46447E-01 2.51135E-25
1.49545E-01 2.39819E-25
1.52671E-01 2.29119E-25
1.55823E-01 2.18997E-25
1.59001E-01 2.09416E-25
1.62205E-01 2.00341E-25
1.65435E-01 1.91742E-25
1.68690E-01 1.83588E-25
1.71970E-01 1.75853E-25
1.75276E-01 1.68511E-25
1.78606E-01 1.61540E-25
1.81961E-01 1.54915E-25
1.85340E-01 1.48619E-25
1.88743E-01 1.42630E-25
1.92169E-01 1.36932E-25
1.95619E-01 1.31508E-25
1.99092E-01 1.26343E-25
2.02589E-01 1.21421E-25
2.06107E-01 1.16730E-25
2.09649E-01 1.12256E-25
2.13212E-01 1.07989E-25
2.16797E-01 1.03916E-25
2.20404E-01 1.00027E-25
2.24032E-01 9.63121E-26
2.27680E-01 9.27628E-26
2.31350E-01 8.93700E-26
2.35040E-01 8.61256E-26
2.38751E-01 8.30221E-26
2.42481E-01 8.00521E-26
2.46231E-01 7.72089E-26
2.50000E-01 7.44862E-26
2.53788E-01 7.18780E-26
2.57595E-01 6.93786E-26
2.61421E-01 6.69826E-26
2.65264E-01 6.46851E-26
2.69126E-01 6.24812E-26
2.73005E-01 6.03666E-26
2.76901E-01 5.83369E-26
2.80814E-01 5.63881E-26
2.84744E-01 5.45164E-26
2.88691E-01 5.27184E-26
2.92653E-01 5.09905E-26
2.96632E-01 4.93295E-26
3.00625E-01 4.77325E-26
3.04634E-01 4.61964E-26
3.08658E-01 4.47187E-26
3.12697E-01 4.32966E-26
3.16749E-01 4.19278E-26
3.20816E-01 4.06098E-26
3.24896E-01 3.93405E-26
3.28990E-01 3.81178E-26
3.33097E-01 3.69396E-26
3.37216E-01 3.58041E-26
3.41348E-01 3.47094E-26
3.45492E-01 3.36538E-26
3.49647E-01 3.26358E-26
3.53814E-01 3.16536E-26
3.57992E-01 3.07059E-26
3.62181E-01 2.97912E-26
3.66381E-01 2.89082E-26
3.70590E-01 2.80556E-26
3.74810E-01 2.72321E-26
3.79039E-01 2.64367E-26
3.83277E-01 2.56681E-26
3.87524E-01 2.49253E-26
3.91780E-01 2.42074E-26
3.96044E-01 2.35133E-26
4.00316E-01 2.28421E-26
4.04596E-01 2.21930E-26
4.08882E-01 2.15650E-26
4.13176E-01 2.09574E-26
4.17476E-01 2.03695E-26
4.21783E-01 1.98003E-26
4.26095E-01 1.92494E-26
4.30413E-01 1.87159E-26
4.34737E-01 1.81993E-26
4.39065E-01 1.76989E-26
4.43398E-01 1.72141E-26
4.47736E-01 1.67443E-26
4.52077E-01 1.62891E-26
4.56422E-01 1.58479E-26
4.60770E-01 1.54201E-26
4.65122E-01 1.50054E-26
4.69476E-01 1.46032E-26
4.73832E-01 1.42131E-26
4.78190E-01 1.38347E-26
4.82550E-01 1.34676E-26
4.86912E-01 1.31113E-26
4.91274E-01 1.27656E-26
4.95637E-01 1.24300E-26
5.00000E-01 1.21042E-26
5.04363E-01 1.17879E-26
5.08726E-01 1.14807E-26
5.13088E-01 1.11824E-26
5.17450E-01 1.08926E-26
5.21810E-01 1.06111E-26
5.26168E-01 1.03376E-26
5.30524E-01 1.00718E-26
5.34878E-01 9.81344E-27
5.39230E-01 9.56236E-27
5.43578E-01 9.31828E-27
5.47923E-01 9.08096E-27
5.52264E-01 8.85021E-27
5.56602E-01 8.62580E-27
5.60935E-01 8.40753E-27
5.65263E-01 8.19522E-27
5.69587E-01 7.98867E-27
5.73905E-01 7.78770E-27
5.78217E-01 7.59214E-27
5.82524E-01 7.40183E-27
5.86824E-01 7.21659E-27
5.91118E-01 7.03628E-27
5.95404E-01 6.86074E-27
5.99684E-01 6.68982E-27
6.03956E-01 6.52340E-27
6.08220E-01 6.36133E-27
6.12476E-01 6.20348E-27
6.16723E-01 6.04973E-27
6.20961E-01 5.89995E-27
6.25190E-01 5.75402E-27
6.29410E-01 5.61185E-27
6.33619E-01 5.47330E-27
6.37819E-01 5.33828E-27
6.42008E-01 5.20669E-27
6.46186E-01 5.07842E-27
6.50353E-01 4.95338E-27
6.54508E-01 4.83148E-27
6.58652E-01 4.71263E-27
6.62784E-01 4.59674E-27
6.66903E-01 4.48372E-27
6.71010E-01 4.37350E-27
6.75104E-01 4.26600E-27
6.79184E-01 4.16114E-27
6.83251E-01 4.05885E-27
6.87303E-01 3.95906E-27
6.91342E-01 3.86170E-27
6.95366E-01 3.76669E-27
6.99375E-01 3.67399E-27
7.03368E-01 3.58352E-27
7.07347E-01 3.49522E-27
7.11309E-01 3.40905E-27
7.15256E-01 3.32492E-27
7.19186E-01 3.24281E-27
7.23099E-01 3.16264E-27
7.26995E-01 3.08437E-27
7.30874E-01 3.00796E-27
7.34736E-01 2.93334E-27
7.38579E-01 2.86047E-27
7.42405E-01 2.78931E-27
7.46212E-01 2.71982E-27
7.50000E-01 2.65194E-27
7.53769E-01 2.58565E-27
7.57519E-01 2.52089E-27
7.61249E-01 2.45763E-27
7.64960E-01 2.39583E-27
7.68650E-01 2.33546E-27
7.72320E-01 2.27647E-27
7.75968E-01 2.21884E-27
7.79596E-01 2.16252E-27
7.83203E-01 2.10749E-27
7.86788E-01 2.05372E-27
7.90351E-01 2.00117E-27
7.93893E-01 1.94982E-27
7.97411E-01 1.89963E-27
8.00908E-01 1.85057E-27
8.04381E-01 1.80263E-27
8.07831E-01 1.75577E-27
8.11257E-01 1.70996E-27
8.14660E-01 1.66519E-27
8.18039E-01 1.62142E-27
8.21394E-01 1.57863E-27
8.24724E-01 1.53681E-27
8.28030E-01 1.49592E-27
8.31310E-01 1.45595E-27
8.34565E-01 1.41687E-27
8.37795E-01 1.37867E-27
8.40999E-01 1.34132E-27
8.44177E-01 1.30480E-27
8.47329E-01 1.26910E-27
8.50455E-01 1.23420E-27
8.53553E-01 1.20007E-27
8.56625E-01 1.16671E-27
8.59670E-01 1.13409E-27
8.62687E-01 1.10220E-27
8.65677E-01 1.07102E-27
8.68639E-01 1.04054E-27
8.71572E-01 1.01074E-27
8.74478E-01 9.81607E-28
8.77355E-01 9.53125E-28
8.80203E-01 9.25282E-28
8.83022E-01 8.98063E-28
8.85812E-01 8.71456E-28
8.88573E-01 8.45448E-28
8.91304E-01 8.20026E-28
8.94005E-01 7.95177E-28
8.96677E-01 7.70892E-28
8.99318E-01 7.47157E-28
9.01928E-01 7.23961E-28
9.04508E-01 7.01294E-28
9.07058E-01 6.79146E-28
9.09576E-01 6.57505E-28
9.12063E-01 6.36362E-28
9.14519E-01 6.15707E-28
9.16943E-01 5.95531E-28
9.19335E-01 5.75824E-28
9.21696E-01 5.56578E-28
9.24024E-01 5.37783E-28
9.26320E-01 5.19432E-28
9.28584E-01 5.01515E-28
9.30815E-01 4.84026E-28
9.33013E-01 4.66955E-28
9.35178E-01 4.50296E-28
9.37310E-01 4.34042E-28
9.39409E-01 4.18185E-28
9.41474E-01 4.02717E-28
9.43505E-01 3.87633E-28
9.45503E-01 3.72926E-28
9.47467E-01 3.58589E-28
9.49397E-01 3.44616E-28
9.51293E-01 3.31001E-28
9.53154E-01 3.17739E-28
9.54981E-01 3.04823E-28
9.56773E-01 2.92248E-28
9.58530E-01 2.80009E-28
9.60252E-01 2.68101E-28
9.61940E-01 2.56518E-28
9.63592E-01 2.45255E-28
9.65209E-01 2.34309E-28
9.66790E-01 2.23673E-28
9.68336E-01 2.13345E-28
9.69846E-01 2.03319E-28
9.71321E-01 1.93591E-28
9.72759E-01 1.84158E-28
9.74162E-01 1.75015E-28
9.75528E-01 1.66158E-28
9.76858E-01 1.57585E-28
9.78152E-01 1.49291E-28
9.79410E-01 1.41273E-28
9.80631E-01 1.33528E-28
9.81815E-01 1.26052E-28
9.82963E-01 1.18843E-28
9.84074E-01 1.11898E-28
9.85148E-01 1.05214E-28
9.86185E-01 9.87871E-29
9.87185E-01 9.26161E-29
9.88148E-01 8.66982E-29
9.89074E-01 8.10310E-29
9.89962E-01 7.56121E-29
9.90814E-01 7.04394E-29
9.91627E-01 6.55108E-29
9.92404E-01 6.08243E-29
9.93143E-01 5.63781E-29
9.93844E-01 5.21704E-29
9.94508E-01 4.81995E-29
9.95134E-01 4.44639E-29
9.95722E-01 4.09620E-29
9.96273E-01 3.76925E-29
9.96786E-01 3.46540E-29
9.97261E-01 3.18455E-29
9.97698E-01 2.92656E-29
9.98097E-01 2.69135E-29
9.98459E-01 2.47882E-29
9.98782E-01 2.28889E-29
9.99067E-01 2.12148E-29
9.99315E-01 1.97652E-29
9.99524E-01 1.85396E-29
9.99695E-01 1.75375E-29
9.99829E-01 1.67585E-29
9.99924E-01 1.62022E-29
9.99981E-01 1.58686E-29
1.00000E+00 1.57574E-29
