 #
 # Subroutine ELSEPA. Elastic scattering of electrons and positrons
 #                    by neutral atoms and positive ions
 #
 # Projectile: positron
 # Kinetic energy = 1.75000E+07 eV = 6.43113E+05 a.u.
 #
 # WARNING: High-energy factorization with free-atom DF screening.
 #          Absorption, polarization and exchange corrections are
 #          switched off.
 #          Phase shifts are calculated for the bare nucleus.
 #          Scattering amplitudes are not evaluated.
 #
 # Element: Mg,  Z =  12,  atomic weight = 2.43050E+01 g/mol
 #
 # Nuclear model: Fermi distribution
 #                Average radius = 3.09943E-13 cm
 #                Skin thickness = 5.46000E-14 cm
 #
 # Number of electrons = 12
 #
 # Total elastic cross section = 6.09159E-19 cm**2 = 2.17535E-02 a0**2
 # 1st transport cross section = 8.01113E-25 cm**2 = 2.86083E-08 a0**2
 # 2nd transport cross section = 2.32558E-24 cm**2 = 8.30481E-08 a0**2
 #
 #
 # Differential cross section:                       MU=(1-COS(THETA))/2
 #
 #  THETA        MU          DCS          DCS        Sherman      error
 #  (deg)                 (cm**2/sr)   (a0**2/sr)    function
 #----------------------------------------------------------------------
0.00000E+00 3.36401E-12
7.61557E-13 3.36355E-12
1.18994E-12 3.36330E-12
1.71346E-12 3.36299E-12
2.33225E-12 3.36262E-12
3.04617E-12 3.36220E-12
3.85530E-12 3.36173E-12
4.75964E-12 3.36119E-12
5.75917E-12 3.36060E-12
6.85391E-12 3.35996E-12
8.04379E-12 3.35926E-12
9.32893E-12 3.35850E-12
1.07092E-11 3.35769E-12
1.21847E-11 3.35683E-12
1.37554E-11 3.35591E-12
1.54213E-11 3.35493E-12
1.71823E-11 3.35390E-12
1.90386E-11 3.35281E-12
2.09900E-11 3.35167E-12
2.30367E-11 3.35047E-12
2.51785E-11 3.34922E-12
2.74156E-11 3.34791E-12
2.97478E-11 3.34655E-12
3.21752E-11 3.34513E-12
3.46979E-11 3.34366E-12
3.73157E-11 3.34213E-12
4.00286E-11 3.34055E-12
4.28368E-11 3.33892E-12
4.57402E-11 3.33723E-12
4.87388E-11 3.33549E-12
5.18325E-11 3.33369E-12
5.50215E-11 3.33184E-12
5.83057E-11 3.32994E-12
6.16850E-11 3.32798E-12
6.51595E-11 3.32597E-12
6.87293E-11 3.32390E-12
7.23943E-11 3.32179E-12
7.61544E-11 3.31962E-12
1.18991E-10 3.29504E-12
1.71347E-10 3.26534E-12
2.33223E-10 3.23074E-12
3.04617E-10 3.19145E-12
3.85531E-10 3.14774E-12
4.75965E-10 3.09987E-12
5.75917E-10 3.04816E-12
6.85389E-10 2.99291E-12
8.04380E-10 2.93444E-12
9.32891E-10 2.87311E-12
1.07092E-09 2.80925E-12
1.21847E-09 2.74317E-12
1.37554E-09 2.67523E-12
1.54213E-09 2.60578E-12
1.71823E-09 2.53514E-12
1.90386E-09 2.46358E-12
2.09900E-09 2.39145E-12
2.30367E-09 2.31903E-12
2.51785E-09 2.24658E-12
2.74156E-09 2.17433E-12
2.97478E-09 2.10255E-12
3.21752E-09 2.03145E-12
3.46978E-09 1.96121E-12
3.73156E-09 1.89200E-12
4.00286E-09 1.82400E-12
4.28368E-09 1.75734E-12
4.57402E-09 1.69212E-12
4.87388E-09 1.62842E-12
5.18326E-09 1.56635E-12
5.50215E-09 1.50603E-12
5.83057E-09 1.44751E-12
6.16850E-09 1.39080E-12
6.51596E-09 1.33593E-12
6.87293E-09 1.28289E-12
7.23942E-09 1.23169E-12
7.61544E-09 1.18244E-12
1.18991E-08 7.85262E-13
1.71347E-08 5.30681E-13
2.33223E-08 3.71025E-13
3.04617E-08 2.70108E-13
3.85531E-08 2.04308E-13
4.75965E-08 1.59587E-13
5.75917E-08 1.27979E-13
6.85389E-08 1.04720E-13
8.04380E-08 8.70213E-14
9.32891E-08 7.31912E-14
1.07092E-07 6.21381E-14
1.21847E-07 5.30674E-14
1.37554E-07 4.55880E-14
1.54213E-07 3.93540E-14
1.71823E-07 3.41027E-14
1.90386E-07 2.96298E-14
2.09900E-07 2.58272E-14
2.30367E-07 2.25794E-14
2.51785E-07 1.97870E-14
2.74156E-07 1.73791E-14
2.97478E-07 1.53045E-14
3.21752E-07 1.35118E-14
3.46978E-07 1.19538E-14
3.73156E-07 1.05997E-14
4.00286E-07 9.42168E-15
4.28368E-07 8.39441E-15
4.57402E-07 7.49414E-15
4.87388E-07 6.70095E-15
5.18325E-07 6.00371E-15
5.50215E-07 5.39907E-15
5.83057E-07 4.86773E-15
6.16850E-07 4.39019E-15
6.51596E-07 3.97184E-15
6.87293E-07 3.60319E-15
7.23942E-07 3.27031E-15
7.61543E-07 2.97604E-15
1.18991E-06 1.27910E-15
1.71347E-06 6.36842E-16
2.33223E-06 3.53510E-16
3.04617E-06 2.12653E-16
3.85531E-06 1.35898E-16
4.75964E-06 9.10090E-17
5.75916E-06 6.32621E-17
6.85388E-06 4.53344E-17
8.04378E-06 3.33227E-17
9.32888E-06 2.50299E-17
1.07092E-05 1.91559E-17
1.21846E-05 1.49022E-17
1.37553E-05 1.17619E-17
1.54212E-05 9.40362E-18
1.71822E-05 7.60544E-18
1.90385E-05 6.21615E-18
2.09899E-05 5.12856E-18
2.30365E-05 4.26778E-18
2.51783E-05 3.57959E-18
2.74153E-05 3.02425E-18
2.97475E-05 2.57228E-18
3.21749E-05 2.20150E-18
3.46974E-05 1.89506E-18
3.73152E-05 1.64002E-18
4.00281E-05 1.42638E-18
4.28362E-05 1.24634E-18
4.57395E-05 1.09375E-18
4.87380E-05 9.63766E-19
5.18317E-05 8.52498E-19
5.50205E-05 7.56811E-19
5.83045E-05 6.74165E-19
6.16838E-05 6.02491E-19
6.51582E-05 5.40087E-19
6.87277E-05 4.85548E-19
7.23925E-05 4.37714E-19
7.61524E-05 3.95617E-19
9.21439E-05 2.70318E-19
1.09658E-04 1.90906E-19
1.28695E-04 1.38612E-19
1.49255E-04 1.03052E-19
1.71338E-04 7.81945E-20
1.94942E-04 6.03959E-20
2.20070E-04 4.73844E-20
2.46720E-04 3.76937E-20
2.74892E-04 3.03577E-20
3.04586E-04 2.47217E-20
3.35803E-04 2.03340E-20
3.68542E-04 1.68777E-20
4.02802E-04 1.41251E-20
4.38585E-04 1.19113E-20
4.75889E-04 1.01145E-20
5.14715E-04 8.64395E-21
5.55063E-04 7.43108E-21
5.96931E-04 6.42353E-21
6.40321E-04 5.58104E-21
6.85233E-04 4.87215E-21
7.31665E-04 4.27228E-21
7.79618E-04 3.76189E-21
8.29092E-04 3.32544E-21
8.80086E-04 2.95045E-21
9.32601E-04 2.62682E-21
9.86636E-04 2.34635E-21
1.04219E-03 2.10230E-21
1.09927E-03 1.88915E-21
1.15786E-03 1.70232E-21
1.21797E-03 1.53800E-21
1.27961E-03 1.39303E-21
1.34276E-03 1.26473E-21
1.40743E-03 1.15085E-21
1.47362E-03 1.04949E-21
1.54133E-03 9.59044E-22
1.61056E-03 8.78123E-22
1.68131E-03 8.05551E-22
1.75357E-03 7.40316E-22
1.82735E-03 6.81546E-22
1.90265E-03 6.28488E-22
1.97947E-03 5.80489E-22
2.05780E-03 5.36981E-22
2.13765E-03 4.97469E-22
2.21902E-03 4.61521E-22
2.30190E-03 4.28759E-22
2.38630E-03 3.98849E-22
2.47222E-03 3.71499E-22
2.55965E-03 3.46451E-22
2.64859E-03 3.23476E-22
2.73905E-03 3.02372E-22
2.83103E-03 2.82959E-22
2.92452E-03 2.65078E-22
3.01952E-03 2.48584E-22
3.11604E-03 2.33352E-22
3.21407E-03 2.19268E-22
3.31362E-03 2.06228E-22
3.41468E-03 1.94142E-22
3.51725E-03 1.82928E-22
3.62133E-03 1.72510E-22
3.72692E-03 1.62822E-22
3.83403E-03 1.53804E-22
3.94265E-03 1.45401E-22
4.05278E-03 1.37563E-22
4.16442E-03 1.30245E-22
4.27757E-03 1.23406E-22
4.39223E-03 1.17010E-22
4.50840E-03 1.11022E-22
4.62608E-03 1.05411E-22
4.74527E-03 1.00150E-22
4.86597E-03 9.52125E-23
4.98817E-03 9.05749E-23
5.11188E-03 8.62158E-23
5.23711E-03 8.21152E-23
5.36383E-03 7.82551E-23
5.49207E-03 7.46187E-23
5.62181E-03 7.11907E-23
5.75306E-03 6.79569E-23
5.88581E-03 6.49042E-23
6.02007E-03 6.20207E-23
6.15583E-03 5.92953E-23
6.29310E-03 5.67175E-23
6.43187E-03 5.42781E-23
6.57214E-03 5.19681E-23
6.71392E-03 4.97794E-23
6.85720E-03 4.77045E-23
7.00198E-03 4.57363E-23
7.14827E-03 4.38683E-23
7.29605E-03 4.20945E-23
7.44534E-03 4.04093E-23
7.59612E-03 3.88073E-23
7.97965E-03 3.51356E-23
8.37255E-03 3.18870E-23
8.77480E-03 2.90044E-23
9.18641E-03 2.64395E-23
9.60736E-03 2.41512E-23
1.00376E-02 2.21046E-23
1.04773E-02 2.02697E-23
1.09262E-02 1.86207E-23
1.13844E-02 1.71356E-23
1.18520E-02 1.57952E-23
1.23288E-02 1.45829E-23
1.28150E-02 1.34844E-23
1.33104E-02 1.24870E-23
1.38150E-02 1.15799E-23
1.43290E-02 1.07534E-23
1.48521E-02 9.99908E-24
1.53845E-02 9.30952E-24
1.59262E-02 8.67817E-24
1.64770E-02 8.09926E-24
1.70371E-02 7.56763E-24
1.76063E-02 7.07875E-24
1.81848E-02 6.62855E-24
1.87724E-02 6.21344E-24
1.93692E-02 5.83019E-24
1.99751E-02 5.47590E-24
2.05901E-02 5.14801E-24
2.12143E-02 4.84418E-24
2.18476E-02 4.56234E-24
2.24900E-02 4.30061E-24
2.31415E-02 4.05729E-24
2.38021E-02 3.83085E-24
2.44717E-02 3.61992E-24
2.51504E-02 3.42323E-24
2.58382E-02 3.23965E-24
2.65349E-02 3.06814E-24
2.72407E-02 2.90778E-24
2.79555E-02 2.75770E-24
2.86793E-02 2.61713E-24
2.94120E-02 2.48535E-24
3.01537E-02 2.36171E-24
3.09043E-02 2.24562E-24
3.16639E-02 2.13653E-24
3.24324E-02 2.03395E-24
3.32098E-02 1.93741E-24
3.39961E-02 1.84650E-24
3.47912E-02 1.76082E-24
3.55952E-02 1.68002E-24
3.64081E-02 1.60377E-24
3.72297E-02 1.53177E-24
3.80602E-02 1.46374E-24
3.88995E-02 1.39941E-24
3.97476E-02 1.33856E-24
4.06044E-02 1.28095E-24
4.14700E-02 1.22639E-24
4.23443E-02 1.17468E-24
4.32273E-02 1.12564E-24
4.41190E-02 1.07912E-24
4.50194E-02 1.03496E-24
4.59284E-02 9.93011E-25
4.68461E-02 9.53153E-25
4.87074E-02 8.79210E-25
5.06030E-02 8.12243E-25
5.25328E-02 7.51479E-25
5.44967E-02 6.96243E-25
5.64946E-02 6.45945E-25
5.85262E-02 6.00067E-25
6.05914E-02 5.58152E-25
6.26901E-02 5.19798E-25
6.48222E-02 4.84650E-25
6.69873E-02 4.52392E-25
6.91854E-02 4.22745E-25
7.14163E-02 3.95461E-25
7.36799E-02 3.70319E-25
7.59760E-02 3.47120E-25
7.83043E-02 3.25688E-25
8.06647E-02 3.05864E-25
8.30571E-02 2.87508E-25
8.54812E-02 2.70490E-25
8.79369E-02 2.54696E-25
9.04240E-02 2.40023E-25
9.29422E-02 2.26377E-25
9.54915E-02 2.13673E-25
9.80716E-02 2.01835E-25
1.00682E-01 1.90793E-25
1.03323E-01 1.80484E-25
1.05995E-01 1.70851E-25
1.08696E-01 1.61842E-25
1.11427E-01 1.53410E-25
1.14188E-01 1.45510E-25
1.16978E-01 1.38103E-25
1.19797E-01 1.31154E-25
1.22645E-01 1.24628E-25
1.25522E-01 1.18495E-25
1.28428E-01 1.12728E-25
1.31361E-01 1.07300E-25
1.34323E-01 1.02189E-25
1.37313E-01 9.73727E-26
1.40330E-01 9.28307E-26
1.43375E-01 8.85447E-26
1.46447E-01 8.44980E-26
1.49545E-01 8.06746E-26
1.52671E-01 7.70602E-26
1.55823E-01 7.36412E-26
1.59001E-01 7.04052E-26
1.62205E-01 6.73408E-26
1.65435E-01 6.44372E-26
1.68690E-01 6.16844E-26
1.71970E-01 5.90733E-26
1.75276E-01 5.65952E-26
1.78606E-01 5.42422E-26
1.81961E-01 5.20069E-26
1.85340E-01 4.98824E-26
1.88743E-01 4.78621E-26
1.92169E-01 4.59401E-26
1.95619E-01 4.41108E-26
1.99092E-01 4.23688E-26
2.02589E-01 4.07094E-26
2.06107E-01 3.91278E-26
2.09649E-01 3.76198E-26
2.13212E-01 3.61814E-26
2.16797E-01 3.48088E-26
2.20404E-01 3.34984E-26
2.24032E-01 3.22470E-26
2.27680E-01 3.10514E-26
2.31350E-01 2.99087E-26
2.35040E-01 2.88161E-26
2.38751E-01 2.77712E-26
2.42481E-01 2.67713E-26
2.46231E-01 2.58143E-26
2.50000E-01 2.48980E-26
2.53788E-01 2.40203E-26
2.57595E-01 2.31794E-26
2.61421E-01 2.23735E-26
2.65264E-01 2.16007E-26
2.69126E-01 2.08596E-26
2.73005E-01 2.01486E-26
2.76901E-01 1.94663E-26
2.80814E-01 1.88113E-26
2.84744E-01 1.81823E-26
2.88691E-01 1.75781E-26
2.92653E-01 1.69976E-26
2.96632E-01 1.64397E-26
3.00625E-01 1.59034E-26
3.04634E-01 1.53877E-26
3.08658E-01 1.48916E-26
3.12697E-01 1.44142E-26
3.16749E-01 1.39549E-26
3.20816E-01 1.35126E-26
3.24896E-01 1.30868E-26
3.28990E-01 1.26767E-26
3.33097E-01 1.22816E-26
3.37216E-01 1.19009E-26
3.41348E-01 1.15339E-26
3.45492E-01 1.11802E-26
3.49647E-01 1.08390E-26
3.53814E-01 1.05100E-26
3.57992E-01 1.01925E-26
3.62181E-01 9.88617E-27
3.66381E-01 9.59051E-27
3.70590E-01 9.30508E-27
3.74810E-01 9.02947E-27
3.79039E-01 8.76329E-27
3.83277E-01 8.50615E-27
3.87524E-01 8.25771E-27
3.91780E-01 8.01761E-27
3.96044E-01 7.78553E-27
4.00316E-01 7.56117E-27
4.04596E-01 7.34421E-27
4.08882E-01 7.13438E-27
4.13176E-01 6.93140E-27
4.17476E-01 6.73501E-27
4.21783E-01 6.54497E-27
4.26095E-01 6.36103E-27
4.30413E-01 6.18296E-27
4.34737E-01 6.01056E-27
4.39065E-01 5.84360E-27
4.43398E-01 5.68189E-27
4.47736E-01 5.52524E-27
4.52077E-01 5.37347E-27
4.56422E-01 5.22639E-27
4.60770E-01 5.08383E-27
4.65122E-01 4.94565E-27
4.69476E-01 4.81168E-27
4.73832E-01 4.68177E-27
4.78190E-01 4.55577E-27
4.82550E-01 4.43357E-27
4.86912E-01 4.31501E-27
4.91274E-01 4.19998E-27
4.95637E-01 4.08835E-27
5.00000E-01 3.98001E-27
5.04363E-01 3.87484E-27
5.08726E-01 3.77274E-27
5.13088E-01 3.67361E-27
5.17450E-01 3.57734E-27
5.21810E-01 3.48384E-27
5.26168E-01 3.39301E-27
5.30524E-01 3.30478E-27
5.34878E-01 3.21905E-27
5.39230E-01 3.13574E-27
5.43578E-01 3.05477E-27
5.47923E-01 2.97607E-27
5.52264E-01 2.89957E-27
5.56602E-01 2.82518E-27
5.60935E-01 2.75286E-27
5.65263E-01 2.68252E-27
5.69587E-01 2.61411E-27
5.73905E-01 2.54757E-27
5.78217E-01 2.48283E-27
5.82524E-01 2.41985E-27
5.86824E-01 2.35857E-27
5.91118E-01 2.29893E-27
5.95404E-01 2.24088E-27
5.99684E-01 2.18438E-27
6.03956E-01 2.12938E-27
6.08220E-01 2.07583E-27
6.12476E-01 2.02370E-27
6.16723E-01 1.97293E-27
6.20961E-01 1.92348E-27
6.25190E-01 1.87532E-27
6.29410E-01 1.82841E-27
6.33619E-01 1.78272E-27
6.37819E-01 1.73819E-27
6.42008E-01 1.69481E-27
6.46186E-01 1.65254E-27
6.50353E-01 1.61134E-27
6.54508E-01 1.57119E-27
6.58652E-01 1.53206E-27
6.62784E-01 1.49391E-27
6.66903E-01 1.45672E-27
6.71010E-01 1.42046E-27
6.75104E-01 1.38510E-27
6.79184E-01 1.35062E-27
6.83251E-01 1.31700E-27
6.87303E-01 1.28421E-27
6.91342E-01 1.25222E-27
6.95366E-01 1.22102E-27
6.99375E-01 1.19059E-27
7.03368E-01 1.16089E-27
7.07347E-01 1.13192E-27
7.11309E-01 1.10365E-27
7.15256E-01 1.07607E-27
7.19186E-01 1.04915E-27
7.23099E-01 1.02287E-27
7.26995E-01 9.97232E-28
7.30874E-01 9.72202E-28
7.34736E-01 9.47770E-28
7.38579E-01 9.23919E-28
7.42405E-01 9.00633E-28
7.46212E-01 8.77899E-28
7.50000E-01 8.55701E-28
7.53769E-01 8.34026E-28
7.57519E-01 8.12861E-28
7.61249E-01 7.92192E-28
7.64960E-01 7.72006E-28
7.68650E-01 7.52291E-28
7.72320E-01 7.33035E-28
7.75968E-01 7.14227E-28
7.79596E-01 6.95854E-28
7.83203E-01 6.77908E-28
7.86788E-01 6.60375E-28
7.90351E-01 6.43247E-28
7.93893E-01 6.26513E-28
7.97411E-01 6.10164E-28
8.00908E-01 5.94190E-28
8.04381E-01 5.78582E-28
8.07831E-01 5.63331E-28
8.11257E-01 5.48428E-28
8.14660E-01 5.33865E-28
8.18039E-01 5.19634E-28
8.21394E-01 5.05726E-28
8.24724E-01 4.92135E-28
8.28030E-01 4.78853E-28
8.31310E-01 4.65871E-28
8.34565E-01 4.53184E-28
8.37795E-01 4.40785E-28
8.40999E-01 4.28666E-28
8.44177E-01 4.16821E-28
8.47329E-01 4.05244E-28
8.50455E-01 3.93929E-28
8.53553E-01 3.82870E-28
8.56625E-01 3.72061E-28
8.59670E-01 3.61496E-28
8.62687E-01 3.51170E-28
8.65677E-01 3.41077E-28
8.68639E-01 3.31213E-28
8.71572E-01 3.21572E-28
8.74478E-01 3.12149E-28
8.77355E-01 3.02940E-28
8.80203E-01 2.93940E-28
8.83022E-01 2.85144E-28
8.85812E-01 2.76549E-28
8.88573E-01 2.68149E-28
8.91304E-01 2.59941E-28
8.94005E-01 2.51920E-28
8.96677E-01 2.44083E-28
8.99318E-01 2.36426E-28
9.01928E-01 2.28945E-28
9.04508E-01 2.21637E-28
9.07058E-01 2.14497E-28
9.09576E-01 2.07523E-28
9.12063E-01 2.00712E-28
9.14519E-01 1.94059E-28
9.16943E-01 1.87562E-28
9.19335E-01 1.81218E-28
9.21696E-01 1.75024E-28
9.24024E-01 1.68976E-28
9.26320E-01 1.63073E-28
9.28584E-01 1.57311E-28
9.30815E-01 1.51688E-28
9.33013E-01 1.46201E-28
9.35178E-01 1.40847E-28
9.37310E-01 1.35625E-28
9.39409E-01 1.30532E-28
9.41474E-01 1.25564E-28
9.43505E-01 1.20722E-28
9.45503E-01 1.16001E-28
9.47467E-01 1.11400E-28
9.49397E-01 1.06917E-28
9.51293E-01 1.02549E-28
9.53154E-01 9.82961E-29
9.54981E-01 9.41548E-29
9.56773E-01 9.01238E-29
9.58530E-01 8.62011E-29
9.60252E-01 8.23851E-29
9.61940E-01 7.86742E-29
9.63592E-01 7.50667E-29
9.65209E-01 7.15611E-29
9.66790E-01 6.81557E-29
9.68336E-01 6.48492E-29
9.69846E-01 6.16402E-29
9.71321E-01 5.85272E-29
9.72759E-01 5.55088E-29
9.74162E-01 5.25839E-29
9.75528E-01 4.97512E-29
9.76858E-01 4.70094E-29
9.78152E-01 4.43574E-29
9.79410E-01 4.17941E-29
9.80631E-01 3.93183E-29
9.81815E-01 3.69290E-29
9.82963E-01 3.46253E-29
9.84074E-01 3.24062E-29
9.85148E-01 3.02706E-29
9.86185E-01 2.82178E-29
9.87185E-01 2.62468E-29
9.88148E-01 2.43569E-29
9.89074E-01 2.25473E-29
9.89962E-01 2.08171E-29
9.90814E-01 1.91658E-29
9.91627E-01 1.75925E-29
9.92404E-01 1.60966E-29
9.93143E-01 1.46776E-29
9.93844E-01 1.33348E-29
9.94508E-01 1.20678E-29
9.95134E-01 1.08758E-29
9.95722E-01 9.75856E-30
9.96273E-01 8.71551E-30
9.96786E-01 7.74624E-30
9.97261E-01 6.85035E-30
9.97698E-01 6.02748E-30
9.98097E-01 5.27729E-30
9.98459E-01 4.59945E-30
9.98782E-01 3.99372E-30
9.99067E-01 3.45983E-30
9.99315E-01 2.99756E-30
9.99524E-01 2.60673E-30
9.99695E-01 2.28718E-30
9.99829E-01 2.03878E-30
9.99924E-01 1.86142E-30
9.99981E-01 1.75503E-30
1.00000E+00 1.71958E-30
