 #
 # Subroutine ELSEPA. Elastic scattering of electrons and positrons
 #                    by neutral atoms and positive ions
 #
 # Projectile: positron
 # Kinetic energy = 4.00000E+08 eV = 1.46997E+07 a.u.
 #
 # WARNING: High-energy factorization with free-atom DF screening.
 #          Absorption, polarization and exchange corrections are
 #          switched off.
 #          Phase shifts are calculated for the bare nucleus.
 #          Scattering amplitudes are not evaluated.
 #
 # Element: Mg,  Z =  12,  atomic weight = 2.43050E+01 g/mol
 #
 # Nuclear model: Fermi distribution
 #                Average radius = 3.09943E-13 cm
 #                Skin thickness = 5.46000E-14 cm
 #
 # Number of electrons = 12
 #
 # Total elastic cross section = 6.08558E-19 cm**2 = 2.17320E-02 a0**2
 # 1st transport cross section = 1.95369E-27 cm**2 = 6.97675E-11 a0**2
 # 2nd transport cross section = 5.85492E-27 cm**2 = 2.09083E-10 a0**2
 #
 #
 # Differential cross section:                       MU=(1-COS(THETA))/2
 #
 #  THETA        MU          DCS          DCS        Sherman      error
 #  (deg)                 (cm**2/sr)   (a0**2/sr)    function
 #----------------------------------------------------------------------
0.00000E+00 1.66345E-09
7.61557E-13 1.55881E-09
1.18994E-12 1.50401E-09
1.71346E-12 1.44067E-09
2.33225E-12 1.37056E-09
3.04617E-12 1.29556E-09
3.85530E-12 1.21746E-09
4.75964E-12 1.13793E-09
5.75917E-12 1.05846E-09
6.85391E-12 9.80338E-10
8.04379E-12 9.04630E-10
9.32893E-12 8.32148E-10
1.07092E-11 7.63444E-10
1.21847E-11 6.99034E-10
1.37554E-11 6.39088E-10
1.54213E-11 5.83693E-10
1.71823E-11 5.32897E-10
1.90386E-11 4.86288E-10
2.09900E-11 4.43661E-10
2.30367E-11 4.05270E-10
2.51785E-11 3.70499E-10
2.74156E-11 3.38871E-10
2.97478E-11 3.10244E-10
3.21752E-11 2.84856E-10
3.46979E-11 2.61788E-10
3.73157E-11 2.40835E-10
4.00286E-11 2.22150E-10
4.28368E-11 2.05381E-10
4.57402E-11 1.90118E-10
4.87388E-11 1.76237E-10
5.18325E-11 1.63955E-10
5.50215E-11 1.52740E-10
5.83057E-11 1.42491E-10
6.16850E-11 1.33234E-10
6.51595E-11 1.24867E-10
6.87293E-11 1.17191E-10
7.23943E-11 1.10141E-10
7.61544E-11 1.03770E-10
1.18991E-10 6.16836E-11
1.71347E-10 4.04874E-11
2.33223E-10 2.80484E-11
3.04617E-10 2.00426E-11
3.85531E-10 1.46095E-11
4.75965E-10 1.08070E-11
5.75917E-10 8.09577E-12
6.85389E-10 6.13507E-12
8.04380E-10 4.70339E-12
9.32891E-10 3.64679E-12
1.07092E-09 2.85405E-12
1.21847E-09 2.26351E-12
1.37554E-09 1.81390E-12
1.54213E-09 1.46610E-12
1.71823E-09 1.19720E-12
1.90386E-09 9.86645E-13
2.09900E-09 8.19663E-13
2.30367E-09 6.86489E-13
2.51785E-09 5.79350E-13
2.74156E-09 4.92336E-13
2.97478E-09 4.21115E-13
3.21752E-09 3.62435E-13
3.46978E-09 3.13730E-13
3.73156E-09 2.72996E-13
4.00286E-09 2.38747E-13
4.28368E-09 2.09775E-13
4.57402E-09 1.85115E-13
4.87388E-09 1.64017E-13
5.18326E-09 1.45883E-13
5.50215E-09 1.30219E-13
5.83057E-09 1.16620E-13
6.16850E-09 1.04774E-13
6.51596E-09 9.44146E-14
6.87293E-09 8.53111E-14
7.23942E-09 7.72900E-14
7.61544E-09 7.02005E-14
1.18991E-08 2.99986E-14
1.71347E-08 1.48943E-14
2.33223E-08 8.19636E-15
3.04617E-08 4.86628E-15
3.85531E-08 3.06401E-15
4.75965E-08 2.02198E-15
5.75917E-08 1.38659E-15
6.85389E-08 9.81803E-16
8.04380E-08 7.14267E-16
9.32891E-08 5.31825E-16
1.07092E-07 4.04014E-16
1.21847E-07 3.12353E-16
1.37554E-07 2.45250E-16
1.54213E-07 1.95223E-16
1.71823E-07 1.57317E-16
1.90386E-07 1.28175E-16
2.09900E-07 1.05476E-16
2.30367E-07 8.75847E-17
2.51785E-07 7.33295E-17
2.74156E-07 6.18590E-17
2.97478E-07 5.25455E-17
3.21752E-07 4.49202E-17
3.46978E-07 3.86290E-17
3.73156E-07 3.34014E-17
4.00286E-07 2.90288E-17
4.28368E-07 2.53487E-17
4.57402E-07 2.22336E-17
4.87388E-07 1.95827E-17
5.18325E-07 1.73152E-17
5.50215E-07 1.53666E-17
5.83057E-07 1.36846E-17
6.16850E-07 1.22264E-17
6.51596E-07 1.09572E-17
6.87293E-07 9.84853E-18
7.23942E-07 8.87659E-18
7.61543E-07 8.02164E-18
1.18991E-06 3.28554E-18
1.71347E-06 1.58439E-18
2.33223E-06 8.55169E-19
3.04617E-06 5.01258E-19
3.85531E-06 3.12916E-19
4.75964E-06 2.05293E-19
5.75916E-06 1.40210E-19
6.85388E-06 9.89918E-20
8.04378E-06 7.18665E-20
9.32888E-06 5.34273E-20
1.07092E-05 4.05401E-20
1.21846E-05 3.13145E-20
1.37553E-05 2.45700E-20
1.54212E-05 1.95473E-20
1.71822E-05 1.57448E-20
1.90385E-05 1.28246E-20
2.09899E-05 1.05503E-20
2.30365E-05 8.75814E-21
2.51783E-05 7.33067E-21
2.74153E-05 6.18251E-21
2.97475E-05 5.25066E-21
3.21749E-05 4.48804E-21
3.46974E-05 3.85904E-21
3.73152E-05 3.33650E-21
4.00281E-05 2.89947E-21
4.28362E-05 2.53166E-21
4.57395E-05 2.22033E-21
4.87380E-05 1.95538E-21
5.18317E-05 1.72879E-21
5.50205E-05 1.53409E-21
5.83045E-05 1.36605E-21
6.16838E-05 1.22041E-21
6.51582E-05 1.09367E-21
6.87277E-05 9.82974E-22
7.23925E-05 8.85926E-22
7.61524E-05 7.97817E-22
9.21439E-05 5.44364E-22
1.09658E-04 3.83955E-22
1.28695E-04 2.78440E-22
1.49255E-04 2.06757E-22
1.71338E-04 1.56692E-22
1.94942E-04 1.20873E-22
2.20070E-04 9.47071E-23
2.46720E-04 7.52345E-23
2.74892E-04 6.05050E-23
3.04586E-04 4.91982E-23
3.35803E-04 4.04035E-23
3.68542E-04 3.34812E-23
4.02802E-04 2.79729E-23
4.38585E-04 2.35467E-23
4.75889E-04 1.99574E-23
5.14715E-04 1.70226E-23
5.55063E-04 1.46045E-23
5.96931E-04 1.25978E-23
6.40321E-04 1.09216E-23
6.85233E-04 9.51277E-24
7.31665E-04 8.32198E-24
7.79618E-04 7.31004E-24
8.29092E-04 6.44577E-24
8.80086E-04 5.70416E-24
9.32601E-04 5.06496E-24
9.86636E-04 4.51175E-24
1.04219E-03 4.03106E-24
1.09927E-03 3.61184E-24
1.15786E-03 3.24494E-24
1.21797E-03 2.92274E-24
1.27961E-03 2.63892E-24
1.34276E-03 2.38815E-24
1.40743E-03 2.16594E-24
1.47362E-03 1.96850E-24
1.54133E-03 1.79261E-24
1.61056E-03 1.63554E-24
1.68131E-03 1.49493E-24
1.75357E-03 1.36878E-24
1.82735E-03 1.25535E-24
1.90265E-03 1.15315E-24
1.97947E-03 1.06087E-24
2.05780E-03 9.77408E-25
2.13765E-03 9.01770E-25
2.21902E-03 8.33102E-25
2.30190E-03 7.70658E-25
2.38630E-03 7.13780E-25
2.47222E-03 6.61890E-25
2.55965E-03 6.14478E-25
2.64859E-03 5.71095E-25
2.73905E-03 5.31342E-25
2.83103E-03 4.94865E-25
2.92452E-03 4.61351E-25
3.01952E-03 4.30520E-25
3.11604E-03 4.02121E-25
3.21407E-03 3.75932E-25
3.31362E-03 3.51752E-25
3.41468E-03 3.29404E-25
3.51725E-03 3.08725E-25
3.62133E-03 2.89571E-25
3.72692E-03 2.71812E-25
3.83403E-03 2.55329E-25
3.94265E-03 2.40017E-25
4.05278E-03 2.25778E-25
4.16442E-03 2.12527E-25
4.27757E-03 2.00183E-25
4.39223E-03 1.88674E-25
4.50840E-03 1.77936E-25
4.62608E-03 1.67909E-25
4.74527E-03 1.58537E-25
4.86597E-03 1.49773E-25
4.98817E-03 1.41570E-25
5.11188E-03 1.33886E-25
5.23711E-03 1.26685E-25
5.36383E-03 1.19931E-25
5.49207E-03 1.13592E-25
5.62181E-03 1.07638E-25
5.75306E-03 1.02044E-25
5.88581E-03 9.67833E-26
6.02007E-03 9.18338E-26
6.15583E-03 8.71742E-26
6.29310E-03 8.27850E-26
6.43187E-03 7.86483E-26
6.57214E-03 7.47475E-26
6.71392E-03 7.10671E-26
6.85720E-03 6.75929E-26
7.00198E-03 6.43117E-26
7.14827E-03 6.12113E-26
7.29605E-03 5.82803E-26
7.44534E-03 5.55081E-26
7.59612E-03 5.28850E-26
7.97965E-03 4.69209E-26
8.37255E-03 4.17069E-26
8.77480E-03 3.71370E-26
9.18641E-03 3.31222E-26
9.60736E-03 2.95869E-26
1.00376E-02 2.64673E-26
1.04773E-02 2.37089E-26
1.09262E-02 2.12653E-26
1.13844E-02 1.90965E-26
1.18520E-02 1.71683E-26
1.23288E-02 1.54513E-26
1.28150E-02 1.39200E-26
1.33104E-02 1.25522E-26
1.38150E-02 1.13288E-26
1.43290E-02 1.02332E-26
1.48521E-02 9.25074E-27
1.53845E-02 8.36869E-27
1.59262E-02 7.57592E-27
1.64770E-02 6.86263E-27
1.70371E-02 6.22020E-27
1.76063E-02 5.64104E-27
1.81848E-02 5.11845E-27
1.87724E-02 4.64650E-27
1.93692E-02 4.21994E-27
1.99751E-02 3.83410E-27
2.05901E-02 3.48485E-27
2.12143E-02 3.16851E-27
2.18476E-02 2.88178E-27
2.24900E-02 2.62175E-27
2.31415E-02 2.38579E-27
2.38021E-02 2.17155E-27
2.44717E-02 1.97695E-27
2.51504E-02 1.80010E-27
2.58382E-02 1.63932E-27
2.65349E-02 1.49308E-27
2.72407E-02 1.36002E-27
2.79555E-02 1.23891E-27
2.86793E-02 1.12864E-27
2.94120E-02 1.02822E-27
3.01537E-02 9.36739E-28
3.09043E-02 8.53384E-28
3.16639E-02 7.77417E-28
3.24324E-02 7.08170E-28
3.32098E-02 6.45040E-28
3.39961E-02 5.87478E-28
3.47912E-02 5.34987E-28
3.55952E-02 4.87117E-28
3.64081E-02 4.43457E-28
3.72297E-02 4.03636E-28
3.80602E-02 3.67315E-28
3.88995E-02 3.34186E-28
3.97476E-02 3.03971E-28
4.06044E-02 2.76413E-28
4.14700E-02 2.51281E-28
4.23443E-02 2.28362E-28
4.32273E-02 2.07465E-28
4.41190E-02 1.88414E-28
4.50194E-02 1.71047E-28
4.59284E-02 1.55219E-28
4.68461E-02 1.40796E-28
4.87074E-02 1.15689E-28
5.06030E-02 9.48703E-29
5.25328E-02 7.76278E-29
5.44967E-02 6.33663E-29
5.64946E-02 5.15881E-29
5.85262E-02 4.18777E-29
6.05914E-02 3.38873E-29
6.26901E-02 2.73264E-29
6.48222E-02 2.19522E-29
6.69873E-02 1.75616E-29
6.91854E-02 1.39851E-29
7.14163E-02 1.10812E-29
7.36799E-02 8.73196E-30
7.59760E-02 6.83899E-30
7.83043E-02 5.32047E-30
8.06647E-02 4.10839E-30
8.30571E-02 3.14631E-30
8.54812E-02 2.38749E-30
8.79369E-02 1.79328E-30
9.04240E-02 1.33181E-30
9.29422E-02 9.76841E-31
9.54915E-02 7.06864E-31
9.80716E-02 5.04278E-31
1.00682E-01 3.54742E-31
1.03323E-01 2.46614E-31
1.05995E-01 1.70487E-31
1.08696E-01 1.18799E-31
1.11427E-01 8.55029E-32
1.14188E-01 6.58001E-32
1.16978E-01 5.59088E-32
1.19797E-01 5.28771E-32
1.22645E-01 5.44254E-32
1.25522E-01 5.88169E-32
1.28428E-01 6.47498E-32
1.31361E-01 7.12691E-32
1.34323E-01 7.76936E-32
1.37313E-01 8.35570E-32
1.40330E-01 8.85590E-32
1.43375E-01 9.25267E-32
1.46447E-01 9.53824E-32
1.49545E-01 9.71184E-32
1.52671E-01 9.77773E-32
1.55823E-01 9.74357E-32
1.59001E-01 9.61920E-32
1.62205E-01 9.41570E-32
1.65435E-01 9.14466E-32
1.68690E-01 8.81763E-32
1.71970E-01 8.44578E-32
1.75276E-01 8.03958E-32
1.78606E-01 7.60868E-32
1.81961E-01 7.16175E-32
1.85340E-01 6.70649E-32
1.88743E-01 6.24959E-32
1.92169E-01 5.79678E-32
1.95619E-01 5.35285E-32
1.99092E-01 4.92173E-32
2.02589E-01 4.50657E-32
2.06107E-01 4.10980E-32
2.09649E-01 3.73320E-32
2.13212E-01 3.37801E-32
2.16797E-01 3.04498E-32
2.20404E-01 2.73443E-32
2.24032E-01 2.44634E-32
2.27680E-01 2.18039E-32
2.31350E-01 1.93605E-32
2.35040E-01 1.71256E-32
2.38751E-01 1.50904E-32
2.42481E-01 1.32450E-32
2.46231E-01 1.15787E-32
2.50000E-01 1.00805E-32
2.53788E-01 8.73878E-33
2.57595E-01 7.54231E-33
2.61421E-01 6.47975E-33
2.65264E-01 5.54009E-33
2.69126E-01 4.71270E-33
2.73005E-01 3.98736E-33
2.76901E-01 3.35439E-33
2.80814E-01 2.80465E-33
2.84744E-01 2.32957E-33
2.88691E-01 1.92116E-33
2.92653E-01 1.57203E-33
2.96632E-01 1.27539E-33
3.00625E-01 1.02497E-33
3.04634E-01 8.15106E-34
3.08658E-01 6.40614E-34
3.12697E-01 4.96834E-34
3.16749E-01 3.79568E-34
3.20816E-01 2.85060E-34
3.24896E-01 2.09963E-34
3.28990E-01 1.51310E-34
3.33097E-01 1.06480E-34
3.37216E-01 7.31746E-35
3.41348E-01 4.93819E-35
3.45492E-01 3.33555E-35
3.49647E-01 2.35859E-35
3.53814E-01 1.87759E-35
3.57992E-01 1.78199E-35
3.62181E-01 1.97801E-35
3.66381E-01 2.38695E-35
3.70590E-01 2.94323E-35
3.74810E-01 3.59284E-35
3.79039E-01 4.29186E-35
3.83277E-01 5.00500E-35
3.87524E-01 5.70452E-35
3.91780E-01 6.36907E-35
3.96044E-01 6.98287E-35
4.00316E-01 7.53447E-35
4.04596E-01 8.01658E-35
4.08882E-01 8.42469E-35
4.13176E-01 8.75728E-35
4.17476E-01 9.01457E-35
4.21783E-01 9.19856E-35
4.26095E-01 9.31244E-35
4.30413E-01 9.36042E-35
4.34737E-01 9.34739E-35
4.39065E-01 9.27856E-35
4.43398E-01 9.15945E-35
4.47736E-01 8.99571E-35
4.52077E-01 8.79300E-35
4.56422E-01 8.55673E-35
4.60770E-01 8.29211E-35
4.65122E-01 8.00417E-35
4.69476E-01 7.69765E-35
4.73832E-01 7.37688E-35
4.78190E-01 7.04578E-35
4.82550E-01 6.70812E-35
4.86912E-01 6.36713E-35
4.91274E-01 6.02571E-35
4.95637E-01 5.68643E-35
5.00000E-01 5.35160E-35
5.04363E-01 5.02318E-35
5.08726E-01 4.70273E-35
5.13088E-01 4.39165E-35
5.17450E-01 4.09112E-35
5.21810E-01 3.80193E-35
5.26168E-01 3.52489E-35
5.30524E-01 3.26035E-35
5.34878E-01 3.00873E-35
5.39230E-01 2.77014E-35
5.43578E-01 2.54472E-35
5.47923E-01 2.33234E-35
5.52264E-01 2.13284E-35
5.56602E-01 1.94596E-35
5.60935E-01 1.77143E-35
5.65263E-01 1.60884E-35
5.69587E-01 1.45776E-35
5.73905E-01 1.31779E-35
5.78217E-01 1.18836E-35
5.82524E-01 1.06905E-35
5.86824E-01 9.59299E-36
5.91118E-01 8.58610E-36
5.95404E-01 7.66444E-36
5.99684E-01 6.82317E-36
6.03956E-01 6.05716E-36
6.08220E-01 5.36116E-36
6.12476E-01 4.73057E-36
6.16723E-01 4.16088E-36
6.20961E-01 3.64738E-36
6.25190E-01 3.18593E-36
6.29410E-01 2.77231E-36
6.33619E-01 2.40276E-36
6.37819E-01 2.07352E-36
6.42008E-01 1.78117E-36
6.46186E-01 1.52256E-36
6.50353E-01 1.29444E-36
6.54508E-01 1.09414E-36
6.58652E-01 9.18875E-37
6.62784E-01 7.66282E-37
6.66903E-01 6.34092E-37
6.71010E-01 5.20125E-37
6.75104E-01 4.22530E-37
6.79184E-01 3.39454E-37
6.83251E-01 2.69309E-37
6.87303E-01 2.10622E-37
6.91342E-01 1.61994E-37
6.95366E-01 1.22222E-37
6.99375E-01 9.01793E-38
7.03368E-01 6.48612E-38
7.07347E-01 4.53601E-38
7.11309E-01 3.08604E-38
7.15256E-01 2.06238E-38
7.19186E-01 1.40034E-38
7.23099E-01 1.04124E-38
7.26995E-01 9.33826E-39
7.30874E-01 1.03204E-38
7.34736E-01 1.29615E-38
7.38579E-01 1.69162E-38
7.42405E-01 2.18741E-38
7.46212E-01 2.75719E-38
7.50000E-01 3.37862E-38
7.53769E-01 4.03229E-38
7.57519E-01 4.69707E-38
7.61249E-01 5.36611E-38
7.64960E-01 6.02324E-38
7.68650E-01 6.66432E-38
7.72320E-01 7.27415E-38
7.75968E-01 7.85076E-38
7.79596E-01 8.38867E-38
7.83203E-01 8.88573E-38
7.86788E-01 9.34064E-38
7.90351E-01 9.74805E-38
7.93893E-01 1.01069E-37
7.97411E-01 1.04241E-37
8.00908E-01 1.06949E-37
8.04381E-01 1.09186E-37
8.07831E-01 1.10985E-37
8.11257E-01 1.12365E-37
8.14660E-01 1.13369E-37
8.18039E-01 1.13972E-37
8.21394E-01 1.14216E-37
8.24724E-01 1.14134E-37
8.28030E-01 1.13714E-37
8.31310E-01 1.13039E-37
8.34565E-01 1.12059E-37
8.37795E-01 1.10872E-37
8.40999E-01 1.09432E-37
8.44177E-01 1.07813E-37
8.47329E-01 1.06004E-37
8.50455E-01 1.04039E-37
8.53553E-01 1.01956E-37
8.56625E-01 9.97175E-38
8.59670E-01 9.74054E-38
8.62687E-01 9.49889E-38
8.65677E-01 9.25325E-38
8.68639E-01 8.99789E-38
8.71572E-01 8.74079E-38
8.74478E-01 8.47931E-38
8.77355E-01 8.21915E-38
8.80203E-01 7.95546E-38
8.83022E-01 7.69097E-38
8.85812E-01 7.43085E-38
8.88573E-01 7.16928E-38
8.91304E-01 6.91122E-38
8.94005E-01 6.65749E-38
8.96677E-01 6.40613E-38
8.99318E-01 6.15925E-38
9.01928E-01 5.91583E-38
9.04508E-01 5.67801E-38
9.07058E-01 5.44490E-38
9.09576E-01 5.21761E-38
9.12063E-01 4.99540E-38
9.14519E-01 4.77803E-38
9.16943E-01 4.56897E-38
9.19335E-01 4.36429E-38
9.21696E-01 4.16702E-38
9.24024E-01 3.97472E-38
9.26320E-01 3.78905E-38
9.28584E-01 3.60873E-38
9.30815E-01 3.43546E-38
9.33013E-01 3.26811E-38
9.35178E-01 3.10741E-38
9.37310E-01 2.95057E-38
9.39409E-01 2.80164E-38
9.41474E-01 2.65814E-38
9.43505E-01 2.52119E-38
9.45503E-01 2.38795E-38
9.47467E-01 2.26135E-38
9.49397E-01 2.14027E-38
9.51293E-01 2.02315E-38
9.53154E-01 1.91213E-38
9.54981E-01 1.80441E-38
9.56773E-01 1.70315E-38
9.58530E-01 1.60528E-38
9.60252E-01 1.51268E-38
9.61940E-01 1.42405E-38
9.63592E-01 1.33909E-38
9.65209E-01 1.25864E-38
9.66790E-01 1.18215E-38
9.68336E-01 1.10823E-38
9.69846E-01 1.03832E-38
9.71321E-01 9.71961E-39
9.72759E-01 9.08643E-39
9.74162E-01 8.48096E-39
9.75528E-01 7.91823E-39
9.76858E-01 7.36955E-39
9.78152E-01 6.85885E-39
9.79410E-01 6.36349E-39
9.80631E-01 5.90303E-39
9.81815E-01 5.46396E-39
9.82963E-01 5.04597E-39
9.84074E-01 4.65667E-39
9.85148E-01 4.28450E-39
9.86185E-01 3.93732E-39
9.87185E-01 3.61080E-39
9.88148E-01 3.30405E-39
9.89074E-01 3.00730E-39
9.89962E-01 2.73775E-39
9.90814E-01 2.47249E-39
9.91627E-01 2.23138E-39
9.92404E-01 2.00945E-39
9.93143E-01 1.79548E-39
9.93844E-01 1.60016E-39
9.94508E-01 1.41957E-39
9.95134E-01 1.24570E-39
9.95722E-01 1.08738E-39
9.96273E-01 9.41690E-40
9.96786E-01 8.08441E-40
9.97261E-01 6.84563E-40
9.97698E-01 5.75091E-40
9.98097E-01 4.67823E-40
9.98459E-01 3.81740E-40
9.98782E-01 3.00618E-40
9.99067E-01 2.29593E-40
9.99315E-01 1.69882E-40
9.99524E-01 1.17804E-40
9.99695E-01 7.64802E-41
9.99829E-01 4.30862E-41
9.99924E-01 1.75141E-41
9.99981E-01 5.16804E-42
1.00000E+00 1.22451E-43
