 #
 # Subroutine ELSEPA. Elastic scattering of electrons and positrons
 #                    by neutral atoms and positive ions
 #
 # Projectile: positron
 # Kinetic energy = 5.00000E+06 eV = 1.83747E+05 a.u.
 #
 # WARNING: High-energy factorization with free-atom DF screening.
 #          Absorption, polarization and exchange corrections are
 #          switched off.
 #          Phase shifts are calculated for the bare nucleus.
 #          Scattering amplitudes are not evaluated.
 #
 # Element: Mg,  Z =  12,  atomic weight = 2.43050E+01 g/mol
 #
 # Nuclear model: Fermi distribution
 #                Average radius = 3.09943E-13 cm
 #                Skin thickness = 5.46000E-14 cm
 #
 # Number of electrons = 12
 #
 # Total elastic cross section = 6.13813E-19 cm**2 = 2.19197E-02 a0**2
 # 1st transport cross section = 7.22692E-24 cm**2 = 2.58078E-07 a0**2
 # 2nd transport cross section = 2.08065E-23 cm**2 = 7.43014E-07 a0**2
 #
 #
 # Differential cross section:                       MU=(1-COS(THETA))/2
 #
 #  THETA        MU          DCS          DCS        Sherman      error
 #  (deg)                 (cm**2/sr)   (a0**2/sr)    function
 #----------------------------------------------------------------------
0.00000E+00 3.14951E-13
7.61557E-13 3.14946E-13
1.18994E-12 3.14944E-13
1.71346E-12 3.14941E-13
2.33225E-12 3.14938E-13
3.04617E-12 3.14934E-13
3.85530E-12 3.14930E-13
4.75964E-12 3.14925E-13
5.75917E-12 3.14920E-13
6.85391E-12 3.14915E-13
8.04379E-12 3.14908E-13
9.32893E-12 3.14902E-13
1.07092E-11 3.14895E-13
1.21847E-11 3.14887E-13
1.37554E-11 3.14879E-13
1.54213E-11 3.14870E-13
1.71823E-11 3.14861E-13
1.90386E-11 3.14852E-13
2.09900E-11 3.14842E-13
2.30367E-11 3.14831E-13
2.51785E-11 3.14820E-13
2.74156E-11 3.14809E-13
2.97478E-11 3.14797E-13
3.21752E-11 3.14784E-13
3.46979E-11 3.14771E-13
3.73157E-11 3.14758E-13
4.00286E-11 3.14744E-13
4.28368E-11 3.14729E-13
4.57402E-11 3.14715E-13
4.87388E-11 3.14699E-13
5.18325E-11 3.14683E-13
5.50215E-11 3.14667E-13
5.83057E-11 3.14650E-13
6.16850E-11 3.14633E-13
6.51595E-11 3.14615E-13
6.87293E-11 3.14597E-13
7.23943E-11 3.14578E-13
7.61544E-11 3.14559E-13
1.18991E-10 3.14340E-13
1.71347E-10 3.14072E-13
2.33223E-10 3.13757E-13
3.04617E-10 3.13394E-13
3.85531E-10 3.12983E-13
4.75965E-10 3.12525E-13
5.75917E-10 3.12020E-13
6.85389E-10 3.11468E-13
8.04380E-10 3.10870E-13
9.32891E-10 3.10226E-13
1.07092E-09 3.09536E-13
1.21847E-09 3.08801E-13
1.37554E-09 3.08022E-13
1.54213E-09 3.07198E-13
1.71823E-09 3.06331E-13
1.90386E-09 3.05420E-13
2.09900E-09 3.04467E-13
2.30367E-09 3.03472E-13
2.51785E-09 3.02436E-13
2.74156E-09 3.01359E-13
2.97478E-09 3.00241E-13
3.21752E-09 2.99085E-13
3.46978E-09 2.97889E-13
3.73156E-09 2.96656E-13
4.00286E-09 2.95386E-13
4.28368E-09 2.94079E-13
4.57402E-09 2.92737E-13
4.87388E-09 2.91358E-13
5.18326E-09 2.89947E-13
5.50215E-09 2.88502E-13
5.83057E-09 2.87024E-13
6.16850E-09 2.85515E-13
6.51596E-09 2.83974E-13
6.87293E-09 2.82404E-13
7.23942E-09 2.80805E-13
7.61544E-09 2.79177E-13
1.18991E-08 2.61543E-13
1.71347E-08 2.42068E-13
2.33223E-08 2.21622E-13
3.04617E-08 2.00985E-13
3.85531E-08 1.80806E-13
4.75965E-08 1.61582E-13
5.75917E-08 1.43648E-13
6.85389E-08 1.27236E-13
8.04380E-08 1.12417E-13
9.32891E-08 9.92341E-14
1.07092E-07 8.75267E-14
1.21847E-07 7.72713E-14
1.37554E-07 6.83395E-14
1.54213E-07 6.04981E-14
1.71823E-07 5.37846E-14
1.90386E-07 4.79224E-14
2.09900E-07 4.28248E-14
2.30367E-07 3.84556E-14
2.51785E-07 3.46146E-14
2.74156E-07 3.13026E-14
2.97478E-07 2.84102E-14
3.21752E-07 2.58583E-14
3.46978E-07 2.36507E-14
3.73156E-07 2.16890E-14
4.00286E-07 1.99574E-14
4.28368E-07 1.84260E-14
4.57402E-07 1.70555E-14
4.87388E-07 1.58357E-14
5.18325E-07 1.47398E-14
5.50215E-07 1.37517E-14
5.83057E-07 1.28583E-14
6.16850E-07 1.20499E-14
6.51596E-07 1.13105E-14
6.87293E-07 1.06365E-14
7.23942E-07 1.00214E-14
7.61543E-07 9.45025E-15
1.18991E-06 5.59546E-15
1.71347E-06 3.53399E-15
2.33223E-06 2.31114E-15
3.04617E-06 1.54914E-15
3.85531E-06 1.06200E-15
4.75964E-06 7.43815E-16
5.75916E-06 5.31076E-16
6.85388E-06 3.87731E-16
8.04378E-06 2.88502E-16
9.32888E-06 2.18540E-16
1.07092E-05 1.68322E-16
1.21846E-05 1.31653E-16
1.37553E-05 1.04436E-16
1.54212E-05 8.39206E-17
1.71822E-05 6.82336E-17
1.90385E-05 5.60801E-17
2.09899E-05 4.65394E-17
2.30365E-05 3.89645E-17
2.51783E-05 3.28867E-17
2.74153E-05 2.79628E-17
2.97475E-05 2.39375E-17
3.21749E-05 2.06195E-17
3.46974E-05 1.78632E-17
3.73152E-05 1.55567E-17
4.00281E-05 1.36138E-17
4.28362E-05 1.19669E-17
4.57395E-05 1.05631E-17
4.87380E-05 9.36021E-18
5.18317E-05 8.32442E-18
5.50205E-05 7.42852E-18
5.83045E-05 6.65028E-18
6.16838E-05 5.97156E-18
6.51582E-05 5.37734E-18
6.87277E-05 4.85523E-18
7.23925E-05 4.39491E-18
7.61524E-05 3.98777E-18
9.21439E-05 2.76234E-18
1.09658E-04 1.97242E-18
1.28695E-04 1.44480E-18
1.49255E-04 1.08174E-18
1.71338E-04 8.25455E-19
1.94942E-04 6.40469E-19
2.20070E-04 5.04338E-19
2.46720E-04 4.02396E-19
2.74892E-04 3.24874E-19
3.04586E-04 2.65096E-19
3.35803E-04 2.18415E-19
3.68542E-04 1.81544E-19
4.02802E-04 1.52115E-19
4.38585E-04 1.28402E-19
4.75889E-04 1.09124E-19
5.14715E-04 9.33239E-20
5.55063E-04 8.02777E-20
5.96931E-04 6.94294E-20
6.40321E-04 6.03503E-20
6.85233E-04 5.27053E-20
7.31665E-04 4.62317E-20
7.79618E-04 4.07205E-20
8.29092E-04 3.60056E-20
8.80086E-04 3.19527E-20
9.32601E-04 2.84536E-20
9.86636E-04 2.54200E-20
1.04219E-03 2.27796E-20
1.09927E-03 2.04729E-20
1.15786E-03 1.84506E-20
1.21797E-03 1.66716E-20
1.27961E-03 1.51017E-20
1.34276E-03 1.37120E-20
1.40743E-03 1.24784E-20
1.47362E-03 1.13803E-20
1.54133E-03 1.04003E-20
1.61056E-03 9.52334E-21
1.68131E-03 8.73680E-21
1.75357E-03 8.02973E-21
1.82735E-03 7.39267E-21
1.90265E-03 6.81748E-21
1.97947E-03 6.29709E-21
2.05780E-03 5.82535E-21
2.13765E-03 5.39692E-21
2.21902E-03 5.00711E-21
2.30190E-03 4.65183E-21
2.38630E-03 4.32746E-21
2.47222E-03 4.03085E-21
2.55965E-03 3.75918E-21
2.64859E-03 3.50999E-21
2.73905E-03 3.28108E-21
2.83103E-03 3.07051E-21
2.92452E-03 2.87653E-21
3.01952E-03 2.69762E-21
3.11604E-03 2.53238E-21
3.21407E-03 2.37957E-21
3.31362E-03 2.23810E-21
3.41468E-03 2.10696E-21
3.51725E-03 1.98527E-21
3.62133E-03 1.87223E-21
3.72692E-03 1.76711E-21
3.83403E-03 1.66926E-21
3.94265E-03 1.57807E-21
4.05278E-03 1.49302E-21
4.16442E-03 1.41361E-21
4.27757E-03 1.33940E-21
4.39223E-03 1.27000E-21
4.50840E-03 1.20502E-21
4.62608E-03 1.14414E-21
4.74527E-03 1.08704E-21
4.86597E-03 1.03346E-21
4.98817E-03 9.83139E-22
5.11188E-03 9.35834E-22
5.23711E-03 8.91336E-22
5.36383E-03 8.49446E-22
5.49207E-03 8.09984E-22
5.62181E-03 7.72783E-22
5.75306E-03 7.37689E-22
5.88581E-03 7.04561E-22
6.02007E-03 6.73268E-22
6.15583E-03 6.43690E-22
6.29310E-03 6.15715E-22
6.43187E-03 5.89241E-22
6.57214E-03 5.64171E-22
6.71392E-03 5.40418E-22
6.85720E-03 5.17899E-22
7.00198E-03 4.96538E-22
7.14827E-03 4.76265E-22
7.29605E-03 4.57014E-22
7.44534E-03 4.38724E-22
7.59612E-03 4.21338E-22
7.97965E-03 3.81487E-22
8.37255E-03 3.46228E-22
8.77480E-03 3.14941E-22
9.18641E-03 2.87101E-22
9.60736E-03 2.62264E-22
1.00376E-02 2.40049E-22
1.04773E-02 2.20131E-22
1.09262E-02 2.02231E-22
1.13844E-02 1.86110E-22
1.18520E-02 1.71559E-22
1.23288E-02 1.58399E-22
1.28150E-02 1.46473E-22
1.33104E-02 1.35646E-22
1.38150E-02 1.25798E-22
1.43290E-02 1.16825E-22
1.48521E-02 1.08635E-22
1.53845E-02 1.01148E-22
1.59262E-02 9.42934E-23
1.64770E-02 8.80075E-23
1.70371E-02 8.22351E-23
1.76063E-02 7.69265E-23
1.81848E-02 7.20380E-23
1.87724E-02 6.75303E-23
1.93692E-02 6.33684E-23
1.99751E-02 5.95210E-23
2.05901E-02 5.59600E-23
2.12143E-02 5.26604E-23
2.18476E-02 4.95994E-23
2.24900E-02 4.67568E-23
2.31415E-02 4.41140E-23
2.38021E-02 4.16545E-23
2.44717E-02 3.93633E-23
2.51504E-02 3.72268E-23
2.58382E-02 3.52326E-23
2.65349E-02 3.33696E-23
2.72407E-02 3.16275E-23
2.79555E-02 2.99971E-23
2.86793E-02 2.84699E-23
2.94120E-02 2.70382E-23
3.01537E-02 2.56948E-23
3.09043E-02 2.44335E-23
3.16639E-02 2.32482E-23
3.24324E-02 2.21335E-23
3.32098E-02 2.10845E-23
3.39961E-02 2.00965E-23
3.47912E-02 1.91654E-23
3.55952E-02 1.82874E-23
3.64081E-02 1.74587E-23
3.72297E-02 1.66761E-23
3.80602E-02 1.59367E-23
3.88995E-02 1.52375E-23
3.97476E-02 1.45760E-23
4.06044E-02 1.39498E-23
4.14700E-02 1.33567E-23
4.23443E-02 1.27945E-23
4.32273E-02 1.22614E-23
4.41190E-02 1.17556E-23
4.50194E-02 1.12755E-23
4.59284E-02 1.08194E-23
4.68461E-02 1.03860E-23
4.87074E-02 9.58193E-24
5.06030E-02 8.85364E-24
5.25328E-02 8.19276E-24
5.44967E-02 7.59195E-24
5.64946E-02 7.04479E-24
5.85262E-02 6.54566E-24
6.05914E-02 6.08961E-24
6.26901E-02 5.67225E-24
6.48222E-02 5.28974E-24
6.69873E-02 4.93865E-24
6.91854E-02 4.61595E-24
7.14163E-02 4.31893E-24
7.36799E-02 4.04519E-24
7.59760E-02 3.79259E-24
7.83043E-02 3.55919E-24
8.06647E-02 3.34329E-24
8.30571E-02 3.14334E-24
8.54812E-02 2.95796E-24
8.79369E-02 2.78588E-24
9.04240E-02 2.62600E-24
9.29422E-02 2.47728E-24
9.54915E-02 2.33882E-24
9.80716E-02 2.20977E-24
1.00682E-01 2.08939E-24
1.03323E-01 1.97699E-24
1.05995E-01 1.87194E-24
1.08696E-01 1.77369E-24
1.11427E-01 1.68170E-24
1.14188E-01 1.59552E-24
1.16978E-01 1.51470E-24
1.19797E-01 1.43886E-24
1.22645E-01 1.36763E-24
1.25522E-01 1.30069E-24
1.28428E-01 1.23772E-24
1.31361E-01 1.17846E-24
1.34323E-01 1.12264E-24
1.37313E-01 1.07003E-24
1.40330E-01 1.02041E-24
1.43375E-01 9.73578E-25
1.46447E-01 9.29354E-25
1.49545E-01 8.87565E-25
1.52671E-01 8.48052E-25
1.55823E-01 8.10670E-25
1.59001E-01 7.75283E-25
1.62205E-01 7.41765E-25
1.65435E-01 7.10001E-25
1.68690E-01 6.79882E-25
1.71970E-01 6.51307E-25
1.75276E-01 6.24184E-25
1.78606E-01 5.98425E-25
1.81961E-01 5.73950E-25
1.85340E-01 5.50683E-25
1.88743E-01 5.28554E-25
1.92169E-01 5.07497E-25
1.95619E-01 4.87451E-25
1.99092E-01 4.68359E-25
2.02589E-01 4.50168E-25
2.06107E-01 4.32827E-25
2.09649E-01 4.16289E-25
2.13212E-01 4.00511E-25
2.16797E-01 3.85452E-25
2.20404E-01 3.71073E-25
2.24032E-01 3.57337E-25
2.27680E-01 3.44212E-25
2.31350E-01 3.31665E-25
2.35040E-01 3.19665E-25
2.38751E-01 3.08186E-25
2.42481E-01 2.97200E-25
2.46231E-01 2.86682E-25
2.50000E-01 2.76609E-25
2.53788E-01 2.66959E-25
2.57595E-01 2.57711E-25
2.61421E-01 2.48845E-25
2.65264E-01 2.40342E-25
2.69126E-01 2.32186E-25
2.73005E-01 2.24359E-25
2.76901E-01 2.16846E-25
2.80814E-01 2.09632E-25
2.84744E-01 2.02703E-25
2.88691E-01 1.96045E-25
2.92653E-01 1.89647E-25
2.96632E-01 1.83497E-25
3.00625E-01 1.77582E-25
3.04634E-01 1.71893E-25
3.08658E-01 1.66420E-25
3.12697E-01 1.61152E-25
3.16749E-01 1.56081E-25
3.20816E-01 1.51198E-25
3.24896E-01 1.46495E-25
3.28990E-01 1.41964E-25
3.33097E-01 1.37598E-25
3.37216E-01 1.33389E-25
3.41348E-01 1.29332E-25
3.45492E-01 1.25419E-25
3.49647E-01 1.21645E-25
3.53814E-01 1.18003E-25
3.57992E-01 1.14489E-25
3.62181E-01 1.11097E-25
3.66381E-01 1.07823E-25
3.70590E-01 1.04660E-25
3.74810E-01 1.01606E-25
3.79039E-01 9.86551E-26
3.83277E-01 9.58037E-26
3.87524E-01 9.30478E-26
3.91780E-01 9.03837E-26
3.96044E-01 8.78079E-26
4.00316E-01 8.53168E-26
4.04596E-01 8.29073E-26
4.08882E-01 8.05761E-26
4.13176E-01 7.83204E-26
4.17476E-01 7.61372E-26
4.21783E-01 7.40239E-26
4.26095E-01 7.19778E-26
4.30413E-01 6.99965E-26
4.34737E-01 6.80774E-26
4.39065E-01 6.62184E-26
4.43398E-01 6.44173E-26
4.47736E-01 6.26719E-26
4.52077E-01 6.09802E-26
4.56422E-01 5.93403E-26
4.60770E-01 5.77504E-26
4.65122E-01 5.62087E-26
4.69476E-01 5.47134E-26
4.73832E-01 5.32630E-26
4.78190E-01 5.18558E-26
4.82550E-01 5.04905E-26
4.86912E-01 4.91654E-26
4.91274E-01 4.78793E-26
4.95637E-01 4.66308E-26
5.00000E-01 4.54186E-26
5.04363E-01 4.42416E-26
5.08726E-01 4.30984E-26
5.13088E-01 4.19881E-26
5.17450E-01 4.09094E-26
5.21810E-01 3.98614E-26
5.26168E-01 3.88429E-26
5.30524E-01 3.78532E-26
5.34878E-01 3.68912E-26
5.39230E-01 3.59560E-26
5.43578E-01 3.50467E-26
5.47923E-01 3.41626E-26
5.52264E-01 3.33028E-26
5.56602E-01 3.24665E-26
5.60935E-01 3.16531E-26
5.65263E-01 3.08617E-26
5.69587E-01 3.00917E-26
5.73905E-01 2.93424E-26
5.78217E-01 2.86132E-26
5.82524E-01 2.79034E-26
5.86824E-01 2.72125E-26
5.91118E-01 2.65399E-26
5.95404E-01 2.58850E-26
5.99684E-01 2.52473E-26
6.03956E-01 2.46262E-26
6.08220E-01 2.40214E-26
6.12476E-01 2.34322E-26
6.16723E-01 2.28582E-26
6.20961E-01 2.22989E-26
6.25190E-01 2.17540E-26
6.29410E-01 2.12230E-26
6.33619E-01 2.07055E-26
6.37819E-01 2.02011E-26
6.42008E-01 1.97095E-26
6.46186E-01 1.92302E-26
6.50353E-01 1.87629E-26
6.54508E-01 1.83072E-26
6.58652E-01 1.78629E-26
6.62784E-01 1.74296E-26
6.66903E-01 1.70071E-26
6.71010E-01 1.65949E-26
6.75104E-01 1.61928E-26
6.79184E-01 1.58005E-26
6.83251E-01 1.54178E-26
6.87303E-01 1.50444E-26
6.91342E-01 1.46800E-26
6.95366E-01 1.43244E-26
6.99375E-01 1.39774E-26
7.03368E-01 1.36387E-26
7.07347E-01 1.33080E-26
7.11309E-01 1.29853E-26
7.15256E-01 1.26702E-26
7.19186E-01 1.23626E-26
7.23099E-01 1.20622E-26
7.26995E-01 1.17690E-26
7.30874E-01 1.14826E-26
7.34736E-01 1.12029E-26
7.38579E-01 1.09297E-26
7.42405E-01 1.06629E-26
7.46212E-01 1.04023E-26
7.50000E-01 1.01477E-26
7.53769E-01 9.89906E-27
7.57519E-01 9.65612E-27
7.61249E-01 9.41876E-27
7.64960E-01 9.18685E-27
7.68650E-01 8.96026E-27
7.72320E-01 8.73883E-27
7.75968E-01 8.52246E-27
7.79596E-01 8.31101E-27
7.83203E-01 8.10436E-27
7.86788E-01 7.90239E-27
7.90351E-01 7.70500E-27
7.93893E-01 7.51206E-27
7.97411E-01 7.32346E-27
8.00908E-01 7.13911E-27
8.04381E-01 6.95891E-27
8.07831E-01 6.78274E-27
8.11257E-01 6.61053E-27
8.14660E-01 6.44216E-27
8.18039E-01 6.27756E-27
8.21394E-01 6.11663E-27
8.24724E-01 5.95929E-27
8.28030E-01 5.80545E-27
8.31310E-01 5.65504E-27
8.34565E-01 5.50797E-27
8.37795E-01 5.36417E-27
8.40999E-01 5.22356E-27
8.44177E-01 5.08608E-27
8.47329E-01 4.95164E-27
8.50455E-01 4.82019E-27
8.53553E-01 4.69165E-27
8.56625E-01 4.56596E-27
8.59670E-01 4.44306E-27
8.62687E-01 4.32288E-27
8.65677E-01 4.20538E-27
8.68639E-01 4.09048E-27
8.71572E-01 3.97813E-27
8.74478E-01 3.86828E-27
8.77355E-01 3.76088E-27
8.80203E-01 3.65587E-27
8.83022E-01 3.55320E-27
8.85812E-01 3.45283E-27
8.88573E-01 3.35470E-27
8.91304E-01 3.25877E-27
8.94005E-01 3.16499E-27
8.96677E-01 3.07333E-27
8.99318E-01 2.98373E-27
9.01928E-01 2.89615E-27
9.04508E-01 2.81056E-27
9.07058E-01 2.72692E-27
9.09576E-01 2.64519E-27
9.12063E-01 2.56532E-27
9.14519E-01 2.48729E-27
9.16943E-01 2.41106E-27
9.19335E-01 2.33659E-27
9.21696E-01 2.26385E-27
9.24024E-01 2.19281E-27
9.26320E-01 2.12344E-27
9.28584E-01 2.05570E-27
9.30815E-01 1.98957E-27
9.33013E-01 1.92502E-27
9.35178E-01 1.86202E-27
9.37310E-01 1.80054E-27
9.39409E-01 1.74055E-27
9.41474E-01 1.68204E-27
9.43505E-01 1.62496E-27
9.45503E-01 1.56931E-27
9.47467E-01 1.51505E-27
9.49397E-01 1.46217E-27
9.51293E-01 1.41063E-27
9.53154E-01 1.36043E-27
9.54981E-01 1.31153E-27
9.56773E-01 1.26391E-27
9.58530E-01 1.21757E-27
9.60252E-01 1.17247E-27
9.61940E-01 1.12860E-27
9.63592E-01 1.08594E-27
9.65209E-01 1.04447E-27
9.66790E-01 1.00418E-27
9.68336E-01 9.65042E-28
9.69846E-01 9.27051E-28
9.71321E-01 8.90188E-28
9.72759E-01 8.54437E-28
9.74162E-01 8.19783E-28
9.75528E-01 7.86214E-28
9.76858E-01 7.53714E-28
9.78152E-01 7.22271E-28
9.79410E-01 6.91873E-28
9.80631E-01 6.62506E-28
9.81815E-01 6.34160E-28
9.82963E-01 6.06823E-28
9.84074E-01 5.80484E-28
9.85148E-01 5.55132E-28
9.86185E-01 5.30757E-28
9.87185E-01 5.07351E-28
9.88148E-01 4.84902E-28
9.89074E-01 4.63404E-28
9.89962E-01 4.42846E-28
9.90814E-01 4.23221E-28
9.91627E-01 4.04522E-28
9.92404E-01 3.86740E-28
9.93143E-01 3.69870E-28
9.93844E-01 3.53903E-28
9.94508E-01 3.38835E-28
9.95134E-01 3.24658E-28
9.95722E-01 3.11369E-28
9.96273E-01 2.98960E-28
9.96786E-01 2.87429E-28
9.97261E-01 2.76769E-28
9.97698E-01 2.66977E-28
9.98097E-01 2.58050E-28
9.98459E-01 2.49983E-28
9.98782E-01 2.42773E-28
9.99067E-01 2.36419E-28
9.99315E-01 2.30916E-28
9.99524E-01 2.26264E-28
9.99695E-01 2.22460E-28
9.99829E-01 2.19503E-28
9.99924E-01 2.17392E-28
9.99981E-01 2.16125E-28
1.00000E+00 2.15703E-28
