 #
 # Subroutine ELSEPA. Elastic scattering of electrons and positrons
 #                    by neutral atoms and positive ions
 #
 # Projectile: positron
 # Kinetic energy = 3.50000E+08 eV = 1.28623E+07 a.u.
 #
 # WARNING: High-energy factorization with free-atom DF screening.
 #          Absorption, polarization and exchange corrections are
 #          switched off.
 #          Phase shifts are calculated for the bare nucleus.
 #          Scattering amplitudes are not evaluated.
 #
 # Element: Mg,  Z =  12,  atomic weight = 2.43050E+01 g/mol
 #
 # Nuclear model: Fermi distribution
 #                Average radius = 3.09943E-13 cm
 #                Skin thickness = 5.46000E-14 cm
 #
 # Number of electrons = 12
 #
 # Total elastic cross section = 6.08839E-19 cm**2 = 2.17420E-02 a0**2
 # 1st transport cross section = 2.54951E-27 cm**2 = 9.10447E-11 a0**2
 # 2nd transport cross section = 7.63810E-27 cm**2 = 2.72761E-10 a0**2
 #
 #
 # Differential cross section:                       MU=(1-COS(THETA))/2
 #
 #  THETA        MU          DCS          DCS        Sherman      error
 #  (deg)                 (cm**2/sr)   (a0**2/sr)    function
 #----------------------------------------------------------------------
0.00000E+00 1.27405E-09
7.61557E-13 1.21200E-09
1.18994E-12 1.17898E-09
1.71346E-12 1.14032E-09
2.33225E-12 1.09689E-09
3.04617E-12 1.04965E-09
3.85530E-12 9.99535E-10
4.75964E-12 9.47468E-10
5.75917E-12 8.94332E-10
6.85391E-12 8.40917E-10
8.04379E-12 7.87949E-10
9.32893E-12 7.36016E-10
1.07092E-11 6.85642E-10
1.21847E-11 6.37208E-10
1.37554E-11 5.90989E-10
1.54213E-11 5.47268E-10
1.71823E-11 5.06157E-10
1.90386E-11 4.67676E-10
2.09900E-11 4.31948E-10
2.30367E-11 3.98801E-10
2.51785E-11 3.68082E-10
2.74156E-11 3.39683E-10
2.97478E-11 3.13792E-10
3.21752E-11 2.90084E-10
3.46979E-11 2.68254E-10
3.73157E-11 2.48174E-10
4.00286E-11 2.30016E-10
4.28368E-11 2.13508E-10
4.57402E-11 1.98332E-10
4.87388E-11 1.84379E-10
5.18325E-11 1.71767E-10
5.50215E-11 1.60332E-10
5.83057E-11 1.49803E-10
6.16850E-11 1.40104E-10
6.51595E-11 1.31296E-10
6.87293E-11 1.23299E-10
7.23943E-11 1.15913E-10
7.61544E-11 1.09087E-10
1.18991E-10 6.43583E-11
1.71347E-10 4.22010E-11
2.33223E-10 2.95313E-11
3.04617E-10 2.14729E-11
3.85531E-10 1.59858E-11
4.75965E-10 1.20858E-11
5.75917E-10 9.24993E-12
6.85389E-10 7.14739E-12
8.04380E-10 5.57746E-12
9.32891E-10 4.38925E-12
1.07092E-09 3.48587E-12
1.21847E-09 2.79131E-12
1.37554E-09 2.25056E-12
1.54213E-09 1.83547E-12
1.71823E-09 1.50595E-12
1.90386E-09 1.24625E-12
2.09900E-09 1.03935E-12
2.30367E-09 8.72238E-13
2.51785E-09 7.37460E-13
2.74156E-09 6.27349E-13
2.97478E-09 5.36970E-13
3.21752E-09 4.62368E-13
3.46978E-09 4.00191E-13
3.73156E-09 3.48221E-13
4.00286E-09 3.04471E-13
4.28368E-09 2.67422E-13
4.57402E-09 2.35911E-13
4.87388E-09 2.08943E-13
5.18326E-09 1.85770E-13
5.50215E-09 1.65767E-13
5.83057E-09 1.48408E-13
6.16850E-09 1.33299E-13
6.51596E-09 1.20087E-13
6.87293E-09 1.08491E-13
7.23942E-09 9.82848E-14
7.61544E-09 8.92577E-14
1.18991E-08 3.82103E-14
1.71347E-08 1.90491E-14
2.33223E-08 1.05274E-14
3.04617E-08 6.27314E-15
3.85531E-08 3.96133E-15
4.75965E-08 2.61996E-15
5.75917E-08 1.79970E-15
6.85389E-08 1.27593E-15
8.04380E-08 9.29141E-16
9.32891E-08 6.92324E-16
1.07092E-07 5.26240E-16
1.21847E-07 4.07028E-16
1.37554E-07 3.19695E-16
1.54213E-07 2.54551E-16
1.71823E-07 2.05171E-16
1.90386E-07 1.67193E-16
2.09900E-07 1.37604E-16
2.30367E-07 1.14276E-16
2.51785E-07 9.56857E-17
2.74156E-07 8.07246E-17
2.97478E-07 6.85752E-17
3.21752E-07 5.86270E-17
3.46978E-07 5.04185E-17
3.73156E-07 4.35971E-17
4.00286E-07 3.78910E-17
4.28368E-07 3.30884E-17
4.57402E-07 2.90230E-17
4.87388E-07 2.55631E-17
5.18325E-07 2.26036E-17
5.50215E-07 2.00602E-17
5.83057E-07 1.78646E-17
6.16850E-07 1.59613E-17
6.51596E-07 1.43049E-17
6.87293E-07 1.28578E-17
7.23942E-07 1.15891E-17
7.61543E-07 1.04731E-17
1.18991E-06 4.28971E-18
1.71347E-06 2.06864E-18
2.33223E-06 1.11654E-18
3.04617E-06 6.54463E-19
3.85531E-06 4.08556E-19
4.75964E-06 2.68039E-19
5.75916E-06 1.83064E-19
6.85388E-06 1.29248E-19
8.04378E-06 9.38321E-20
9.32888E-06 6.97571E-20
1.07092E-05 5.29311E-20
1.21846E-05 4.08857E-20
1.37553E-05 3.20797E-20
1.54212E-05 2.55218E-20
1.71822E-05 2.05571E-20
1.90385E-05 1.67444E-20
2.09899E-05 1.37750E-20
2.30365E-05 1.14350E-20
2.51783E-05 9.57127E-21
2.74153E-05 8.07218E-21
2.97475E-05 6.85551E-21
3.21749E-05 5.85979E-21
3.46974E-05 5.03855E-21
3.73152E-05 4.35629E-21
4.00281E-05 3.78568E-21
4.28362E-05 3.30546E-21
4.57395E-05 2.89896E-21
4.87380E-05 2.55304E-21
5.18317E-05 2.25719E-21
5.50205E-05 2.00297E-21
5.83045E-05 1.78357E-21
6.16838E-05 1.59342E-21
6.51582E-05 1.42795E-21
6.87277E-05 1.28342E-21
7.23925E-05 1.15671E-21
7.61524E-05 1.04255E-21
9.21439E-05 7.11484E-22
1.09658E-04 5.01932E-22
1.28695E-04 3.64078E-22
1.49255E-04 2.70414E-22
1.71338E-04 2.04988E-22
1.94942E-04 1.58173E-22
2.20070E-04 1.23970E-22
2.46720E-04 9.85123E-23
2.74892E-04 7.92523E-23
3.04586E-04 6.44651E-23
3.35803E-04 5.29613E-23
3.68542E-04 4.39049E-23
4.02802E-04 3.66969E-23
4.38585E-04 3.09037E-23
4.75889E-04 2.62049E-23
5.14715E-04 2.23619E-23
5.55063E-04 1.91947E-23
5.96931E-04 1.65658E-23
6.40321E-04 1.43693E-23
6.85233E-04 1.25226E-23
7.31665E-04 1.09613E-23
7.79618E-04 9.63410E-24
8.29092E-04 8.50021E-24
8.80086E-04 7.52695E-24
9.32601E-04 6.68782E-24
9.86636E-04 5.96132E-24
1.04219E-03 5.32984E-24
1.09927E-03 4.77891E-24
1.15786E-03 4.29656E-24
1.21797E-03 3.87283E-24
1.27961E-03 3.49942E-24
1.34276E-03 3.16934E-24
1.40743E-03 2.87675E-24
1.47362E-03 2.61666E-24
1.54133E-03 2.38486E-24
1.61056E-03 2.17777E-24
1.68131E-03 1.99229E-24
1.75357E-03 1.82581E-24
1.82735E-03 1.67604E-24
1.90265E-03 1.54103E-24
1.97947E-03 1.41908E-24
2.05780E-03 1.30871E-24
2.13765E-03 1.20863E-24
2.21902E-03 1.11773E-24
2.30190E-03 1.03502E-24
2.38630E-03 9.59643E-25
2.47222E-03 8.90835E-25
2.55965E-03 8.27928E-25
2.64859E-03 7.70331E-25
2.73905E-03 7.17521E-25
2.83103E-03 6.69033E-25
2.92452E-03 6.24454E-25
3.01952E-03 5.83417E-25
3.11604E-03 5.45592E-25
3.21407E-03 5.10687E-25
3.31362E-03 4.78437E-25
3.41468E-03 4.48609E-25
3.51725E-03 4.20989E-25
3.62133E-03 3.95387E-25
3.72692E-03 3.71631E-25
3.83403E-03 3.49566E-25
3.94265E-03 3.29052E-25
4.05278E-03 3.09961E-25
4.16442E-03 2.92180E-25
4.27757E-03 2.75602E-25
4.39223E-03 2.60134E-25
4.50840E-03 2.45689E-25
4.62608E-03 2.32188E-25
4.74527E-03 2.19560E-25
4.86597E-03 2.07738E-25
4.98817E-03 1.96664E-25
5.11188E-03 1.86282E-25
5.23711E-03 1.76543E-25
5.36383E-03 1.67399E-25
5.49207E-03 1.58809E-25
5.62181E-03 1.50734E-25
5.75306E-03 1.43137E-25
5.88581E-03 1.35988E-25
6.02007E-03 1.29253E-25
6.15583E-03 1.22907E-25
6.29310E-03 1.16923E-25
6.43187E-03 1.11277E-25
6.57214E-03 1.05947E-25
6.71392E-03 1.00913E-25
6.85720E-03 9.61550E-26
7.00198E-03 9.16566E-26
7.14827E-03 8.74011E-26
7.29605E-03 8.33734E-26
7.44534E-03 7.95594E-26
7.59612E-03 7.59461E-26
7.97965E-03 6.77134E-26
8.37255E-03 6.04932E-26
8.77480E-03 5.41443E-26
9.18641E-03 4.85477E-26
9.60736E-03 4.36023E-26
1.00376E-02 3.92227E-26
1.04773E-02 3.53358E-26
1.09262E-02 3.18792E-26
1.13844E-02 2.87992E-26
1.18520E-02 2.60499E-26
1.23288E-02 2.35913E-26
1.28150E-02 2.13892E-26
1.33104E-02 1.94135E-26
1.38150E-02 1.76384E-26
1.43290E-02 1.60411E-26
1.48521E-02 1.46020E-26
1.53845E-02 1.33035E-26
1.59262E-02 1.21305E-26
1.64770E-02 1.10696E-26
1.70371E-02 1.01090E-26
1.76063E-02 9.23829E-27
1.81848E-02 8.44818E-27
1.87724E-02 7.73051E-27
1.93692E-02 7.07803E-27
1.99751E-02 6.48428E-27
2.05901E-02 5.94350E-27
2.12143E-02 5.45057E-27
2.18476E-02 5.00088E-27
2.24900E-02 4.59035E-27
2.31415E-02 4.21528E-27
2.38021E-02 3.87239E-27
2.44717E-02 3.55871E-27
2.51504E-02 3.27157E-27
2.58382E-02 3.00858E-27
2.65349E-02 2.76756E-27
2.72407E-02 2.54656E-27
2.79555E-02 2.34381E-27
2.86793E-02 2.15772E-27
2.94120E-02 1.98685E-27
3.01537E-02 1.82987E-27
3.09043E-02 1.68561E-27
3.16639E-02 1.55297E-27
3.24324E-02 1.43098E-27
3.32098E-02 1.31874E-27
3.39961E-02 1.21545E-27
3.47912E-02 1.12036E-27
3.55952E-02 1.03279E-27
3.64081E-02 9.52123E-28
3.72297E-02 8.77805E-28
3.80602E-02 8.09316E-28
3.88995E-02 7.46187E-28
3.97476E-02 6.87987E-28
4.06044E-02 6.34321E-28
4.14700E-02 5.84828E-28
4.23443E-02 5.39177E-28
4.32273E-02 4.97065E-28
4.41190E-02 4.58213E-28
4.50194E-02 4.22365E-28
4.59284E-02 3.89287E-28
4.68461E-02 3.58761E-28
4.87074E-02 3.04592E-28
5.06030E-02 2.58453E-28
5.25328E-02 2.19152E-28
5.44967E-02 1.85680E-28
5.64946E-02 1.57179E-28
5.85262E-02 1.32917E-28
6.05914E-02 1.12274E-28
6.26901E-02 9.47183E-29
6.48222E-02 7.97985E-29
6.69873E-02 6.71282E-29
6.91854E-02 5.63776E-29
7.14163E-02 4.72649E-29
7.36799E-02 3.95491E-29
7.59760E-02 3.30241E-29
7.83043E-02 2.75136E-29
8.06647E-02 2.28668E-29
8.30571E-02 1.89549E-29
8.54812E-02 1.56676E-29
8.79369E-02 1.29105E-29
9.04240E-02 1.06032E-29
9.29422E-02 8.67676E-30
9.54915E-02 7.07251E-30
9.80716E-02 5.74031E-30
1.00682E-01 4.63744E-30
1.03323E-01 3.72750E-30
1.05995E-01 2.97955E-30
1.08696E-01 2.36729E-30
1.11427E-01 1.86839E-30
1.14188E-01 1.46394E-30
1.16978E-01 1.13795E-30
1.19797E-01 8.76904E-31
1.22645E-01 6.69406E-31
1.25522E-01 5.05882E-31
1.28428E-01 3.78297E-31
1.31361E-01 2.79926E-31
1.34323E-01 2.05160E-31
1.37313E-01 1.49332E-31
1.40330E-01 1.08577E-31
1.43375E-01 7.97040E-32
1.46447E-01 6.00909E-32
1.49545E-01 4.75952E-32
1.52671E-01 4.04755E-32
1.55823E-01 3.73262E-32
1.59001E-01 3.70214E-32
1.62205E-01 3.86677E-32
1.65435E-01 4.15638E-32
1.68690E-01 4.51667E-32
1.71970E-01 4.90628E-32
1.75276E-01 5.29442E-32
1.78606E-01 5.65878E-32
1.81961E-01 5.98394E-32
1.85340E-01 6.25989E-32
1.88743E-01 6.48086E-32
1.92169E-01 6.64439E-32
1.95619E-01 6.75055E-32
1.99092E-01 6.80122E-32
2.02589E-01 6.79966E-32
2.06107E-01 6.75001E-32
2.09649E-01 6.65698E-32
2.13212E-01 6.52560E-32
2.16797E-01 6.36101E-32
2.20404E-01 6.16827E-32
2.24032E-01 5.95228E-32
2.27680E-01 5.71769E-32
2.31350E-01 5.46881E-32
2.35040E-01 5.20963E-32
2.38751E-01 4.94372E-32
2.42481E-01 4.67433E-32
2.46231E-01 4.40428E-32
2.50000E-01 4.13605E-32
2.53788E-01 3.87177E-32
2.57595E-01 3.61325E-32
2.61421E-01 3.36197E-32
2.65264E-01 3.11916E-32
2.69126E-01 2.88577E-32
2.73005E-01 2.66254E-32
2.76901E-01 2.44999E-32
2.80814E-01 2.24846E-32
2.84744E-01 2.05815E-32
2.88691E-01 1.87911E-32
2.92653E-01 1.71127E-32
2.96632E-01 1.55447E-32
3.00625E-01 1.40845E-32
3.04634E-01 1.27291E-32
3.08658E-01 1.14748E-32
3.12697E-01 1.03175E-32
3.16749E-01 9.25277E-33
3.20816E-01 8.27600E-33
3.24896E-01 7.38243E-33
3.28990E-01 6.56726E-33
3.33097E-01 5.82566E-33
3.37216E-01 5.15285E-33
3.41348E-01 4.54412E-33
3.45492E-01 3.99491E-33
3.49647E-01 3.50078E-33
3.53814E-01 3.05750E-33
3.57992E-01 2.66097E-33
3.62181E-01 2.30733E-33
3.66381E-01 1.99291E-33
3.70590E-01 1.71424E-33
3.74810E-01 1.46809E-33
3.79039E-01 1.25141E-33
3.83277E-01 1.06136E-33
3.87524E-01 8.95322E-34
3.91780E-01 7.50849E-34
3.96044E-01 6.25692E-34
4.00316E-01 5.17786E-34
4.04596E-01 4.25231E-34
4.08882E-01 3.46296E-34
4.13176E-01 2.79398E-34
4.17476E-01 2.23101E-34
4.21783E-01 1.76102E-34
4.26095E-01 1.37228E-34
4.30413E-01 1.05417E-34
4.34737E-01 7.97204E-35
4.39065E-01 5.92867E-35
4.43398E-01 4.33574E-35
4.47736E-01 3.12578E-35
4.52077E-01 2.23908E-35
4.56422E-01 1.62291E-35
4.60770E-01 1.23091E-35
4.65122E-01 1.02254E-35
4.69476E-01 9.62473E-36
4.73832E-01 1.02006E-35
4.78190E-01 1.16883E-35
4.82550E-01 1.38621E-35
4.86912E-01 1.65289E-35
4.91274E-01 1.95253E-35
4.95637E-01 2.27147E-35
5.00000E-01 2.59845E-35
5.04363E-01 2.92420E-35
5.08726E-01 3.24113E-35
5.13088E-01 3.54337E-35
5.17450E-01 3.82640E-35
5.21810E-01 4.08665E-35
5.26168E-01 4.32190E-35
5.30524E-01 4.53032E-35
5.34878E-01 4.71122E-35
5.39230E-01 4.86418E-35
5.43578E-01 4.98957E-35
5.47923E-01 5.08790E-35
5.52264E-01 5.16006E-35
5.56602E-01 5.20725E-35
5.60935E-01 5.23091E-35
5.65263E-01 5.23241E-35
5.69587E-01 5.21338E-35
5.73905E-01 5.17560E-35
5.78217E-01 5.12046E-35
5.82524E-01 5.04987E-35
5.86824E-01 4.96534E-35
5.91118E-01 4.86854E-35
5.95404E-01 4.76094E-35
5.99684E-01 4.64413E-35
6.03956E-01 4.51950E-35
6.08220E-01 4.38825E-35
6.12476E-01 4.25172E-35
6.16723E-01 4.11111E-35
6.20961E-01 3.96740E-35
6.25190E-01 3.82164E-35
6.29410E-01 3.67465E-35
6.33619E-01 3.52731E-35
6.37819E-01 3.38031E-35
6.42008E-01 3.23433E-35
6.46186E-01 3.09000E-35
6.50353E-01 2.94773E-35
6.54508E-01 2.80806E-35
6.58652E-01 2.67130E-35
6.62784E-01 2.53784E-35
6.66903E-01 2.40796E-35
6.71010E-01 2.28183E-35
6.75104E-01 2.15971E-35
6.79184E-01 2.04166E-35
6.83251E-01 1.92784E-35
6.87303E-01 1.81833E-35
6.91342E-01 1.71312E-35
6.95366E-01 1.61225E-35
6.99375E-01 1.51571E-35
7.03368E-01 1.42345E-35
7.07347E-01 1.33544E-35
7.11309E-01 1.25161E-35
7.15256E-01 1.17191E-35
7.19186E-01 1.09619E-35
7.23099E-01 1.02438E-35
7.26995E-01 9.56355E-36
7.30874E-01 8.92016E-36
7.34736E-01 8.31227E-36
7.38579E-01 7.73857E-36
7.42405E-01 7.19785E-36
7.46212E-01 6.68877E-36
7.50000E-01 6.20998E-36
7.53769E-01 5.76019E-36
7.57519E-01 5.33843E-36
7.61249E-01 4.94286E-36
7.64960E-01 4.57255E-36
7.68650E-01 4.22591E-36
7.72320E-01 3.90220E-36
7.75968E-01 3.59998E-36
7.79596E-01 3.31813E-36
7.83203E-01 3.05548E-36
7.86788E-01 2.81092E-36
7.90351E-01 2.58357E-36
7.93893E-01 2.37244E-36
7.97411E-01 2.17630E-36
8.00908E-01 1.99445E-36
8.04381E-01 1.82606E-36
8.07831E-01 1.67021E-36
8.11257E-01 1.52611E-36
8.14660E-01 1.39292E-36
8.18039E-01 1.27006E-36
8.21394E-01 1.15678E-36
8.24724E-01 1.05242E-36
8.28030E-01 9.56453E-37
8.31310E-01 8.68148E-37
8.34565E-01 7.87143E-37
8.37795E-01 7.12751E-37
8.40999E-01 6.44643E-37
8.44177E-01 5.82253E-37
8.47329E-01 5.25220E-37
8.50455E-01 4.73120E-37
8.53553E-01 4.25549E-37
8.56625E-01 3.82253E-37
8.59670E-01 3.42795E-37
8.62687E-01 3.06948E-37
8.65677E-01 2.74356E-37
8.68639E-01 2.44853E-37
8.71572E-01 2.18100E-37
8.74478E-01 1.93921E-37
8.77355E-01 1.72048E-37
8.80203E-01 1.52352E-37
8.83022E-01 1.34626E-37
8.85812E-01 1.18659E-37
8.88573E-01 1.04359E-37
8.91304E-01 9.15392E-38
8.94005E-01 8.00650E-38
8.96677E-01 6.98355E-38
8.99318E-01 6.07226E-38
9.01928E-01 5.26329E-38
9.04508E-01 4.54565E-38
9.07058E-01 3.91135E-38
9.09576E-01 3.35188E-38
9.12063E-01 2.86021E-38
9.14519E-01 2.42968E-38
9.16943E-01 2.05270E-38
9.19335E-01 1.72531E-38
9.21696E-01 1.44116E-38
9.24024E-01 1.19635E-38
9.26320E-01 9.86059E-39
9.28584E-01 8.06701E-39
9.30815E-01 6.54342E-39
9.33013E-01 5.26085E-39
9.35178E-01 4.18880E-39
9.37310E-01 3.30205E-39
9.39409E-01 2.57574E-39
9.41474E-01 1.98978E-39
9.43505E-01 1.52549E-39
9.45503E-01 1.16329E-39
9.47467E-01 8.90525E-40
9.49397E-01 6.93061E-40
9.51293E-01 5.56076E-40
9.53154E-01 4.73835E-40
9.54981E-01 4.30306E-40
9.56773E-01 4.26034E-40
9.58530E-01 4.45141E-40
9.60252E-01 4.88489E-40
9.61940E-01 5.46328E-40
9.63592E-01 6.13462E-40
9.65209E-01 6.89549E-40
9.66790E-01 7.70279E-40
9.68336E-01 8.46093E-40
9.69846E-01 9.22248E-40
9.71321E-01 9.95477E-40
9.72759E-01 1.06202E-39
9.74162E-01 1.11969E-39
9.75528E-01 1.17746E-39
9.76858E-01 1.21746E-39
9.78152E-01 1.25542E-39
9.79410E-01 1.27626E-39
9.80631E-01 1.29433E-39
9.81815E-01 1.30097E-39
9.82963E-01 1.29677E-39
9.84074E-01 1.28873E-39
9.85148E-01 1.26856E-39
9.86185E-01 1.24413E-39
9.87185E-01 1.21330E-39
9.88148E-01 1.17678E-39
9.89074E-01 1.12681E-39
9.89962E-01 1.08051E-39
9.90814E-01 1.01812E-39
9.91627E-01 9.59608E-40
9.92404E-01 9.01677E-40
9.93143E-01 8.35163E-40
9.93844E-01 7.71545E-40
9.94508E-01 7.08448E-40
9.95134E-01 6.38853E-40
9.95722E-01 5.72986E-40
9.96273E-01 5.08935E-40
9.96786E-01 4.47484E-40
9.97261E-01 3.86600E-40
9.97698E-01 3.32239E-40
9.98097E-01 2.72327E-40
9.98459E-01 2.27680E-40
9.98782E-01 1.81831E-40
9.99067E-01 1.40673E-40
9.99315E-01 1.06025E-40
9.99524E-01 7.43521E-41
9.99695E-01 4.94111E-41
9.99829E-01 2.82704E-41
9.99924E-01 1.11264E-41
9.99981E-01 4.26868E-42
1.00000E+00 7.03469E-43
