 #
 # Subroutine ELSEPA. Elastic scattering of electrons and positrons
 #                    by neutral atoms and positive ions
 #
 # Projectile: positron
 # Kinetic energy = 3.50000E+07 eV = 1.28623E+06 a.u.
 #
 # WARNING: High-energy factorization with free-atom DF screening.
 #          Absorption, polarization and exchange corrections are
 #          switched off.
 #          Phase shifts are calculated for the bare nucleus.
 #          Scattering amplitudes are not evaluated.
 #
 # Element: Mg,  Z =  12,  atomic weight = 2.43050E+01 g/mol
 #
 # Nuclear model: Fermi distribution
 #                Average radius = 3.09943E-13 cm
 #                Skin thickness = 5.46000E-14 cm
 #
 # Number of electrons = 12
 #
 # Total elastic cross section = 6.09217E-19 cm**2 = 2.17556E-02 a0**2
 # 1st transport cross section = 2.24339E-25 cm**2 = 8.01129E-09 a0**2
 # 2nd transport cross section = 6.54679E-25 cm**2 = 2.33790E-08 a0**2
 #
 #
 # Differential cross section:                       MU=(1-COS(THETA))/2
 #
 #  THETA        MU          DCS          DCS        Sherman      error
 #  (deg)                 (cm**2/sr)   (a0**2/sr)    function
 #----------------------------------------------------------------------
0.00000E+00 1.30770E-11
7.61557E-13 1.30701E-11
1.18994E-12 1.30663E-11
1.71346E-12 1.30617E-11
2.33225E-12 1.30562E-11
3.04617E-12 1.30498E-11
3.85530E-12 1.30427E-11
4.75964E-12 1.30346E-11
5.75917E-12 1.30258E-11
6.85391E-12 1.30161E-11
8.04379E-12 1.30056E-11
9.32893E-12 1.29943E-11
1.07092E-11 1.29821E-11
1.21847E-11 1.29692E-11
1.37554E-11 1.29554E-11
1.54213E-11 1.29408E-11
1.71823E-11 1.29254E-11
1.90386E-11 1.29091E-11
2.09900E-11 1.28921E-11
2.30367E-11 1.28743E-11
2.51785E-11 1.28557E-11
2.74156E-11 1.28363E-11
2.97478E-11 1.28162E-11
3.21752E-11 1.27952E-11
3.46979E-11 1.27735E-11
3.73157E-11 1.27510E-11
4.00286E-11 1.27278E-11
4.28368E-11 1.27038E-11
4.57402E-11 1.26791E-11
4.87388E-11 1.26536E-11
5.18325E-11 1.26274E-11
5.50215E-11 1.26005E-11
5.83057E-11 1.25728E-11
6.16850E-11 1.25445E-11
6.51595E-11 1.25154E-11
6.87293E-11 1.24856E-11
7.23943E-11 1.24552E-11
7.61544E-11 1.24241E-11
1.18991E-10 1.20770E-11
1.71347E-10 1.16712E-11
2.33223E-10 1.12159E-11
3.04617E-10 1.07214E-11
3.85531E-10 1.01975E-11
4.75965E-10 9.65437E-12
5.75917E-10 9.10095E-12
6.85389E-10 8.54589E-12
8.04380E-10 7.99641E-12
9.32891E-10 7.45901E-12
1.07092E-09 6.93870E-12
1.21847E-09 6.43964E-12
1.37554E-09 5.96436E-12
1.54213E-09 5.51590E-12
1.71823E-09 5.09502E-12
1.90386E-09 4.70183E-12
2.09900E-09 4.33799E-12
2.30367E-09 4.00050E-12
2.51785E-09 3.68829E-12
2.74156E-09 3.40012E-12
2.97478E-09 3.13938E-12
3.21752E-09 2.89950E-12
3.46978E-09 2.67894E-12
3.73156E-09 2.47635E-12
4.00286E-09 2.29524E-12
4.28368E-09 2.12905E-12
4.57402E-09 1.97643E-12
4.87388E-09 1.83627E-12
5.18326E-09 1.71140E-12
5.50215E-09 1.59671E-12
5.83057E-09 1.49120E-12
6.16850E-09 1.39409E-12
6.51596E-09 1.30726E-12
6.87293E-09 1.22729E-12
7.23942E-09 1.15347E-12
7.61544E-09 1.08528E-12
1.18991E-08 6.40937E-13
1.71347E-08 4.20527E-13
2.33223E-08 2.94008E-13
3.04617E-08 2.13623E-13
3.85531E-08 1.58635E-13
4.75965E-08 1.19775E-13
5.75917E-08 9.14195E-14
6.85389E-08 7.05462E-14
8.04380E-08 5.49239E-14
9.32891E-08 4.31753E-14
1.07092E-07 3.42298E-14
1.21847E-07 2.73859E-14
1.37554E-07 2.20591E-14
1.54213E-07 1.79651E-14
1.71823E-07 1.47437E-14
1.90386E-07 1.21886E-14
2.09900E-07 1.01612E-14
2.30367E-07 8.52605E-15
2.51785E-07 7.20525E-15
2.74156E-07 6.13015E-15
2.97478E-07 5.24545E-15
3.21752E-07 4.51589E-15
3.46978E-07 3.90899E-15
3.73156E-07 3.40103E-15
4.00286E-07 2.97382E-15
4.28368E-07 2.61198E-15
4.57402E-07 2.30415E-15
4.87388E-07 2.04096E-15
5.18325E-07 1.81458E-15
5.50215E-07 1.61920E-15
5.83057E-07 1.44976E-15
6.16850E-07 1.30214E-15
6.51596E-07 1.17315E-15
6.87293E-07 1.05989E-15
7.23942E-07 9.60144E-16
7.61543E-07 8.72044E-16
1.18991E-06 3.73253E-16
1.71347E-06 1.86000E-16
2.33223E-06 1.02749E-16
3.04617E-06 6.12026E-17
3.85531E-06 3.86339E-17
4.75964E-06 2.55444E-17
5.75916E-06 1.75427E-17
6.85388E-06 1.24349E-17
8.04378E-06 9.05373E-18
9.32888E-06 6.74524E-18
1.07092E-05 5.12651E-18
1.21846E-05 3.96476E-18
1.37553E-05 3.11378E-18
1.54212E-05 2.47910E-18
1.71822E-05 1.99801E-18
1.90385E-05 1.62821E-18
2.09899E-05 1.33997E-18
2.30365E-05 1.11269E-18
2.51783E-05 9.31575E-19
2.74153E-05 7.85833E-19
2.97475E-05 6.67506E-19
3.21749E-05 5.70639E-19
3.46974E-05 4.90725E-19
3.73152E-05 4.24322E-19
4.00281E-05 3.68774E-19
4.28362E-05 3.22019E-19
4.57395E-05 2.82438E-19
4.87380E-05 2.48750E-19
5.18317E-05 2.19935E-19
5.50205E-05 1.95174E-19
5.83045E-05 1.73802E-19
6.16838E-05 1.55278E-19
6.51582E-05 1.39157E-19
6.87277E-05 1.25075E-19
7.23925E-05 1.12729E-19
7.61524E-05 1.01867E-19
9.21439E-05 6.95590E-20
1.09658E-04 4.91031E-20
1.28695E-04 3.56417E-20
1.49255E-04 2.64923E-20
1.71338E-04 2.00988E-20
1.94942E-04 1.55220E-20
2.20070E-04 1.21769E-20
2.46720E-04 9.68582E-21
2.74892E-04 7.80029E-21
3.04586E-04 6.35189E-21
3.35803E-04 5.22446E-21
3.68542E-04 4.33637E-21
4.02802E-04 3.62911E-21
4.38585E-04 3.06030E-21
4.75889E-04 2.59863E-21
5.14715E-04 2.22078E-21
5.55063E-04 1.90915E-21
5.96931E-04 1.65028E-21
6.40321E-04 1.43382E-21
6.85233E-04 1.25168E-21
7.31665E-04 1.09756E-21
7.79618E-04 9.66424E-22
8.29092E-04 8.54290E-22
8.80086E-04 7.57948E-22
9.32601E-04 6.74801E-22
9.86636E-04 6.02742E-22
1.04219E-03 5.40041E-22
1.09927E-03 4.85279E-22
1.15786E-03 4.37281E-22
1.21797E-03 3.95066E-22
1.27961E-03 3.57822E-22
1.34276E-03 3.24860E-22
1.40743E-03 2.95604E-22
1.47362E-03 2.69566E-22
1.54133E-03 2.46329E-22
1.61056E-03 2.25541E-22
1.68131E-03 2.06898E-22
1.75357E-03 1.90139E-22
1.82735E-03 1.75042E-22
1.90265E-03 1.61412E-22
1.97947E-03 1.49082E-22
2.05780E-03 1.37905E-22
2.13765E-03 1.27755E-22
2.21902E-03 1.18521E-22
2.30190E-03 1.10105E-22
2.38630E-03 1.02422E-22
2.47222E-03 9.53969E-23
2.55965E-03 8.89629E-23
2.64859E-03 8.30615E-23
2.73905E-03 7.76407E-23
2.83103E-03 7.26543E-23
2.92452E-03 6.80613E-23
3.01952E-03 6.38250E-23
3.11604E-03 5.99126E-23
3.21407E-03 5.62950E-23
3.31362E-03 5.29460E-23
3.41468E-03 4.98418E-23
3.51725E-03 4.69615E-23
3.62133E-03 4.42859E-23
3.72692E-03 4.17978E-23
3.83403E-03 3.94817E-23
3.94265E-03 3.73235E-23
4.05278E-03 3.53105E-23
4.16442E-03 3.34311E-23
4.27757E-03 3.16749E-23
4.39223E-03 3.00323E-23
4.50840E-03 2.84945E-23
4.62608E-03 2.70538E-23
4.74527E-03 2.57027E-23
4.86597E-03 2.44348E-23
4.98817E-03 2.32439E-23
5.11188E-03 2.21245E-23
5.23711E-03 2.10716E-23
5.36383E-03 2.00804E-23
5.49207E-03 1.91467E-23
5.62181E-03 1.82665E-23
5.75306E-03 1.74361E-23
5.88581E-03 1.66523E-23
6.02007E-03 1.59120E-23
6.15583E-03 1.52122E-23
6.29310E-03 1.45504E-23
6.43187E-03 1.39241E-23
6.57214E-03 1.33310E-23
6.71392E-03 1.27691E-23
6.85720E-03 1.22364E-23
7.00198E-03 1.17311E-23
7.14827E-03 1.12516E-23
7.29605E-03 1.07962E-23
7.44534E-03 1.03636E-23
7.59612E-03 9.95235E-24
7.97965E-03 9.00982E-24
8.37255E-03 8.17596E-24
8.77480E-03 7.43609E-24
9.18641E-03 6.77779E-24
9.60736E-03 6.19052E-24
1.00376E-02 5.66529E-24
1.04773E-02 5.19441E-24
1.09262E-02 4.77129E-24
1.13844E-02 4.39023E-24
1.18520E-02 4.04632E-24
1.23288E-02 3.73530E-24
1.28150E-02 3.45348E-24
1.33104E-02 3.19764E-24
1.38150E-02 2.96496E-24
1.43290E-02 2.75297E-24
1.48521E-02 2.55951E-24
1.53845E-02 2.38267E-24
1.59262E-02 2.22077E-24
1.64770E-02 2.07233E-24
1.70371E-02 1.93602E-24
1.76063E-02 1.81068E-24
1.81848E-02 1.69527E-24
1.87724E-02 1.58886E-24
1.93692E-02 1.49062E-24
1.99751E-02 1.39982E-24
2.05901E-02 1.31579E-24
2.12143E-02 1.23793E-24
2.18476E-02 1.16571E-24
2.24900E-02 1.09865E-24
2.31415E-02 1.03631E-24
2.38021E-02 9.78308E-25
2.44717E-02 9.24277E-25
2.51504E-02 8.73900E-25
2.58382E-02 8.26885E-25
2.65349E-02 7.82967E-25
2.72407E-02 7.41906E-25
2.79555E-02 7.03482E-25
2.86793E-02 6.67494E-25
2.94120E-02 6.33761E-25
3.01537E-02 6.02116E-25
3.09043E-02 5.72405E-25
3.16639E-02 5.44490E-25
3.24324E-02 5.18241E-25
3.32098E-02 4.93542E-25
3.39961E-02 4.70285E-25
3.47912E-02 4.48369E-25
3.55952E-02 4.27703E-25
3.64081E-02 4.08204E-25
3.72297E-02 3.89793E-25
3.80602E-02 3.72399E-25
3.88995E-02 3.55954E-25
3.97476E-02 3.40399E-25
4.06044E-02 3.25675E-25
4.14700E-02 3.11731E-25
4.23443E-02 2.98517E-25
4.32273E-02 2.85989E-25
4.41190E-02 2.74104E-25
4.50194E-02 2.62823E-25
4.59284E-02 2.52110E-25
4.68461E-02 2.41932E-25
4.87074E-02 2.23053E-25
5.06030E-02 2.05960E-25
5.25328E-02 1.90454E-25
5.44967E-02 1.76362E-25
5.64946E-02 1.63534E-25
5.85262E-02 1.51837E-25
6.05914E-02 1.41153E-25
6.26901E-02 1.31380E-25
6.48222E-02 1.22426E-25
6.69873E-02 1.14211E-25
6.91854E-02 1.06664E-25
7.14163E-02 9.97201E-26
7.36799E-02 9.33234E-26
7.59760E-02 8.74232E-26
7.83043E-02 8.19743E-26
8.06647E-02 7.69360E-26
8.30571E-02 7.22722E-26
8.54812E-02 6.79500E-26
8.79369E-02 6.39403E-26
9.04240E-02 6.02163E-26
9.29422E-02 5.67543E-26
9.54915E-02 5.35325E-26
9.80716E-02 5.05315E-26
1.00682E-01 4.77335E-26
1.03323E-01 4.51223E-26
1.05995E-01 4.26833E-26
1.08696E-01 4.04031E-26
1.11427E-01 3.82697E-26
1.14188E-01 3.62720E-26
1.16978E-01 3.43997E-26
1.19797E-01 3.26438E-26
1.22645E-01 3.09956E-26
1.25522E-01 2.94475E-26
1.28428E-01 2.79923E-26
1.31361E-01 2.66234E-26
1.34323E-01 2.53349E-26
1.37313E-01 2.41212E-26
1.40330E-01 2.29773E-26
1.43375E-01 2.18984E-26
1.46447E-01 2.08802E-26
1.49545E-01 1.99186E-26
1.52671E-01 1.90101E-26
1.55823E-01 1.81512E-26
1.59001E-01 1.73386E-26
1.62205E-01 1.65695E-26
1.65435E-01 1.58412E-26
1.68690E-01 1.51510E-26
1.71970E-01 1.44967E-26
1.75276E-01 1.38762E-26
1.78606E-01 1.32872E-26
1.81961E-01 1.27280E-26
1.85340E-01 1.21969E-26
1.88743E-01 1.16921E-26
1.92169E-01 1.12121E-26
1.95619E-01 1.07555E-26
1.99092E-01 1.03210E-26
2.02589E-01 9.90734E-27
2.06107E-01 9.51332E-27
2.09649E-01 9.13786E-27
2.13212E-01 8.77994E-27
2.16797E-01 8.43861E-27
2.20404E-01 8.11296E-27
2.24032E-01 7.80216E-27
2.27680E-01 7.50541E-27
2.31350E-01 7.22198E-27
2.35040E-01 6.95117E-27
2.38751E-01 6.69231E-27
2.42481E-01 6.44481E-27
2.46231E-01 6.20806E-27
2.50000E-01 5.98154E-27
2.53788E-01 5.76473E-27
2.57595E-01 5.55713E-27
2.61421E-01 5.35830E-27
2.65264E-01 5.16780E-27
2.69126E-01 4.98524E-27
2.73005E-01 4.81021E-27
2.76901E-01 4.64236E-27
2.80814E-01 4.48136E-27
2.84744E-01 4.32686E-27
2.88691E-01 4.17858E-27
2.92653E-01 4.03621E-27
2.96632E-01 3.89949E-27
3.00625E-01 3.76815E-27
3.04634E-01 3.64195E-27
3.08658E-01 3.52065E-27
3.12697E-01 3.40404E-27
3.16749E-01 3.29189E-27
3.20816E-01 3.18403E-27
3.24896E-01 3.08025E-27
3.28990E-01 2.98037E-27
3.33097E-01 2.88423E-27
3.37216E-01 2.79167E-27
3.41348E-01 2.70253E-27
3.45492E-01 2.61666E-27
3.49647E-01 2.53392E-27
3.53814E-01 2.45419E-27
3.57992E-01 2.37733E-27
3.62181E-01 2.30324E-27
3.66381E-01 2.23178E-27
3.70590E-01 2.16286E-27
3.74810E-01 2.09636E-27
3.79039E-01 2.03220E-27
3.83277E-01 1.97028E-27
3.87524E-01 1.91050E-27
3.91780E-01 1.85278E-27
3.96044E-01 1.79705E-27
4.00316E-01 1.74321E-27
4.04596E-01 1.69120E-27
4.08882E-01 1.64095E-27
4.13176E-01 1.59238E-27
4.17476E-01 1.54543E-27
4.21783E-01 1.50005E-27
4.26095E-01 1.45616E-27
4.30413E-01 1.41372E-27
4.34737E-01 1.37266E-27
4.39065E-01 1.33294E-27
4.43398E-01 1.29451E-27
4.47736E-01 1.25732E-27
4.52077E-01 1.22132E-27
4.56422E-01 1.18647E-27
4.60770E-01 1.15272E-27
4.65122E-01 1.12005E-27
4.69476E-01 1.08840E-27
4.73832E-01 1.05774E-27
4.78190E-01 1.02804E-27
4.82550E-01 9.99260E-28
4.86912E-01 9.71370E-28
4.91274E-01 9.44337E-28
4.95637E-01 9.18131E-28
5.00000E-01 8.92725E-28
5.04363E-01 8.68089E-28
5.08726E-01 8.44197E-28
5.13088E-01 8.21025E-28
5.17450E-01 7.98546E-28
5.21810E-01 7.76737E-28
5.26168E-01 7.55577E-28
5.30524E-01 7.35042E-28
5.34878E-01 7.15112E-28
5.39230E-01 6.95766E-28
5.43578E-01 6.76986E-28
5.47923E-01 6.58751E-28
5.52264E-01 6.41046E-28
5.56602E-01 6.23851E-28
5.60935E-01 6.07150E-28
5.65263E-01 5.90928E-28
5.69587E-01 5.75168E-28
5.73905E-01 5.59856E-28
5.78217E-01 5.44978E-28
5.82524E-01 5.30519E-28
5.86824E-01 5.16466E-28
5.91118E-01 5.02806E-28
5.95404E-01 4.89528E-28
5.99684E-01 4.76618E-28
6.03956E-01 4.64066E-28
6.08220E-01 4.51860E-28
6.12476E-01 4.39990E-28
6.16723E-01 4.28444E-28
6.20961E-01 4.17214E-28
6.25190E-01 4.06289E-28
6.29410E-01 3.95661E-28
6.33619E-01 3.85319E-28
6.37819E-01 3.75257E-28
6.42008E-01 3.65464E-28
6.46186E-01 3.55933E-28
6.50353E-01 3.46656E-28
6.54508E-01 3.37626E-28
6.58652E-01 3.28835E-28
6.62784E-01 3.20277E-28
6.66903E-01 3.11943E-28
6.71010E-01 3.03829E-28
6.75104E-01 2.95926E-28
6.79184E-01 2.88230E-28
6.83251E-01 2.80735E-28
6.87303E-01 2.73433E-28
6.91342E-01 2.66321E-28
6.95366E-01 2.59391E-28
6.99375E-01 2.52641E-28
7.03368E-01 2.46063E-28
7.07347E-01 2.39653E-28
7.11309E-01 2.33407E-28
7.15256E-01 2.27320E-28
7.19186E-01 2.21387E-28
7.23099E-01 2.15605E-28
7.26995E-01 2.09968E-28
7.30874E-01 2.04473E-28
7.34736E-01 1.99117E-28
7.38579E-01 1.93894E-28
7.42405E-01 1.88802E-28
7.46212E-01 1.83837E-28
7.50000E-01 1.78996E-28
7.53769E-01 1.74274E-28
7.57519E-01 1.69670E-28
7.61249E-01 1.65180E-28
7.64960E-01 1.60800E-28
7.68650E-01 1.56528E-28
7.72320E-01 1.52361E-28
7.75968E-01 1.48296E-28
7.79596E-01 1.44331E-28
7.83203E-01 1.40462E-28
7.86788E-01 1.36688E-28
7.90351E-01 1.33005E-28
7.93893E-01 1.29413E-28
7.97411E-01 1.25907E-28
8.00908E-01 1.22486E-28
8.04381E-01 1.19148E-28
8.07831E-01 1.15890E-28
8.11257E-01 1.12711E-28
8.14660E-01 1.09609E-28
8.18039E-01 1.06581E-28
8.21394E-01 1.03626E-28
8.24724E-01 1.00742E-28
8.28030E-01 9.79267E-29
8.31310E-01 9.51791E-29
8.34565E-01 9.24972E-29
8.37795E-01 8.98795E-29
8.40999E-01 8.73242E-29
8.44177E-01 8.48300E-29
8.47329E-01 8.23953E-29
8.50455E-01 8.00187E-29
8.53553E-01 7.76988E-29
8.56625E-01 7.54341E-29
8.59670E-01 7.32235E-29
8.62687E-01 7.10655E-29
8.65677E-01 6.89590E-29
8.68639E-01 6.69027E-29
8.71572E-01 6.48954E-29
8.74478E-01 6.29360E-29
8.77355E-01 6.10234E-29
8.80203E-01 5.91565E-29
8.83022E-01 5.73342E-29
8.85812E-01 5.55555E-29
8.88573E-01 5.38194E-29
8.91304E-01 5.21250E-29
8.94005E-01 5.04713E-29
8.96677E-01 4.88573E-29
8.99318E-01 4.72823E-29
9.01928E-01 4.57452E-29
9.04508E-01 4.42454E-29
9.07058E-01 4.27819E-29
9.09576E-01 4.13540E-29
9.12063E-01 3.99609E-29
9.14519E-01 3.86019E-29
9.16943E-01 3.72762E-29
9.19335E-01 3.59831E-29
9.21696E-01 3.47219E-29
9.24024E-01 3.34920E-29
9.26320E-01 3.22926E-29
9.28584E-01 3.11233E-29
9.30815E-01 2.99833E-29
9.33013E-01 2.88721E-29
9.35178E-01 2.77891E-29
9.37310E-01 2.67336E-29
9.39409E-01 2.57053E-29
9.41474E-01 2.47035E-29
9.43505E-01 2.37277E-29
9.45503E-01 2.27774E-29
9.47467E-01 2.18522E-29
9.49397E-01 2.09515E-29
9.51293E-01 2.00749E-29
9.53154E-01 1.92220E-29
9.54981E-01 1.83923E-29
9.56773E-01 1.75854E-29
9.58530E-01 1.68009E-29
9.60252E-01 1.60384E-29
9.61940E-01 1.52976E-29
9.63592E-01 1.45780E-29
9.65209E-01 1.38793E-29
9.66790E-01 1.32011E-29
9.68336E-01 1.25432E-29
9.69846E-01 1.19051E-29
9.71321E-01 1.12866E-29
9.72759E-01 1.06874E-29
9.74162E-01 1.01071E-29
9.75528E-01 9.54558E-30
9.76858E-01 9.00243E-30
9.78152E-01 8.47742E-30
9.79410E-01 7.97030E-30
9.80631E-01 7.48083E-30
9.81815E-01 7.00876E-30
9.82963E-01 6.55387E-30
9.84074E-01 6.11594E-30
9.85148E-01 5.69476E-30
9.86185E-01 5.29011E-30
9.87185E-01 4.90182E-30
9.88148E-01 4.52968E-30
9.89074E-01 4.17353E-30
9.89962E-01 3.83319E-30
9.90814E-01 3.50850E-30
9.91627E-01 3.19930E-30
9.92404E-01 2.90545E-30
9.93143E-01 2.62680E-30
9.93844E-01 2.36323E-30
9.94508E-01 2.11461E-30
9.95134E-01 1.88081E-30
9.95722E-01 1.66173E-30
9.96273E-01 1.45727E-30
9.96786E-01 1.26733E-30
9.97261E-01 1.09181E-30
9.97698E-01 9.30640E-31
9.98097E-01 7.83738E-31
9.98459E-01 6.51032E-31
9.98782E-01 5.32465E-31
9.99067E-01 4.27977E-31
9.99315E-01 3.37520E-31
9.99524E-01 2.61053E-31
9.99695E-01 1.98537E-31
9.99829E-01 1.49944E-31
9.99924E-01 1.15252E-31
9.99981E-01 9.44423E-32
1.00000E+00 8.75074E-32
