 #
 # Subroutine ELSEPA. Elastic scattering of electrons and positrons
 #                    by neutral atoms and positive ions
 #
 # Projectile: positron
 # Kinetic energy = 3.00000E+06 eV = 1.10248E+05 a.u.
 #
 # WARNING: High-energy factorization with free-atom DF screening.
 #          Absorption, polarization and exchange corrections are
 #          switched off.
 #          Phase shifts are calculated for the bare nucleus.
 #          Scattering amplitudes are not evaluated.
 #
 # Element: Mg,  Z =  12,  atomic weight = 2.43050E+01 g/mol
 #
 # Nuclear model: Fermi distribution
 #                Average radius = 3.09943E-13 cm
 #                Skin thickness = 5.46000E-14 cm
 #
 # Number of electrons = 12
 #
 # Total elastic cross section = 6.22071E-19 cm**2 = 2.22146E-02 a0**2
 # 1st transport cross section = 1.68442E-23 cm**2 = 6.01516E-07 a0**2
 # 2nd transport cross section = 4.82878E-23 cm**2 = 1.72439E-06 a0**2
 #
 #
 # Differential cross section:                       MU=(1-COS(THETA))/2
 #
 #  THETA        MU          DCS          DCS        Sherman      error
 #  (deg)                 (cm**2/sr)   (a0**2/sr)    function
 #----------------------------------------------------------------------
0.00000E+00 1.27833E-13
7.61557E-13 1.27832E-13
1.18994E-12 1.27832E-13
1.71346E-12 1.27831E-13
2.33225E-12 1.27831E-13
3.04617E-12 1.27830E-13
3.85530E-12 1.27830E-13
4.75964E-12 1.27829E-13
5.75917E-12 1.27828E-13
6.85391E-12 1.27827E-13
8.04379E-12 1.27826E-13
9.32893E-12 1.27825E-13
1.07092E-11 1.27824E-13
1.21847E-11 1.27823E-13
1.37554E-11 1.27821E-13
1.54213E-11 1.27820E-13
1.71823E-11 1.27818E-13
1.90386E-11 1.27817E-13
2.09900E-11 1.27815E-13
2.30367E-11 1.27813E-13
2.51785E-11 1.27812E-13
2.74156E-11 1.27810E-13
2.97478E-11 1.27808E-13
3.21752E-11 1.27806E-13
3.46979E-11 1.27804E-13
3.73157E-11 1.27801E-13
4.00286E-11 1.27799E-13
4.28368E-11 1.27797E-13
4.57402E-11 1.27794E-13
4.87388E-11 1.27792E-13
5.18325E-11 1.27789E-13
5.50215E-11 1.27787E-13
5.83057E-11 1.27784E-13
6.16850E-11 1.27781E-13
6.51595E-11 1.27778E-13
6.87293E-11 1.27775E-13
7.23943E-11 1.27772E-13
7.61544E-11 1.27769E-13
1.18991E-10 1.27733E-13
1.71347E-10 1.27689E-13
2.33223E-10 1.27638E-13
3.04617E-10 1.27578E-13
3.85531E-10 1.27511E-13
4.75965E-10 1.27436E-13
5.75917E-10 1.27353E-13
6.85389E-10 1.27263E-13
8.04380E-10 1.27164E-13
9.32891E-10 1.27058E-13
1.07092E-09 1.26944E-13
1.21847E-09 1.26823E-13
1.37554E-09 1.26694E-13
1.54213E-09 1.26557E-13
1.71823E-09 1.26413E-13
1.90386E-09 1.26261E-13
2.09900E-09 1.26101E-13
2.30367E-09 1.25935E-13
2.51785E-09 1.25760E-13
2.74156E-09 1.25579E-13
2.97478E-09 1.25390E-13
3.21752E-09 1.25194E-13
3.46978E-09 1.24990E-13
3.73156E-09 1.24779E-13
4.00286E-09 1.24562E-13
4.28368E-09 1.24337E-13
4.57402E-09 1.24105E-13
4.87388E-09 1.23866E-13
5.18326E-09 1.23621E-13
5.50215E-09 1.23368E-13
5.83057E-09 1.23109E-13
6.16850E-09 1.22843E-13
6.51596E-09 1.22570E-13
6.87293E-09 1.22291E-13
7.23942E-09 1.22005E-13
7.61544E-09 1.21713E-13
1.18991E-08 1.18453E-13
1.71347E-08 1.14633E-13
2.33223E-08 1.10340E-13
3.04617E-08 1.05665E-13
3.85531E-08 1.00700E-13
4.75965E-08 9.55349E-14
5.75917E-08 9.02576E-14
6.85389E-08 8.49457E-14
8.04380E-08 7.96701E-14
9.32891E-08 7.44912E-14
1.07092E-07 6.94592E-14
1.21847E-07 6.46147E-14
1.37554E-07 5.99844E-14
1.54213E-07 5.55971E-14
1.71823E-07 5.14658E-14
1.90386E-07 4.75939E-14
2.09900E-07 4.39904E-14
2.30367E-07 4.06468E-14
2.51785E-07 3.75445E-14
2.74156E-07 3.46731E-14
2.97478E-07 3.20418E-14
3.21752E-07 2.96399E-14
3.46978E-07 2.74261E-14
3.73156E-07 2.53878E-14
4.00286E-07 2.35299E-14
4.28368E-07 2.18518E-14
4.57402E-07 2.03076E-14
4.87388E-07 1.88870E-14
5.18325E-07 1.75900E-14
5.50215E-07 1.64244E-14
5.83057E-07 1.53505E-14
6.16850E-07 1.43606E-14
6.51596E-07 1.34521E-14
6.87293E-07 1.26354E-14
7.23942E-07 1.18807E-14
7.61543E-07 1.11828E-14
1.18991E-06 6.59308E-15
1.71347E-06 4.32135E-15
2.33223E-06 3.02580E-15
3.04617E-06 2.20117E-15
3.85531E-06 1.64134E-15
4.75964E-06 1.24208E-15
5.75916E-06 9.51922E-16
6.85388E-06 7.36536E-16
8.04378E-06 5.75291E-16
9.32888E-06 4.53324E-16
1.07092E-05 3.60255E-16
1.21846E-05 2.88771E-16
1.37553E-05 2.32970E-16
1.54212E-05 1.90157E-16
1.71822E-05 1.55996E-16
1.90385E-05 1.29189E-16
2.09899E-05 1.07721E-16
2.30365E-05 9.04386E-17
2.51783E-05 7.64805E-17
2.74153E-05 6.50494E-17
2.97475E-05 5.56849E-17
3.21749E-05 4.79436E-17
3.46974E-05 4.14987E-17
3.73152E-05 3.61109E-17
4.00281E-05 3.15707E-17
4.28362E-05 2.77287E-17
4.57395E-05 2.44595E-17
4.87380E-05 2.16611E-17
5.18317E-05 1.92574E-17
5.50205E-05 1.71814E-17
5.83045E-05 1.53813E-17
6.16838E-05 1.38147E-17
6.51582E-05 1.24441E-17
6.87277E-05 1.12421E-17
7.23925E-05 1.01834E-17
7.61524E-05 9.24767E-18
9.21439E-05 6.43542E-18
1.09658E-04 4.62193E-18
1.28695E-04 3.40736E-18
1.49255E-04 2.56780E-18
1.71338E-04 1.97180E-18
1.94942E-04 1.53901E-18
2.20070E-04 1.21845E-18
2.46720E-04 9.76972E-19
2.74892E-04 7.92214E-19
3.04586E-04 6.48985E-19
3.35803E-04 5.36559E-19
3.68542E-04 4.47355E-19
4.02802E-04 3.75854E-19
4.38585E-04 3.18020E-19
4.75889E-04 2.70845E-19
5.14715E-04 2.32061E-19
5.55063E-04 1.99950E-19
5.96931E-04 1.73180E-19
6.40321E-04 1.50728E-19
6.85233E-04 1.31784E-19
7.31665E-04 1.15715E-19
7.79618E-04 1.02013E-19
8.29092E-04 9.02736E-20
8.80086E-04 8.01701E-20
9.32601E-04 7.14365E-20
9.86636E-04 6.38573E-20
1.04219E-03 5.72540E-20
1.09927E-03 5.14803E-20
1.15786E-03 4.64145E-20
1.21797E-03 4.19551E-20
1.27961E-03 3.80173E-20
1.34276E-03 3.45298E-20
1.40743E-03 3.14322E-20
1.47362E-03 2.86736E-20
1.54133E-03 2.62104E-20
1.61056E-03 2.40055E-20
1.68131E-03 2.20272E-20
1.75357E-03 2.02481E-20
1.82735E-03 1.86448E-20
1.90265E-03 1.71967E-20
1.97947E-03 1.58862E-20
2.05780E-03 1.46980E-20
2.13765E-03 1.36186E-20
2.21902E-03 1.26364E-20
2.30190E-03 1.17409E-20
2.38630E-03 1.09233E-20
2.47222E-03 1.01754E-20
2.55965E-03 9.49041E-21
2.64859E-03 8.86196E-21
2.73905E-03 8.28460E-21
2.83103E-03 7.75341E-21
2.92452E-03 7.26405E-21
3.01952E-03 6.81262E-21
3.11604E-03 6.39567E-21
3.21407E-03 6.01007E-21
3.31362E-03 5.65305E-21
3.41468E-03 5.32210E-21
3.51725E-03 5.01498E-21
3.62133E-03 4.72965E-21
3.72692E-03 4.46430E-21
3.83403E-03 4.21726E-21
3.94265E-03 3.98705E-21
4.05278E-03 3.77230E-21
4.16442E-03 3.57179E-21
4.27757E-03 3.38441E-21
4.39223E-03 3.20913E-21
4.50840E-03 3.04503E-21
4.62608E-03 2.89127E-21
4.74527E-03 2.74707E-21
4.86597E-03 2.61174E-21
4.98817E-03 2.48462E-21
5.11188E-03 2.36513E-21
5.23711E-03 2.25272E-21
5.36383E-03 2.14690E-21
5.49207E-03 2.04720E-21
5.62181E-03 1.95322E-21
5.75306E-03 1.86455E-21
5.88581E-03 1.78085E-21
6.02007E-03 1.70179E-21
6.15583E-03 1.62705E-21
6.29310E-03 1.55637E-21
6.43187E-03 1.48947E-21
6.57214E-03 1.42612E-21
6.71392E-03 1.36610E-21
6.85720E-03 1.30919E-21
7.00198E-03 1.25521E-21
7.14827E-03 1.20398E-21
7.29605E-03 1.15533E-21
7.44534E-03 1.10911E-21
7.59612E-03 1.06517E-21
7.97965E-03 9.64448E-22
8.37255E-03 8.75323E-22
8.77480E-03 7.96234E-22
9.18641E-03 7.25859E-22
9.60736E-03 6.63073E-22
1.00376E-02 6.06914E-22
1.04773E-02 5.56563E-22
1.09262E-02 5.11314E-22
1.13844E-02 4.70559E-22
1.18520E-02 4.33774E-22
1.23288E-02 4.00505E-22
1.28150E-02 3.70357E-22
1.33104E-02 3.42984E-22
1.38150E-02 3.18087E-22
1.43290E-02 2.95402E-22
1.48521E-02 2.74697E-22
1.53845E-02 2.55770E-22
1.59262E-02 2.38439E-22
1.64770E-02 2.22547E-22
1.70371E-02 2.07953E-22
1.76063E-02 1.94532E-22
1.81848E-02 1.82172E-22
1.87724E-02 1.70776E-22
1.93692E-02 1.60253E-22
1.99751E-02 1.50525E-22
2.05901E-02 1.41522E-22
2.12143E-02 1.33179E-22
2.18476E-02 1.25440E-22
2.24900E-02 1.18253E-22
2.31415E-02 1.11570E-22
2.38021E-02 1.05352E-22
2.44717E-02 9.95585E-23
2.51504E-02 9.41563E-23
2.58382E-02 8.91140E-23
2.65349E-02 8.44032E-23
2.72407E-02 7.99982E-23
2.79555E-02 7.58755E-23
2.86793E-02 7.20138E-23
2.94120E-02 6.83934E-23
3.01537E-02 6.49966E-23
3.09043E-02 6.18070E-23
3.16639E-02 5.88097E-23
3.24324E-02 5.59909E-23
3.32098E-02 5.33382E-23
3.39961E-02 5.08398E-23
3.47912E-02 4.84853E-23
3.55952E-02 4.62647E-23
3.64081E-02 4.41691E-23
3.72297E-02 4.21901E-23
3.80602E-02 4.03201E-23
3.88995E-02 3.85519E-23
3.97476E-02 3.68790E-23
4.06044E-02 3.52954E-23
4.14700E-02 3.37953E-23
4.23443E-02 3.23735E-23
4.32273E-02 3.10253E-23
4.41190E-02 2.97460E-23
4.50194E-02 2.85316E-23
4.59284E-02 2.73781E-23
4.68461E-02 2.62820E-23
4.87074E-02 2.42483E-23
5.06030E-02 2.24062E-23
5.25328E-02 2.07346E-23
5.44967E-02 1.92149E-23
5.64946E-02 1.78309E-23
5.85262E-02 1.65683E-23
6.05914E-02 1.54147E-23
6.26901E-02 1.43589E-23
6.48222E-02 1.33913E-23
6.69873E-02 1.25031E-23
6.91854E-02 1.16867E-23
7.14163E-02 1.09352E-23
7.36799E-02 1.02427E-23
7.59760E-02 9.60357E-24
7.83043E-02 9.01305E-24
8.06647E-02 8.46678E-24
8.30571E-02 7.96086E-24
8.54812E-02 7.49176E-24
8.79369E-02 7.05634E-24
9.04240E-02 6.65175E-24
9.29422E-02 6.27541E-24
9.54915E-02 5.92501E-24
9.80716E-02 5.59844E-24
1.00682E-01 5.29378E-24
1.03323E-01 5.00930E-24
1.05995E-01 4.74344E-24
1.08696E-01 4.49475E-24
1.11427E-01 4.26192E-24
1.14188E-01 4.04377E-24
1.16978E-01 3.83920E-24
1.19797E-01 3.64722E-24
1.22645E-01 3.46691E-24
1.25522E-01 3.29744E-24
1.28428E-01 3.13804E-24
1.31361E-01 2.98800E-24
1.34323E-01 2.84668E-24
1.37313E-01 2.71347E-24
1.40330E-01 2.58783E-24
1.43375E-01 2.46926E-24
1.46447E-01 2.35728E-24
1.49545E-01 2.25145E-24
1.52671E-01 2.15139E-24
1.55823E-01 2.05673E-24
1.59001E-01 1.96711E-24
1.62205E-01 1.88222E-24
1.65435E-01 1.80177E-24
1.68690E-01 1.72548E-24
1.71970E-01 1.65310E-24
1.75276E-01 1.58440E-24
1.78606E-01 1.51915E-24
1.81961E-01 1.45715E-24
1.85340E-01 1.39820E-24
1.88743E-01 1.34214E-24
1.92169E-01 1.28879E-24
1.95619E-01 1.23800E-24
1.99092E-01 1.18962E-24
2.02589E-01 1.14353E-24
2.06107E-01 1.09959E-24
2.09649E-01 1.05768E-24
2.13212E-01 1.01769E-24
2.16797E-01 9.79528E-25
2.20404E-01 9.43084E-25
2.24032E-01 9.08271E-25
2.27680E-01 8.75002E-25
2.31350E-01 8.43196E-25
2.35040E-01 8.12778E-25
2.38751E-01 7.83677E-25
2.42481E-01 7.55825E-25
2.46231E-01 7.29159E-25
2.50000E-01 7.03620E-25
2.53788E-01 6.79152E-25
2.57595E-01 6.55701E-25
2.61421E-01 6.33219E-25
2.65264E-01 6.11657E-25
2.69126E-01 5.90971E-25
2.73005E-01 5.71121E-25
2.76901E-01 5.52065E-25
2.80814E-01 5.33767E-25
2.84744E-01 5.16190E-25
2.88691E-01 4.99302E-25
2.92653E-01 4.83072E-25
2.96632E-01 4.67467E-25
3.00625E-01 4.52461E-25
3.04634E-01 4.38027E-25
3.08658E-01 4.24138E-25
3.12697E-01 4.10771E-25
3.16749E-01 3.97902E-25
3.20816E-01 3.85509E-25
3.24896E-01 3.73573E-25
3.28990E-01 3.62073E-25
3.33097E-01 3.50990E-25
3.37216E-01 3.40307E-25
3.41348E-01 3.30006E-25
3.45492E-01 3.20073E-25
3.49647E-01 3.10490E-25
3.53814E-01 3.01244E-25
3.57992E-01 2.92321E-25
3.62181E-01 2.83708E-25
3.66381E-01 2.75392E-25
3.70590E-01 2.67360E-25
3.74810E-01 2.59602E-25
3.79039E-01 2.52107E-25
3.83277E-01 2.44864E-25
3.87524E-01 2.37863E-25
3.91780E-01 2.31095E-25
3.96044E-01 2.24551E-25
4.00316E-01 2.18221E-25
4.04596E-01 2.12099E-25
4.08882E-01 2.06175E-25
4.13176E-01 2.00442E-25
4.17476E-01 1.94894E-25
4.21783E-01 1.89522E-25
4.26095E-01 1.84321E-25
4.30413E-01 1.79284E-25
4.34737E-01 1.74406E-25
4.39065E-01 1.69679E-25
4.43398E-01 1.65100E-25
4.47736E-01 1.60662E-25
4.52077E-01 1.56360E-25
4.56422E-01 1.52189E-25
4.60770E-01 1.48146E-25
4.65122E-01 1.44224E-25
4.69476E-01 1.40421E-25
4.73832E-01 1.36731E-25
4.78190E-01 1.33151E-25
4.82550E-01 1.29678E-25
4.86912E-01 1.26306E-25
4.91274E-01 1.23033E-25
4.95637E-01 1.19856E-25
5.00000E-01 1.16771E-25
5.04363E-01 1.13775E-25
5.08726E-01 1.10866E-25
5.13088E-01 1.08039E-25
5.17450E-01 1.05293E-25
5.21810E-01 1.02625E-25
5.26168E-01 1.00032E-25
5.30524E-01 9.75113E-26
5.34878E-01 9.50614E-26
5.39230E-01 9.26797E-26
5.43578E-01 9.03638E-26
5.47923E-01 8.81118E-26
5.52264E-01 8.59215E-26
5.56602E-01 8.37910E-26
5.60935E-01 8.17184E-26
5.65263E-01 7.97019E-26
5.69587E-01 7.77397E-26
5.73905E-01 7.58302E-26
5.78217E-01 7.39717E-26
5.82524E-01 7.21626E-26
5.86824E-01 7.04014E-26
5.91118E-01 6.86867E-26
5.95404E-01 6.70170E-26
5.99684E-01 6.53910E-26
6.03956E-01 6.38073E-26
6.08220E-01 6.22648E-26
6.12476E-01 6.07620E-26
6.16723E-01 5.92980E-26
6.20961E-01 5.78715E-26
6.25190E-01 5.64814E-26
6.29410E-01 5.51266E-26
6.33619E-01 5.38062E-26
6.37819E-01 5.25191E-26
6.42008E-01 5.12644E-26
6.46186E-01 5.00411E-26
6.50353E-01 4.88484E-26
6.54508E-01 4.76853E-26
6.58652E-01 4.65510E-26
6.62784E-01 4.54448E-26
6.66903E-01 4.43658E-26
6.71010E-01 4.33132E-26
6.75104E-01 4.22863E-26
6.79184E-01 4.12845E-26
6.83251E-01 4.03069E-26
6.87303E-01 3.93530E-26
6.91342E-01 3.84221E-26
6.95366E-01 3.75136E-26
6.99375E-01 3.66268E-26
7.03368E-01 3.57613E-26
7.07347E-01 3.49163E-26
7.11309E-01 3.40913E-26
7.15256E-01 3.32859E-26
7.19186E-01 3.24995E-26
7.23099E-01 3.17316E-26
7.26995E-01 3.09817E-26
7.30874E-01 3.02494E-26
7.34736E-01 2.95341E-26
7.38579E-01 2.88354E-26
7.42405E-01 2.81530E-26
7.46212E-01 2.74864E-26
7.50000E-01 2.68351E-26
7.53769E-01 2.61988E-26
7.57519E-01 2.55772E-26
7.61249E-01 2.49698E-26
7.64960E-01 2.43762E-26
7.68650E-01 2.37962E-26
7.72320E-01 2.32294E-26
7.75968E-01 2.26755E-26
7.79596E-01 2.21341E-26
7.83203E-01 2.16050E-26
7.86788E-01 2.10878E-26
7.90351E-01 2.05823E-26
7.93893E-01 2.00881E-26
7.97411E-01 1.96050E-26
8.00908E-01 1.91328E-26
8.04381E-01 1.86711E-26
8.07831E-01 1.82197E-26
8.11257E-01 1.77784E-26
8.14660E-01 1.73469E-26
8.18039E-01 1.69250E-26
8.21394E-01 1.65125E-26
8.24724E-01 1.61092E-26
8.28030E-01 1.57148E-26
8.31310E-01 1.53292E-26
8.34565E-01 1.49521E-26
8.37795E-01 1.45833E-26
8.40999E-01 1.42227E-26
8.44177E-01 1.38700E-26
8.47329E-01 1.35252E-26
8.50455E-01 1.31880E-26
8.53553E-01 1.28582E-26
8.56625E-01 1.25357E-26
8.59670E-01 1.22203E-26
8.62687E-01 1.19119E-26
8.65677E-01 1.16103E-26
8.68639E-01 1.13154E-26
8.71572E-01 1.10270E-26
8.74478E-01 1.07450E-26
8.77355E-01 1.04693E-26
8.80203E-01 1.01996E-26
8.83022E-01 9.93597E-27
8.85812E-01 9.67820E-27
8.88573E-01 9.42616E-27
8.91304E-01 9.17976E-27
8.94005E-01 8.93886E-27
8.96677E-01 8.70337E-27
8.99318E-01 8.47316E-27
9.01928E-01 8.24815E-27
9.04508E-01 8.02821E-27
9.07058E-01 7.81325E-27
9.09576E-01 7.60318E-27
9.12063E-01 7.39790E-27
9.14519E-01 7.19732E-27
9.16943E-01 7.00135E-27
9.19335E-01 6.80989E-27
9.21696E-01 6.62287E-27
9.24024E-01 6.44020E-27
9.26320E-01 6.26181E-27
9.28584E-01 6.08761E-27
9.30815E-01 5.91753E-27
9.33013E-01 5.75149E-27
9.35178E-01 5.58942E-27
9.37310E-01 5.43126E-27
9.39409E-01 5.27693E-27
9.41474E-01 5.12638E-27
9.43505E-01 4.97952E-27
9.45503E-01 4.83631E-27
9.47467E-01 4.69668E-27
9.49397E-01 4.56057E-27
9.51293E-01 4.42793E-27
9.53154E-01 4.29870E-27
9.54981E-01 4.17282E-27
9.56773E-01 4.05025E-27
9.58530E-01 3.93094E-27
9.60252E-01 3.81482E-27
9.61940E-01 3.70186E-27
9.63592E-01 3.59201E-27
9.65209E-01 3.48523E-27
9.66790E-01 3.38146E-27
9.68336E-01 3.28068E-27
9.69846E-01 3.18283E-27
9.71321E-01 3.08788E-27
9.72759E-01 2.99579E-27
9.74162E-01 2.90653E-27
9.75528E-01 2.82005E-27
9.76858E-01 2.73632E-27
9.78152E-01 2.65531E-27
9.79410E-01 2.57699E-27
9.80631E-01 2.50133E-27
9.81815E-01 2.42829E-27
9.82963E-01 2.35784E-27
9.84074E-01 2.28997E-27
9.85148E-01 2.22464E-27
9.86185E-01 2.16182E-27
9.87185E-01 2.10149E-27
9.88148E-01 2.04364E-27
9.89074E-01 1.98823E-27
9.89962E-01 1.93524E-27
9.90814E-01 1.88465E-27
9.91627E-01 1.83645E-27
9.92404E-01 1.79061E-27
9.93143E-01 1.74712E-27
9.93844E-01 1.70596E-27
9.94508E-01 1.66712E-27
9.95134E-01 1.63057E-27
9.95722E-01 1.59631E-27
9.96273E-01 1.56432E-27
9.96786E-01 1.53459E-27
9.97261E-01 1.50710E-27
9.97698E-01 1.48186E-27
9.98097E-01 1.45884E-27
9.98459E-01 1.43804E-27
9.98782E-01 1.41945E-27
9.99067E-01 1.40306E-27
9.99315E-01 1.38887E-27
9.99524E-01 1.37688E-27
9.99695E-01 1.36707E-27
9.99829E-01 1.35945E-27
9.99924E-01 1.35400E-27
9.99981E-01 1.35073E-27
1.00000E+00 1.34965E-27
