 #  Total cross section table (last run of 'elscata').
 #
 #  Z =  12,   projectile: positron
 #
 #   Energy         ECS         TCS1         TCS2         ABSCS      error
 #    (eV)        (cm**2)      (cm**2)      (cm**2)      (cm**2)
 #--------------------------------------------------------------------------
   1.00000E+02  1.90567E-16  2.26803E-17  4.04704E-17  7.39020E-16  3.1E-05
   1.25000E+02  1.67462E-16  2.12502E-17  3.87390E-17  6.17253E-16  3.2E-05
   1.50000E+02  1.57005E-16  1.97821E-17  3.66807E-17  5.31204E-16  9.0E-06
   1.75000E+02  1.49769E-16  1.83385E-17  3.43529E-17  4.67003E-16  2.8E-05
   2.00000E+02  1.43949E-16  1.70178E-17  3.21013E-17  4.17135E-16  3.8E-05
   2.50000E+02  1.34371E-16  1.47746E-17  2.81480E-17  3.44523E-16  1.4E-05
   3.00000E+02  1.26389E-16  1.29903E-17  2.49481E-17  2.94028E-16  2.1E-05
   3.50000E+02  1.19470E-16  1.15493E-17  2.23476E-17  2.56795E-16  9.4E-06
   4.00000E+02  1.13407E-16  1.03753E-17  2.02190E-17  2.28125E-16  2.9E-05
   4.50000E+02  1.08018E-16  9.39672E-18  1.84394E-17  2.05352E-16  4.0E-05
   5.00000E+02  1.03193E-16  8.56985E-18  1.69308E-17  1.86806E-16  3.1E-05
   6.00000E+02  9.49140E-17  7.25399E-18  1.45162E-17  1.58370E-16  5.8E-05
   7.00000E+02  8.80475E-17  6.25487E-18  1.26665E-17  1.37556E-16  2.6E-05
   8.00000E+02  8.22467E-17  5.47269E-18  1.12040E-17  1.21634E-16  4.3E-05
   9.00000E+02  7.72704E-17  4.84548E-18  1.00190E-17  1.09046E-16  1.4E-02
   1.00000E+03  7.29458E-17  4.33273E-18  9.03996E-18  9.88341E-17  9.3E-03
   1.25000E+03  6.42264E-17  3.38927E-18  7.20673E-18  8.01071E-17  6.3E-03
   1.50000E+03  5.75726E-17  2.74913E-18  5.93292E-18  6.73559E-17  9.0E-03
   1.75000E+03  5.22832E-17  2.28788E-18  4.99688E-18  5.81136E-17  1.3E-02
   2.00000E+03  4.79518E-17  1.94074E-18  4.28115E-18  5.11092E-17  1.1E-02
   2.50000E+03  4.12403E-17  1.45692E-18  3.26509E-18  4.11997E-17  9.6E-03
   3.00000E+03  3.62528E-17  1.14035E-18  2.58671E-18  3.45263E-17  1.1E-02
   3.50000E+03  3.23858E-17  9.20481E-19  2.10810E-18  2.97264E-17  9.7E-03
   4.00000E+03  2.92925E-17  7.60852E-19  1.75624E-18  2.61083E-17  3.0E-02
   4.50000E+03  2.67581E-17  6.40927E-19  1.48918E-18  2.32832E-17  2.2E-02
   5.00000E+03  2.46414E-17  5.48309E-19  1.28117E-18  2.10160E-17  3.2E-02
   6.00000E+03  2.13023E-17  4.16235E-19  9.81555E-19  1.76033E-17  2.4E-02
   7.00000E+03  1.87839E-17  3.28059E-19  7.79311E-19  1.51567E-17  2.9E-02
   8.00000E+03  1.68143E-17  2.66006E-19  6.35753E-19  1.33168E-17  2.9E-02
   9.00000E+03  1.52307E-17  2.20550E-19  5.29846E-19  1.18827E-17  2.1E-02
   1.00000E+04  1.39289E-17  1.86170E-19  4.49270E-19  1.07335E-17  3.3E-02
   1.25000E+04  1.16623E-17  1.29356E-19  3.15060E-19  8.66064E-18  2.9E-06
   1.50000E+04  9.93828E-18  9.56166E-20  2.34583E-19  7.27566E-18  2.4E-06
   1.75000E+04  8.67584E-18  7.38439E-20  1.82257E-19  6.28488E-18  2.5E-06
   2.00000E+04  7.71110E-18  5.89248E-20  1.46180E-19  5.54099E-18  3.4E-06
   2.50000E+04  6.33336E-18  4.02798E-20  1.00770E-19  4.49848E-18  1.0E-07
   3.00000E+04  5.39653E-18  2.94471E-20  7.41697E-20  3.80269E-18  1.7E-07
   3.50000E+04  4.71805E-18  2.25666E-20  5.71634E-20  3.30545E-18  5.5E-07
   4.00000E+04  4.20399E-18  1.79087E-20  4.55871E-20  2.93226E-18  1.4E-06
   4.50000E+04  3.80105E-18  1.46004E-20  3.73261E-20  2.64254E-18  1.0E-07
   5.00000E+04  3.47674E-18  1.21611E-20  3.12096E-20  2.41046E-18  1.0E-07
   6.00000E+04  2.98703E-18  8.86384E-21  2.28995E-20  2.06239E-18  5.9E-06
   7.00000E+04  2.63493E-18  6.78727E-21  1.76336E-20  1.81392E-18  1.1E-07
   8.00000E+04  2.36968E-18  5.38955E-21  1.40708E-20  1.62774E-18  1.9E-05
   9.00000E+04  2.16274E-18  4.40070E-21  1.15387E-20  1.48306E-18  1.2E-05
   1.00000E+05  1.99685E-18  3.67344E-21  9.66906E-21  1.36741E-18  1.7E-05
   1.25000E+05  1.69775E-18  2.51233E-21  6.66713E-21  1.15973E-18  1.4E-04
   1.50000E+05  1.49830E-18  1.84788E-21  4.93658E-21  1.02173E-18  6.4E-04
   1.75000E+05  1.35608E-18  1.42901E-21  3.83900E-21  9.23400E-19  2.1E-03
   2.00000E+05  1.24975E-18  1.14624E-21  3.09411E-21  8.49635E-19  5.6E-03
   2.50000E+05  1.10179E-18  7.96780E-22  2.16771E-21  7.45315E-19  2.4E-02
   3.00000E+05  1.00421E-18  5.94704E-22  1.62796E-21  6.72537E-19  7.0E-02
   3.50000E+05  9.35372E-19  4.65907E-22  1.28178E-21  6.35363E-19  3.1E-05
   4.00000E+05  8.84451E-19  3.77962E-22  1.04415E-21  6.00517E-19  3.1E-05
   4.50000E+05  8.45424E-19  3.14779E-22  8.72643E-22  5.73930E-19  1.0E-07
   5.00000E+05  8.14678E-19  2.67568E-22  7.43977E-22  5.52930E-19  1.3E-07
   6.00000E+05  7.69618E-19  2.02407E-22  5.65517E-22  5.22193E-19  1.0E-06
   7.00000E+05  7.38482E-19  1.60108E-22  4.49005E-22  5.01015E-19  1.0E-07
   8.00000E+05  7.15911E-19  1.30768E-22  3.67817E-22  4.85643E-19  1.0E-07
   9.00000E+05  6.98949E-19  1.09402E-22  3.08470E-22  4.74082E-19  1.0E-07
   1.00000E+06  6.85842E-19  9.32557E-23  2.63476E-22  4.65142E-19  1.0E-07
   1.25000E+06  6.64079E-19  6.66032E-23  1.88894E-22  0.00000E+00  1.6E-05
   1.50000E+06  6.50357E-19  5.03481E-23  1.43186E-22  0.00000E+00  1.6E-05
   1.75000E+06  6.41310E-19  3.96532E-23  1.13006E-22  0.00000E+00  1.7E-05
   2.00000E+06  6.34997E-19  3.21797E-23  9.18581E-23  0.00000E+00  1.8E-05
   2.50000E+06  6.26940E-19  2.25939E-23  6.46545E-23  0.00000E+00  1.8E-05
   3.00000E+06  6.22071E-19  1.68442E-23  4.82878E-23  0.00000E+00  1.9E-05
   3.50000E+06  6.18870E-19  1.30955E-23  3.75939E-23  0.00000E+00  1.9E-05
   4.00000E+06  6.16655E-19  1.05031E-23  3.01857E-23  0.00000E+00  2.0E-05
   4.50000E+06  6.15024E-19  8.62899E-24  2.48231E-23  0.00000E+00  2.0E-05
   5.00000E+06  6.13813E-19  7.22692E-24  2.08065E-23  0.00000E+00  2.0E-05
   6.00000E+06  6.12173E-19  5.30026E-24  1.52799E-23  0.00000E+00  2.0E-05
   7.00000E+06  6.11162E-19  4.06570E-24  1.17334E-23  0.00000E+00  2.1E-05
   8.00000E+06  6.10510E-19  3.22450E-24  9.31404E-24  0.00000E+00  2.1E-05
   9.00000E+06  6.10070E-19  2.62424E-24  7.58599E-24  0.00000E+00  2.1E-05
   1.00000E+07  6.09781E-19  2.18013E-24  6.30644E-24  0.00000E+00  2.1E-05
   1.25000E+07  6.09343E-19  1.46713E-24  4.24993E-24  0.00000E+00  2.1E-05
   1.50000E+07  6.09202E-19  1.05820E-24  3.06886E-24  0.00000E+00  2.1E-05
   1.75000E+07  6.09159E-19  8.01113E-25  2.32558E-24  0.00000E+00  2.1E-05
   2.00000E+07  6.09185E-19  6.28580E-25  1.82634E-24  0.00000E+00  2.2E-05
   2.50000E+07  6.09250E-19  4.17917E-25  1.21618E-24  0.00000E+00  2.2E-05
   3.00000E+07  6.09307E-19  2.98619E-25  8.70261E-25  0.00000E+00  2.2E-05
   3.50000E+07  6.09217E-19  2.24339E-25  6.54679E-25  0.00000E+00  2.2E-05
   4.00000E+07  6.09106E-19  1.74862E-25  5.10968E-25  0.00000E+00  2.2E-05
   4.50000E+07  6.08964E-19  1.40203E-25  4.10224E-25  0.00000E+00  2.2E-05
   5.00000E+07  6.08822E-19  1.14955E-25  3.36779E-25  0.00000E+00  2.2E-05
   6.00000E+07  6.08623E-19  8.13501E-26  2.38922E-25  0.00000E+00  2.2E-05
   7.00000E+07  6.08500E-19  6.05897E-26  1.78372E-25  0.00000E+00  2.2E-05
   8.00000E+07  6.08444E-19  4.68591E-26  1.38256E-25  0.00000E+00  2.2E-05
   9.00000E+07  6.08415E-19  3.73060E-26  1.10293E-25  0.00000E+00  2.2E-05
   1.00000E+08  6.08395E-19  3.03923E-26  9.00151E-26  0.00000E+00  2.2E-05
   1.25000E+08  6.08445E-19  1.96370E-26  5.83691E-26  0.00000E+00  2.2E-05
   1.50000E+08  6.08596E-19  1.37124E-26  4.08584E-26  0.00000E+00  2.2E-05
   1.75000E+08  6.08668E-19  1.01103E-26  3.01749E-26  0.00000E+00  2.2E-05
   2.00000E+08  6.08778E-19  7.75966E-27  2.31855E-26  0.00000E+00  2.2E-05
   2.50000E+08  6.08966E-19  4.98160E-27  1.49055E-26  0.00000E+00  2.5E-05
   3.00000E+08  6.09020E-19  3.46589E-27  1.03785E-26  0.00000E+00  5.2E-04
   3.50000E+08  6.08839E-19  2.54951E-27  7.63810E-27  0.00000E+00  6.5E-04
   4.00000E+08  6.08558E-19  1.95369E-27  5.85492E-27  0.00000E+00  8.2E-04
   4.50000E+08  6.08175E-19  1.54469E-27  4.63021E-27  0.00000E+00  1.0E+00
   5.00000E+08  6.07664E-19  1.25184E-27  3.75300E-27  0.00000E+00  1.0E+00
   6.00000E+08  6.06371E-19  8.70023E-28  2.60885E-27  0.00000E+00  1.0E+00
   7.00000E+08  6.04546E-19  6.39594E-28  1.91812E-27  0.00000E+00  1.0E+00
   8.00000E+08  6.02059E-19  4.89936E-28  1.46942E-27  0.00000E+00  1.0E+00
   9.00000E+08  5.98782E-19  3.87286E-28  1.16162E-27  0.00000E+00  1.0E+00
   1.00000E+09  5.94621E-19  3.13827E-28  9.41321E-28  0.00000E+00  1.0E+00
