 #
 # Subroutine ELSEPA. Elastic scattering of electrons and positrons
 #                    by neutral atoms and positive ions
 #
 # Projectile: positron
 # Kinetic energy = 3.00000E+08 eV = 1.10248E+07 a.u.
 #
 # WARNING: High-energy factorization with free-atom DF screening.
 #          Absorption, polarization and exchange corrections are
 #          switched off.
 #          Phase shifts are calculated for the bare nucleus.
 #          Scattering amplitudes are not evaluated.
 #
 # Element: Pb,  Z =  82,  atomic weight = 2.07200E+02 g/mol
 #
 # Nuclear model: Fermi distribution
 #                Average radius = 6.33160E-13 cm
 #                Skin thickness = 5.46000E-14 cm
 #
 # Number of electrons = 82
 #
 # Total elastic cross section = 8.60485E-18 cm**2 = 3.07285E-01 a0**2
 # 1st transport cross section = 1.38121E-25 cm**2 = 4.93239E-09 a0**2
 # 2nd transport cross section = 4.13900E-25 cm**2 = 1.47806E-08 a0**2
 #
 #
 # Differential cross section:                       MU=(1-COS(THETA))/2
 #
 #  THETA        MU          DCS          DCS        Sherman      error
 #  (deg)                 (cm**2/sr)   (a0**2/sr)    function
 #----------------------------------------------------------------------
0.00000E+00 5.58587E-09
7.61557E-13 5.46170E-09
1.18994E-12 5.39410E-09
1.71346E-12 5.31353E-09
2.33225E-12 5.22109E-09
3.04617E-12 5.11764E-09
3.85530E-12 5.00550E-09
4.75964E-12 4.88469E-09
5.75917E-12 4.75813E-09
6.85391E-12 4.62523E-09
8.04379E-12 4.48921E-09
9.32893E-12 4.34971E-09
1.07092E-11 4.20901E-09
1.21847E-11 4.06750E-09
1.37554E-11 3.92619E-09
1.54213E-11 3.78639E-09
1.71823E-11 3.64773E-09
1.90386E-11 3.51246E-09
2.09900E-11 3.37888E-09
2.30367E-11 3.24984E-09
2.51785E-11 3.12326E-09
2.74156E-11 3.00147E-09
2.97478E-11 2.88314E-09
3.21752E-11 2.76931E-09
3.46979E-11 2.65964E-09
3.73157E-11 2.55404E-09
4.00286E-11 2.45307E-09
4.28368E-11 2.35566E-09
4.57402E-11 2.26313E-09
4.87388E-11 2.17362E-09
5.18325E-11 2.08882E-09
5.50215E-11 2.00708E-09
5.83057E-11 1.92945E-09
6.16850E-11 1.85501E-09
6.51595E-11 1.78403E-09
6.87293E-11 1.71630E-09
7.23943E-11 1.65144E-09
7.61544E-11 1.58982E-09
1.18991E-10 1.10396E-09
1.71347E-10 7.89500E-10
2.33223E-10 5.78494E-10
3.04617E-10 4.27030E-10
3.85531E-10 3.27777E-10
4.75965E-10 2.51516E-10
5.75917E-10 1.98586E-10
6.85389E-10 1.56664E-10
8.04380E-10 1.26349E-10
9.32891E-10 1.02499E-10
1.07092E-09 8.43593E-11
1.21847E-09 7.00296E-11
1.37554E-09 5.86849E-11
1.54213E-09 4.96370E-11
1.71823E-09 4.22271E-11
1.90386E-09 3.62557E-11
2.09900E-09 3.12199E-11
2.30367E-09 2.71083E-11
2.51785E-09 2.35866E-11
2.74156E-09 2.06546E-11
2.97478E-09 1.81346E-11
3.21752E-09 1.59927E-11
3.46978E-09 1.41485E-11
3.73156E-09 1.25542E-11
4.00286E-09 1.11800E-11
4.28368E-09 9.97584E-12
4.57402E-09 8.93637E-12
4.87388E-09 8.01587E-12
5.18326E-09 7.21698E-12
5.50215E-09 6.50843E-12
5.83057E-09 5.88810E-12
6.16850E-09 5.33899E-12
6.51596E-09 4.85147E-12
6.87293E-09 4.41666E-12
7.23942E-09 4.02954E-12
7.61544E-09 3.68515E-12
1.18991E-08 1.67110E-12
1.71347E-08 8.69568E-13
2.33223E-08 4.97479E-13
3.04617E-08 3.04863E-13
3.85531E-08 1.97124E-13
4.75965E-08 1.33134E-13
5.75917E-08 9.31541E-14
6.85389E-08 6.70728E-14
8.04380E-08 4.95165E-14
9.32891E-08 3.73361E-14
1.07092E-07 2.86746E-14
1.21847E-07 2.23875E-14
1.37554E-07 1.77311E-14
1.54213E-07 1.42262E-14
1.71823E-07 1.15479E-14
1.90386E-07 9.47107E-15
2.09900E-07 7.84186E-15
2.30367E-07 6.54881E-15
2.51785E-07 5.51159E-15
2.74156E-07 4.67211E-15
2.97478E-07 3.98643E-15
3.21752E-07 3.42200E-15
3.46978E-07 2.95406E-15
3.73156E-07 2.56323E-15
4.00286E-07 2.23493E-15
4.28368E-07 1.95749E-15
4.57402E-07 1.72169E-15
4.87388E-07 1.52033E-15
5.18325E-07 1.34751E-15
5.50215E-07 1.19851E-15
5.83057E-07 1.06954E-15
6.16850E-07 9.57415E-16
6.51596E-07 8.59591E-16
6.87293E-07 7.73938E-16
7.23942E-07 6.98670E-16
7.61543E-07 6.32330E-16
1.18991E-06 2.61959E-16
1.71347E-06 1.27278E-16
2.33223E-06 6.90766E-17
3.04617E-06 4.06592E-17
3.85531E-06 2.54648E-17
4.75964E-06 1.67497E-17
5.75916E-06 1.14631E-17
6.85388E-06 8.10659E-18
8.04378E-06 5.89309E-18
9.32888E-06 4.38582E-18
1.07092E-05 3.33088E-18
1.21846E-05 2.57475E-18
1.37553E-05 2.02142E-18
1.54212E-05 1.60899E-18
1.71822E-05 1.29652E-18
1.90385E-05 1.05565E-18
2.09899E-05 8.69331E-19
2.30365E-05 7.22198E-19
2.51783E-05 6.04706E-19
2.74153E-05 5.10002E-19
2.97475E-05 4.33052E-19
3.21749E-05 3.70070E-19
3.46974E-05 3.18160E-19
3.73152E-05 2.75077E-19
4.00281E-05 2.39073E-19
4.28362E-05 2.08781E-19
4.57395E-05 1.83134E-19
4.87380E-05 1.61295E-19
5.18317E-05 1.42603E-19
5.50205E-05 1.26533E-19
5.83045E-05 1.12660E-19
6.16838E-05 1.00637E-19
6.51582E-05 9.01781E-20
6.87277E-05 8.10454E-20
7.23925E-05 7.30412E-20
7.61524E-05 6.62961E-20
9.21439E-05 4.53028E-20
1.09658E-04 3.20000E-20
1.28695E-04 2.32436E-20
1.49255E-04 1.72877E-20
1.71338E-04 1.31237E-20
1.94942E-04 1.01413E-20
2.20070E-04 7.95997E-21
2.46720E-04 6.33479E-21
2.74892E-04 5.10395E-21
3.04586E-04 4.15807E-21
3.35803E-04 3.42092E-21
3.68542E-04 2.83989E-21
4.02802E-04 2.37692E-21
4.38585E-04 2.00436E-21
4.75889E-04 1.70181E-21
5.14715E-04 1.45408E-21
5.55063E-04 1.24964E-21
5.96931E-04 1.07974E-21
6.40321E-04 9.37609E-22
6.85233E-04 8.17971E-22
7.31665E-04 7.16696E-22
7.79618E-04 6.30499E-22
8.29092E-04 5.56773E-22
8.80086E-04 4.93413E-22
9.32601E-04 4.38723E-22
9.86636E-04 3.91320E-22
1.04219E-03 3.50070E-22
1.09927E-03 3.14043E-22
1.15786E-03 2.82467E-22
1.21797E-03 2.54700E-22
1.27961E-03 2.30206E-22
1.34276E-03 2.08535E-22
1.40743E-03 1.89306E-22
1.47362E-03 1.72198E-22
1.54133E-03 1.56938E-22
1.61056E-03 1.43294E-22
1.68131E-03 1.31064E-22
1.75357E-03 1.20079E-22
1.82735E-03 1.10190E-22
1.90265E-03 1.01270E-22
1.97947E-03 9.32077E-23
2.05780E-03 8.59072E-23
2.13765E-03 7.92845E-23
2.21902E-03 7.32662E-23
2.30190E-03 6.77882E-23
2.38630E-03 6.27938E-23
2.47222E-03 5.82335E-23
2.55965E-03 5.40632E-23
2.64859E-03 5.02443E-23
2.73905E-03 4.67423E-23
2.83103E-03 4.35265E-23
2.92452E-03 4.05700E-23
3.01952E-03 3.78484E-23
3.11604E-03 3.53400E-23
3.21407E-03 3.30255E-23
3.31362E-03 3.08876E-23
3.41468E-03 2.89106E-23
3.51725E-03 2.70805E-23
3.62133E-03 2.53847E-23
3.72692E-03 2.38119E-23
3.83403E-03 2.23517E-23
3.94265E-03 2.09948E-23
4.05278E-03 1.97328E-23
4.16442E-03 1.85581E-23
4.27757E-03 1.74637E-23
4.39223E-03 1.64433E-23
4.50840E-03 1.54912E-23
4.62608E-03 1.46020E-23
4.74527E-03 1.37712E-23
4.86597E-03 1.29941E-23
4.98817E-03 1.22670E-23
5.11188E-03 1.15861E-23
5.23711E-03 1.09480E-23
5.36383E-03 1.03497E-23
5.49207E-03 9.78832E-24
5.62181E-03 9.26132E-24
5.75306E-03 8.76628E-24
5.88581E-03 8.30100E-24
6.02007E-03 7.86344E-24
6.15583E-03 7.45174E-24
6.29310E-03 7.06415E-24
6.43187E-03 6.69909E-24
6.57214E-03 6.35507E-24
6.71392E-03 6.03073E-24
6.85720E-03 5.72479E-24
7.00198E-03 5.43607E-24
7.14827E-03 5.16350E-24
7.29605E-03 4.90604E-24
7.44534E-03 4.66277E-24
7.59612E-03 4.43279E-24
7.97965E-03 3.91086E-24
8.37255E-03 3.45585E-24
8.77480E-03 3.05828E-24
9.18641E-03 2.71017E-24
9.60736E-03 2.40476E-24
1.00376E-02 2.13631E-24
1.04773E-02 1.89993E-24
1.09262E-02 1.69145E-24
1.13844E-02 1.50729E-24
1.18520E-02 1.34438E-24
1.23288E-02 1.20007E-24
1.28150E-02 1.07207E-24
1.33104E-02 9.58401E-25
1.38150E-02 8.57348E-25
1.43290E-02 7.67415E-25
1.48521E-02 6.87300E-25
1.53845E-02 6.15865E-25
1.59262E-02 5.52115E-25
1.64770E-02 4.95177E-25
1.70371E-02 4.44287E-25
1.76063E-02 3.98769E-25
1.81848E-02 3.58032E-25
1.87724E-02 3.21551E-25
1.93692E-02 2.88863E-25
1.99751E-02 2.59560E-25
2.05901E-02 2.33279E-25
2.12143E-02 2.09699E-25
2.18476E-02 1.88534E-25
2.24900E-02 1.69530E-25
2.31415E-02 1.52461E-25
2.38021E-02 1.37126E-25
2.44717E-02 1.23346E-25
2.51504E-02 1.10960E-25
2.58382E-02 9.98248E-26
2.65349E-02 8.98135E-26
2.72407E-02 8.08111E-26
2.79555E-02 7.27151E-26
2.86793E-02 6.54338E-26
2.94120E-02 5.88848E-26
3.01537E-02 5.29943E-26
3.09043E-02 4.76960E-26
3.16639E-02 4.29305E-26
3.24324E-02 3.86443E-26
3.32098E-02 3.47894E-26
3.39961E-02 3.13225E-26
3.47912E-02 2.82048E-26
3.55952E-02 2.54014E-26
3.64081E-02 2.28807E-26
3.72297E-02 2.06146E-26
3.80602E-02 1.85774E-26
3.88995E-02 1.67463E-26
3.97476E-02 1.51005E-26
4.06044E-02 1.36215E-26
4.14700E-02 1.22924E-26
4.23443E-02 1.10982E-26
4.32273E-02 1.00252E-26
4.41190E-02 9.06123E-27
4.50194E-02 8.19519E-27
4.59284E-02 7.41715E-27
4.68461E-02 6.71815E-27
4.87074E-02 5.52584E-27
5.06030E-02 4.56294E-27
5.25328E-02 3.78465E-27
5.44967E-02 3.15477E-27
5.64946E-02 2.64403E-27
5.85262E-02 2.22885E-27
6.05914E-02 1.89024E-27
6.26901E-02 1.61296E-27
6.48222E-02 1.38476E-27
6.69873E-02 1.19587E-27
6.91854E-02 1.03848E-27
7.14163E-02 9.06396E-28
7.36799E-02 7.94668E-28
7.59760E-02 6.99395E-28
7.83043E-02 6.17486E-28
8.06647E-02 5.46503E-28
8.30571E-02 4.84524E-28
8.54812E-02 4.30036E-28
8.79369E-02 3.81843E-28
9.04240E-02 3.39002E-28
9.29422E-02 3.00764E-28
9.54915E-02 2.66530E-28
9.80716E-02 2.35818E-28
1.00682E-01 2.08233E-28
1.03323E-01 1.83451E-28
1.05995E-01 1.61197E-28
1.08696E-01 1.41236E-28
1.11427E-01 1.23363E-28
1.14188E-01 1.07397E-28
1.16978E-01 9.31721E-29
1.19797E-01 8.05390E-29
1.22645E-01 6.93586E-29
1.25522E-01 5.95017E-29
1.28428E-01 5.08472E-29
1.31361E-01 4.32820E-29
1.34323E-01 3.66998E-29
1.37313E-01 3.10010E-29
1.40330E-01 2.60926E-29
1.43375E-01 2.18880E-29
1.46447E-01 1.83069E-29
1.49545E-01 1.52750E-29
1.52671E-01 1.27242E-29
1.55823E-01 1.05923E-29
1.59001E-01 8.82275E-30
1.62205E-01 7.36452E-30
1.65435E-01 6.17182E-30
1.68690E-01 5.20381E-30
1.71970E-01 4.42436E-30
1.75276E-01 3.80170E-30
1.78606E-01 3.30809E-30
1.81961E-01 2.91953E-30
1.85340E-01 2.61541E-30
1.88743E-01 2.37818E-30
1.92169E-01 2.19307E-30
1.95619E-01 2.04777E-30
1.99092E-01 1.93212E-30
2.02589E-01 1.83790E-30
2.06107E-01 1.75852E-30
2.09649E-01 1.68882E-30
2.13212E-01 1.62486E-30
2.16797E-01 1.56372E-30
2.20404E-01 1.50330E-30
2.24032E-01 1.44224E-30
2.27680E-01 1.37969E-30
2.31350E-01 1.31527E-30
2.35040E-01 1.24894E-30
2.38751E-01 1.18089E-30
2.42481E-01 1.11150E-30
2.46231E-01 1.04128E-30
2.50000E-01 9.70777E-31
2.53788E-01 9.00586E-31
2.57595E-01 8.31291E-31
2.61421E-01 7.63447E-31
2.65264E-01 6.97560E-31
2.69126E-01 6.34081E-31
2.73005E-01 5.73393E-31
2.76901E-01 5.15809E-31
2.80814E-01 4.61572E-31
2.84744E-01 4.10856E-31
2.88691E-01 3.63770E-31
2.92653E-01 3.20362E-31
2.96632E-01 2.80625E-31
3.00625E-01 2.44507E-31
3.04634E-01 2.11910E-31
3.08658E-01 1.82705E-31
3.12697E-01 1.56732E-31
3.16749E-01 1.33810E-31
3.20816E-01 1.13742E-31
3.24896E-01 9.63183E-32
3.28990E-01 8.13255E-32
3.33097E-01 6.85466E-32
3.37216E-01 5.77666E-32
3.41348E-01 4.87753E-32
3.45492E-01 4.13701E-32
3.49647E-01 3.53576E-32
3.53814E-01 3.05554E-32
3.57992E-01 2.67935E-32
3.62181E-01 2.39148E-32
3.66381E-01 2.17755E-32
3.70590E-01 2.02456E-32
3.74810E-01 1.92084E-32
3.79039E-01 1.85604E-32
3.83277E-01 1.82108E-32
3.87524E-01 1.80807E-32
3.91780E-01 1.81029E-32
3.96044E-01 1.82202E-32
4.00316E-01 1.83855E-32
4.04596E-01 1.85602E-32
4.08882E-01 1.87139E-32
4.13176E-01 1.88230E-32
4.17476E-01 1.88702E-32
4.21783E-01 1.88437E-32
4.26095E-01 1.87362E-32
4.30413E-01 1.85443E-32
4.34737E-01 1.82681E-32
4.39065E-01 1.79100E-32
4.43398E-01 1.74748E-32
4.47736E-01 1.69686E-32
4.52077E-01 1.63991E-32
4.56422E-01 1.57744E-32
4.60770E-01 1.51032E-32
4.65122E-01 1.43945E-32
4.69476E-01 1.36570E-32
4.73832E-01 1.28995E-32
4.78190E-01 1.21302E-32
4.82550E-01 1.13567E-32
4.86912E-01 1.05863E-32
4.91274E-01 9.82522E-33
4.95637E-01 9.07938E-33
5.00000E-01 8.35376E-33
5.04363E-01 7.65268E-33
5.08726E-01 6.97976E-33
5.13088E-01 6.33793E-33
5.17450E-01 5.72947E-33
5.21810E-01 5.15604E-33
5.26168E-01 4.61877E-33
5.30524E-01 4.11825E-33
5.34878E-01 3.65462E-33
5.39230E-01 3.22763E-33
5.43578E-01 2.83663E-33
5.47923E-01 2.48070E-33
5.52264E-01 2.15865E-33
5.56602E-01 1.86906E-33
5.60935E-01 1.61037E-33
5.65263E-01 1.38086E-33
5.69587E-01 1.17874E-33
5.73905E-01 1.00214E-33
5.78217E-01 8.49178E-34
5.82524E-01 7.17952E-34
5.86824E-01 6.06583E-34
5.91118E-01 5.13234E-34
5.95404E-01 4.36113E-34
5.99684E-01 3.73503E-34
6.03956E-01 3.23763E-34
6.08220E-01 2.85339E-34
6.12476E-01 2.56769E-34
6.16723E-01 2.36694E-34
6.20961E-01 2.23848E-34
6.25190E-01 2.17072E-34
6.29410E-01 2.15304E-34
6.33619E-01 2.17583E-34
6.37819E-01 2.23044E-34
6.42008E-01 2.30915E-34
6.46186E-01 2.40512E-34
6.50353E-01 2.51239E-34
6.54508E-01 2.62573E-34
6.58652E-01 2.74072E-34
6.62784E-01 2.85358E-34
6.66903E-01 2.96120E-34
6.71010E-01 3.06102E-34
6.75104E-01 3.15102E-34
6.79184E-01 3.22965E-34
6.83251E-01 3.29578E-34
6.87303E-01 3.34866E-34
6.91342E-01 3.38787E-34
6.95366E-01 3.41327E-34
6.99375E-01 3.42496E-34
7.03368E-01 3.42324E-34
7.07347E-01 3.40862E-34
7.11309E-01 3.38169E-34
7.15256E-01 3.34321E-34
7.19186E-01 3.29398E-34
7.23099E-01 3.23490E-34
7.26995E-01 3.16688E-34
7.30874E-01 3.09085E-34
7.34736E-01 3.00779E-34
7.38579E-01 2.91862E-34
7.42405E-01 2.82429E-34
7.46212E-01 2.72567E-34
7.50000E-01 2.62366E-34
7.53769E-01 2.51905E-34
7.57519E-01 2.41263E-34
7.61249E-01 2.30512E-34
7.64960E-01 2.19719E-34
7.68650E-01 2.08946E-34
7.72320E-01 1.98250E-34
7.75968E-01 1.87681E-34
7.79596E-01 1.77284E-34
7.83203E-01 1.67099E-34
7.86788E-01 1.57161E-34
7.90351E-01 1.47501E-34
7.93893E-01 1.38142E-34
7.97411E-01 1.29107E-34
8.00908E-01 1.20411E-34
8.04381E-01 1.12068E-34
8.07831E-01 1.04088E-34
8.11257E-01 9.64756E-35
8.14660E-01 8.92352E-35
8.18039E-01 8.23660E-35
8.21394E-01 7.58670E-35
8.24724E-01 6.97338E-35
8.28030E-01 6.39602E-35
8.31310E-01 5.85393E-35
8.34565E-01 5.34615E-35
8.37795E-01 4.87171E-35
8.40999E-01 4.42946E-35
8.44177E-01 4.01832E-35
8.47329E-01 3.63688E-35
8.50455E-01 3.28393E-35
8.53553E-01 2.95811E-35
8.56625E-01 2.65812E-35
8.59670E-01 2.38258E-35
8.62687E-01 2.13015E-35
8.65677E-01 1.89945E-35
8.68639E-01 1.68920E-35
8.71572E-01 1.49810E-35
8.74478E-01 1.32492E-35
8.77355E-01 1.16840E-35
8.80203E-01 1.02734E-35
8.83022E-01 9.00664E-36
8.85812E-01 7.87245E-36
8.88573E-01 6.86056E-36
8.91304E-01 5.96089E-36
8.94005E-01 5.16432E-36
8.96677E-01 4.46185E-36
8.99318E-01 3.84494E-36
9.01928E-01 3.30600E-36
9.04508E-01 2.83747E-36
9.07058E-01 2.43251E-36
9.09576E-01 2.08468E-36
9.12063E-01 1.78805E-36
9.14519E-01 1.53709E-36
9.16943E-01 1.32664E-36
9.19335E-01 1.15203E-36
9.21696E-01 1.00893E-36
9.24024E-01 8.93418E-37
9.26320E-01 8.01858E-37
9.28584E-01 7.30979E-37
9.30815E-01 6.77811E-37
9.33013E-01 6.39668E-37
9.35178E-01 6.14120E-37
9.37310E-01 5.99024E-37
9.39409E-01 5.92425E-37
9.41474E-01 5.92610E-37
9.43505E-01 5.98070E-37
9.45503E-01 6.07450E-37
9.47467E-01 6.19620E-37
9.49397E-01 6.33527E-37
9.51293E-01 6.48330E-37
9.53154E-01 6.63277E-37
9.54981E-01 6.77782E-37
9.56773E-01 6.91228E-37
9.58530E-01 7.03323E-37
9.60252E-01 7.13614E-37
9.61940E-01 7.21845E-37
9.63592E-01 7.27923E-37
9.65209E-01 7.31560E-37
9.66790E-01 7.32786E-37
9.68336E-01 7.31552E-37
9.69846E-01 7.27761E-37
9.71321E-01 7.21586E-37
9.72759E-01 7.12965E-37
9.74162E-01 7.02090E-37
9.75528E-01 6.88942E-37
9.76858E-01 6.73794E-37
9.78152E-01 6.56755E-37
9.79410E-01 6.37942E-37
9.80631E-01 6.17467E-37
9.81815E-01 5.95544E-37
9.82963E-01 5.72375E-37
9.84074E-01 5.48046E-37
9.85148E-01 5.22862E-37
9.86185E-01 4.96885E-37
9.87185E-01 4.70297E-37
9.88148E-01 4.43357E-37
9.89074E-01 4.16153E-37
9.89962E-01 3.88752E-37
9.90814E-01 3.61444E-37
9.91627E-01 3.34395E-37
9.92404E-01 3.07618E-37
9.93143E-01 2.81379E-37
9.93844E-01 2.55630E-37
9.94508E-01 2.30674E-37
9.95134E-01 2.06539E-37
9.95722E-01 1.83371E-37
9.96273E-01 1.61208E-37
9.96786E-01 1.40230E-37
9.97261E-01 1.20364E-37
9.97698E-01 1.01905E-37
9.98097E-01 8.47991E-38
9.98459E-01 6.90973E-38
9.98782E-01 5.49266E-38
9.99067E-01 4.22592E-38
9.99315E-01 3.12164E-38
9.99524E-01 2.17734E-38
9.99695E-01 1.40391E-38
9.99829E-01 7.98436E-39
9.99924E-01 3.65280E-39
9.99981E-01 1.01617E-39
1.00000E+00 1.57243E-40
