 #
 # Subroutine ELSEPA. Elastic scattering of electrons and positrons
 #                    by neutral atoms and positive ions
 #
 # Projectile: positron
 # Kinetic energy = 5.00000E+06 eV = 1.83747E+05 a.u.
 #
 # WARNING: High-energy factorization with free-atom DF screening.
 #          Absorption, polarization and exchange corrections are
 #          switched off.
 #          Phase shifts are calculated for the bare nucleus.
 #          Scattering amplitudes are not evaluated.
 #
 # Element: Pb,  Z =  82,  atomic weight = 2.07200E+02 g/mol
 #
 # Nuclear model: Fermi distribution
 #                Average radius = 6.33160E-13 cm
 #                Skin thickness = 5.46000E-14 cm
 #
 # Number of electrons = 82
 #
 # Total elastic cross section = 8.68381E-18 cm**2 = 3.10104E-01 a0**2
 # 1st transport cross section = 2.65432E-22 cm**2 = 9.47874E-06 a0**2
 # 2nd transport cross section = 7.62901E-22 cm**2 = 2.72437E-05 a0**2
 #
 #
 # Differential cross section:                       MU=(1-COS(THETA))/2
 #
 #  THETA        MU          DCS          DCS        Sherman      error
 #  (deg)                 (cm**2/sr)   (a0**2/sr)    function
 #----------------------------------------------------------------------
0.00000E+00 1.87859E-12
7.61557E-13 1.87857E-12
1.18994E-12 1.87856E-12
1.71346E-12 1.87855E-12
2.33225E-12 1.87854E-12
3.04617E-12 1.87852E-12
3.85530E-12 1.87851E-12
4.75964E-12 1.87849E-12
5.75917E-12 1.87847E-12
6.85391E-12 1.87845E-12
8.04379E-12 1.87843E-12
9.32893E-12 1.87840E-12
1.07092E-11 1.87838E-12
1.21847E-11 1.87835E-12
1.37554E-11 1.87832E-12
1.54213E-11 1.87829E-12
1.71823E-11 1.87825E-12
1.90386E-11 1.87822E-12
2.09900E-11 1.87818E-12
2.30367E-11 1.87814E-12
2.51785E-11 1.87810E-12
2.74156E-11 1.87806E-12
2.97478E-11 1.87801E-12
3.21752E-11 1.87797E-12
3.46979E-11 1.87792E-12
3.73157E-11 1.87787E-12
4.00286E-11 1.87782E-12
4.28368E-11 1.87777E-12
4.57402E-11 1.87771E-12
4.87388E-11 1.87766E-12
5.18325E-11 1.87760E-12
5.50215E-11 1.87754E-12
5.83057E-11 1.87748E-12
6.16850E-11 1.87741E-12
6.51595E-11 1.87735E-12
6.87293E-11 1.87728E-12
7.23943E-11 1.87721E-12
7.61544E-11 1.87714E-12
1.18991E-10 1.87634E-12
1.71347E-10 1.87536E-12
2.33223E-10 1.87420E-12
3.04617E-10 1.87287E-12
3.85531E-10 1.87137E-12
4.75965E-10 1.86969E-12
5.75917E-10 1.86784E-12
6.85389E-10 1.86582E-12
8.04380E-10 1.86362E-12
9.32891E-10 1.86126E-12
1.07092E-09 1.85873E-12
1.21847E-09 1.85603E-12
1.37554E-09 1.85316E-12
1.54213E-09 1.85014E-12
1.71823E-09 1.84694E-12
1.90386E-09 1.84359E-12
2.09900E-09 1.84008E-12
2.30367E-09 1.83640E-12
2.51785E-09 1.83258E-12
2.74156E-09 1.82859E-12
2.97478E-09 1.82446E-12
3.21752E-09 1.82017E-12
3.46978E-09 1.81574E-12
3.73156E-09 1.81116E-12
4.00286E-09 1.80643E-12
4.28368E-09 1.80157E-12
4.57402E-09 1.79656E-12
4.87388E-09 1.79142E-12
5.18326E-09 1.78614E-12
5.50215E-09 1.78072E-12
5.83057E-09 1.77518E-12
6.16850E-09 1.76951E-12
6.51596E-09 1.76372E-12
6.87293E-09 1.75780E-12
7.23942E-09 1.75176E-12
7.61544E-09 1.74560E-12
1.18991E-08 1.67817E-12
1.71347E-08 1.60198E-12
2.33223E-08 1.51977E-12
3.04617E-08 1.43412E-12
3.85531E-08 1.34728E-12
4.75965E-08 1.26115E-12
5.75917E-08 1.17722E-12
6.85389E-08 1.09657E-12
8.04380E-08 1.01995E-12
9.32891E-08 9.47812E-13
1.07092E-07 8.80378E-13
1.21847E-07 8.17680E-13
1.37554E-07 7.59625E-13
1.54213E-07 7.06028E-13
1.71823E-07 6.56649E-13
1.90386E-07 6.11214E-13
2.09900E-07 5.69438E-13
2.30367E-07 5.31033E-13
2.51785E-07 4.95721E-13
2.74156E-07 4.63237E-13
2.97478E-07 4.33333E-13
3.21752E-07 4.05778E-13
3.46978E-07 3.80363E-13
3.73156E-07 3.56894E-13
4.00286E-07 3.35198E-13
4.28368E-07 3.15115E-13
4.57402E-07 2.96505E-13
4.87388E-07 2.79237E-13
5.18325E-07 2.63195E-13
5.50215E-07 2.48276E-13
5.83057E-07 2.34385E-13
6.16850E-07 2.21436E-13
6.51596E-07 2.09354E-13
6.87293E-07 1.98069E-13
7.23942E-07 1.87517E-13
7.61543E-07 1.77642E-13
1.18991E-06 1.06761E-13
1.71347E-06 6.74629E-14
2.33223E-06 4.45552E-14
3.04617E-06 3.06242E-14
3.85531E-06 2.18013E-14
4.75964E-06 1.59892E-14
5.75916E-06 1.20172E-14
6.85388E-06 9.21348E-15
8.04378E-06 7.17952E-15
9.32888E-06 5.67083E-15
1.07092E-05 4.53168E-15
1.21846E-05 3.65914E-15
1.37553E-05 2.98288E-15
1.54212E-05 2.45339E-15
1.71822E-05 2.03502E-15
1.90385E-05 1.70158E-15
2.09899E-05 1.43372E-15
2.30365E-05 1.21678E-15
2.51783E-05 1.03969E-15
2.74153E-05 8.94026E-16
2.97475E-05 7.73323E-16
3.21749E-05 6.72589E-16
3.46974E-05 5.87951E-16
3.73152E-05 5.16382E-16
4.00281E-05 4.55500E-16
4.28362E-05 4.03418E-16
4.57395E-05 3.58631E-16
4.87380E-05 3.19932E-16
5.18317E-05 2.86341E-16
5.50205E-05 2.57062E-16
5.83045E-05 2.31442E-16
6.16838E-05 2.08943E-16
6.51582E-05 1.89117E-16
6.87277E-05 1.71590E-16
7.23925E-05 1.56049E-16
7.61524E-05 1.42230E-16
9.21439E-05 1.00154E-16
1.09658E-04 7.25568E-17
1.28695E-04 5.38478E-17
1.49255E-04 4.07985E-17
1.71338E-04 3.14703E-17
1.94942E-04 2.46578E-17
2.20070E-04 1.95888E-17
2.46720E-04 1.57547E-17
2.74892E-04 1.28120E-17
3.04586E-04 1.05238E-17
3.35803E-04 8.72346E-18
3.68542E-04 7.29165E-18
4.02802E-04 6.14165E-18
4.38585E-04 5.20957E-18
4.75889E-04 4.44776E-18
5.14715E-04 3.82023E-18
5.55063E-04 3.29956E-18
5.96931E-04 2.86464E-18
6.40321E-04 2.49905E-18
6.85233E-04 2.18992E-18
7.31665E-04 1.92711E-18
7.79618E-04 1.70251E-18
8.29092E-04 1.50965E-18
8.80086E-04 1.34328E-18
9.32601E-04 1.19916E-18
9.86636E-04 1.07381E-18
1.04219E-03 9.64365E-19
1.09927E-03 8.68472E-19
1.15786E-03 7.84165E-19
1.21797E-03 7.09807E-19
1.27961E-03 6.44024E-19
1.34276E-03 5.85657E-19
1.40743E-03 5.33727E-19
1.47362E-03 4.87403E-19
1.54133E-03 4.45976E-19
1.61056E-03 4.08840E-19
1.68131E-03 3.75472E-19
1.75357E-03 3.45425E-19
1.82735E-03 3.18311E-19
1.90265E-03 2.93795E-19
1.97947E-03 2.71583E-19
2.05780E-03 2.51423E-19
2.13765E-03 2.33090E-19
2.21902E-03 2.16391E-19
2.30190E-03 2.01155E-19
2.38630E-03 1.87230E-19
2.47222E-03 1.74485E-19
2.55965E-03 1.62801E-19
2.64859E-03 1.52075E-19
2.73905E-03 1.42214E-19
2.83103E-03 1.33136E-19
2.92452E-03 1.24769E-19
3.01952E-03 1.17045E-19
3.11604E-03 1.09907E-19
3.21407E-03 1.03304E-19
3.31362E-03 9.71861E-20
3.41468E-03 9.15130E-20
3.51725E-03 8.62461E-20
3.62133E-03 8.13511E-20
3.72692E-03 7.67971E-20
3.83403E-03 7.25559E-20
3.94265E-03 6.86022E-20
4.05278E-03 6.49130E-20
4.16442E-03 6.14675E-20
4.27757E-03 5.82465E-20
4.39223E-03 5.52328E-20
4.50840E-03 5.24107E-20
4.62608E-03 4.97657E-20
4.74527E-03 4.72847E-20
4.86597E-03 4.49557E-20
4.98817E-03 4.27677E-20
5.11188E-03 4.07105E-20
5.23711E-03 3.87750E-20
5.36383E-03 3.69526E-20
5.49207E-03 3.52355E-20
5.62181E-03 3.36165E-20
5.75306E-03 3.20889E-20
5.88581E-03 3.06467E-20
6.02007E-03 2.92842E-20
6.15583E-03 2.79962E-20
6.29310E-03 2.67778E-20
6.43187E-03 2.56247E-20
6.57214E-03 2.45326E-20
6.71392E-03 2.34978E-20
6.85720E-03 2.25167E-20
7.00198E-03 2.15859E-20
7.14827E-03 2.07025E-20
7.29605E-03 1.98635E-20
7.44534E-03 1.90664E-20
7.59612E-03 1.83087E-20
7.97965E-03 1.65717E-20
8.37255E-03 1.50347E-20
8.77480E-03 1.36709E-20
9.18641E-03 1.24573E-20
9.60736E-03 1.13746E-20
1.00376E-02 1.04063E-20
1.04773E-02 9.53820E-21
1.09262E-02 8.75816E-21
1.13844E-02 8.05572E-21
1.18520E-02 7.42182E-21
1.23288E-02 6.84862E-21
1.28150E-02 6.32930E-21
1.33104E-02 5.85792E-21
1.38150E-02 5.42929E-21
1.43290E-02 5.03884E-21
1.48521E-02 4.68260E-21
1.53845E-02 4.35703E-21
1.59262E-02 4.05905E-21
1.64770E-02 3.78589E-21
1.70371E-02 3.53513E-21
1.76063E-02 3.30462E-21
1.81848E-02 3.09243E-21
1.87724E-02 2.89684E-21
1.93692E-02 2.71634E-21
1.99751E-02 2.54955E-21
2.05901E-02 2.39525E-21
2.12143E-02 2.25233E-21
2.18476E-02 2.11982E-21
2.24900E-02 1.99681E-21
2.31415E-02 1.88251E-21
2.38021E-02 1.77619E-21
2.44717E-02 1.67719E-21
2.51504E-02 1.58493E-21
2.58382E-02 1.49886E-21
2.65349E-02 1.41848E-21
2.72407E-02 1.34337E-21
2.79555E-02 1.27311E-21
2.86793E-02 1.20734E-21
2.94120E-02 1.14571E-21
3.01537E-02 1.08791E-21
3.09043E-02 1.03368E-21
3.16639E-02 9.82746E-22
3.24324E-02 9.34873E-22
3.32098E-02 8.89846E-22
3.39961E-02 8.47466E-22
3.47912E-02 8.07548E-22
3.55952E-02 7.69925E-22
3.64081E-02 7.34441E-22
3.72297E-02 7.00952E-22
3.80602E-02 6.69327E-22
3.88995E-02 6.39442E-22
3.97476E-02 6.11186E-22
4.06044E-02 5.84454E-22
4.14700E-02 5.59148E-22
4.23443E-02 5.35179E-22
4.32273E-02 5.12464E-22
4.41190E-02 4.90925E-22
4.50194E-02 4.70491E-22
4.59284E-02 4.51095E-22
4.68461E-02 4.32674E-22
4.87074E-02 3.98531E-22
5.06030E-02 3.67645E-22
5.25328E-02 3.39654E-22
5.44967E-02 3.14241E-22
5.64946E-02 2.91126E-22
5.85262E-02 2.70068E-22
6.05914E-02 2.50853E-22
6.26901E-02 2.33290E-22
6.48222E-02 2.17215E-22
6.69873E-02 2.02480E-22
6.91854E-02 1.88954E-22
7.14163E-02 1.76521E-22
7.36799E-02 1.65077E-22
7.59760E-02 1.54530E-22
7.83043E-02 1.44799E-22
8.06647E-02 1.35808E-22
8.30571E-02 1.27493E-22
8.54812E-02 1.19793E-22
8.79369E-02 1.12655E-22
9.04240E-02 1.06032E-22
9.29422E-02 9.98794E-23
9.54915E-02 9.41585E-23
9.80716E-02 8.88333E-23
1.00682E-01 8.38723E-23
1.03323E-01 7.92459E-23
1.05995E-01 7.49279E-23
1.08696E-01 7.08940E-23
1.11427E-01 6.71225E-23
1.14188E-01 6.35933E-23
1.16978E-01 6.02881E-23
1.19797E-01 5.71903E-23
1.22645E-01 5.42846E-23
1.25522E-01 5.15570E-23
1.28428E-01 4.89948E-23
1.31361E-01 4.65861E-23
1.34323E-01 4.43203E-23
1.37313E-01 4.21874E-23
1.40330E-01 4.01782E-23
1.43375E-01 3.82843E-23
1.46447E-01 3.64979E-23
1.49545E-01 3.48120E-23
1.52671E-01 3.32198E-23
1.55823E-01 3.17153E-23
1.59001E-01 3.02928E-23
1.62205E-01 2.89471E-23
1.65435E-01 2.76733E-23
1.68690E-01 2.64669E-23
1.71970E-01 2.53237E-23
1.75276E-01 2.42398E-23
1.78606E-01 2.32117E-23
1.81961E-01 2.22359E-23
1.85340E-01 2.13094E-23
1.88743E-01 2.04292E-23
1.92169E-01 1.95926E-23
1.95619E-01 1.87971E-23
1.99092E-01 1.80403E-23
2.02589E-01 1.73200E-23
2.06107E-01 1.66342E-23
2.09649E-01 1.59809E-23
2.13212E-01 1.53583E-23
2.16797E-01 1.47647E-23
2.20404E-01 1.41985E-23
2.24032E-01 1.36582E-23
2.27680E-01 1.31426E-23
2.31350E-01 1.26502E-23
2.35040E-01 1.21797E-23
2.38751E-01 1.17302E-23
2.42481E-01 1.13004E-23
2.46231E-01 1.08894E-23
2.50000E-01 1.04962E-23
2.53788E-01 1.01199E-23
2.57595E-01 9.75968E-24
2.61421E-01 9.41468E-24
2.65264E-01 9.08417E-24
2.69126E-01 8.76743E-24
2.73005E-01 8.46379E-24
2.76901E-01 8.17263E-24
2.80814E-01 7.89335E-24
2.84744E-01 7.62538E-24
2.88691E-01 7.36817E-24
2.92653E-01 7.12123E-24
2.96632E-01 6.88407E-24
3.00625E-01 6.65624E-24
3.04634E-01 6.43730E-24
3.08658E-01 6.22687E-24
3.12697E-01 6.02455E-24
3.16749E-01 5.82998E-24
3.20816E-01 5.64281E-24
3.24896E-01 5.46269E-24
3.28990E-01 5.28932E-24
3.33097E-01 5.12241E-24
3.37216E-01 4.96170E-24
3.41348E-01 4.80691E-24
3.45492E-01 4.65778E-24
3.49647E-01 4.51403E-24
3.53814E-01 4.37547E-24
3.57992E-01 4.24189E-24
3.62181E-01 4.11308E-24
3.66381E-01 3.98883E-24
3.70590E-01 3.86895E-24
3.74810E-01 3.75326E-24
3.79039E-01 3.64159E-24
3.83277E-01 3.53377E-24
3.87524E-01 3.42967E-24
3.91780E-01 3.32912E-24
3.96044E-01 3.23199E-24
4.00316E-01 3.13813E-24
4.04596E-01 3.04742E-24
4.08882E-01 2.95974E-24
4.13176E-01 2.87496E-24
4.17476E-01 2.79299E-24
4.21783E-01 2.71370E-24
4.26095E-01 2.63700E-24
4.30413E-01 2.56278E-24
4.34737E-01 2.49096E-24
4.39065E-01 2.42144E-24
4.43398E-01 2.35414E-24
4.47736E-01 2.28898E-24
4.52077E-01 2.22587E-24
4.56422E-01 2.16474E-24
4.60770E-01 2.10553E-24
4.65122E-01 2.04815E-24
4.69476E-01 1.99254E-24
4.73832E-01 1.93865E-24
4.78190E-01 1.88640E-24
4.82550E-01 1.83574E-24
4.86912E-01 1.78662E-24
4.91274E-01 1.73898E-24
4.95637E-01 1.69276E-24
5.00000E-01 1.64792E-24
5.04363E-01 1.60442E-24
5.08726E-01 1.56219E-24
5.13088E-01 1.52121E-24
5.17450E-01 1.48143E-24
5.21810E-01 1.44281E-24
5.26168E-01 1.40530E-24
5.30524E-01 1.36888E-24
5.34878E-01 1.33350E-24
5.39230E-01 1.29913E-24
5.43578E-01 1.26574E-24
5.47923E-01 1.23330E-24
5.52264E-01 1.20177E-24
5.56602E-01 1.17112E-24
5.60935E-01 1.14133E-24
5.65263E-01 1.11237E-24
5.69587E-01 1.08420E-24
5.73905E-01 1.05682E-24
5.78217E-01 1.03019E-24
5.82524E-01 1.00428E-24
5.86824E-01 9.79080E-25
5.91118E-01 9.54561E-25
5.95404E-01 9.30704E-25
5.99684E-01 9.07488E-25
6.03956E-01 8.84892E-25
6.08220E-01 8.62899E-25
6.12476E-01 8.41490E-25
6.16723E-01 8.20647E-25
6.20961E-01 8.00352E-25
6.25190E-01 7.80589E-25
6.29410E-01 7.61342E-25
6.33619E-01 7.42596E-25
6.37819E-01 7.24335E-25
6.42008E-01 7.06547E-25
6.46186E-01 6.89216E-25
6.50353E-01 6.72329E-25
6.54508E-01 6.55873E-25
6.58652E-01 6.39835E-25
6.62784E-01 6.24204E-25
6.66903E-01 6.08967E-25
6.71010E-01 5.94114E-25
6.75104E-01 5.79634E-25
6.79184E-01 5.65515E-25
6.83251E-01 5.51748E-25
6.87303E-01 5.38322E-25
6.91342E-01 5.25229E-25
6.95366E-01 5.12458E-25
6.99375E-01 5.00001E-25
7.03368E-01 4.87849E-25
7.07347E-01 4.75994E-25
7.11309E-01 4.64428E-25
7.15256E-01 4.53142E-25
7.19186E-01 4.42128E-25
7.23099E-01 4.31381E-25
7.26995E-01 4.20892E-25
7.30874E-01 4.10654E-25
7.34736E-01 4.00662E-25
7.38579E-01 3.90907E-25
7.42405E-01 3.81385E-25
7.46212E-01 3.72088E-25
7.50000E-01 3.63010E-25
7.53769E-01 3.54147E-25
7.57519E-01 3.45493E-25
7.61249E-01 3.37042E-25
7.64960E-01 3.28788E-25
7.68650E-01 3.20727E-25
7.72320E-01 3.12854E-25
7.75968E-01 3.05164E-25
7.79596E-01 2.97652E-25
7.83203E-01 2.90315E-25
7.86788E-01 2.83146E-25
7.90351E-01 2.76143E-25
7.93893E-01 2.69301E-25
7.97411E-01 2.62616E-25
8.00908E-01 2.56085E-25
8.04381E-01 2.49703E-25
8.07831E-01 2.43466E-25
8.11257E-01 2.37372E-25
8.14660E-01 2.31417E-25
8.18039E-01 2.25597E-25
8.21394E-01 2.19910E-25
8.24724E-01 2.14351E-25
8.28030E-01 2.08918E-25
8.31310E-01 2.03609E-25
8.34565E-01 1.98419E-25
8.37795E-01 1.93347E-25
8.40999E-01 1.88389E-25
8.44177E-01 1.83543E-25
8.47329E-01 1.78807E-25
8.50455E-01 1.74177E-25
8.53553E-01 1.69651E-25
8.56625E-01 1.65228E-25
8.59670E-01 1.60904E-25
8.62687E-01 1.56678E-25
8.65677E-01 1.52547E-25
8.68639E-01 1.48509E-25
8.71572E-01 1.44562E-25
8.74478E-01 1.40704E-25
8.77355E-01 1.36933E-25
8.80203E-01 1.33248E-25
8.83022E-01 1.29646E-25
8.85812E-01 1.26125E-25
8.88573E-01 1.22684E-25
8.91304E-01 1.19322E-25
8.94005E-01 1.16036E-25
8.96677E-01 1.12825E-25
8.99318E-01 1.09687E-25
9.01928E-01 1.06621E-25
9.04508E-01 1.03625E-25
9.07058E-01 1.00698E-25
9.09576E-01 9.78383E-26
9.12063E-01 9.50449E-26
9.14519E-01 9.23164E-26
9.16943E-01 8.96516E-26
9.19335E-01 8.70491E-26
9.21696E-01 8.45078E-26
9.24024E-01 8.20266E-26
9.26320E-01 7.96041E-26
9.28584E-01 7.72395E-26
9.30815E-01 7.49315E-26
9.33013E-01 7.26791E-26
9.35178E-01 7.04813E-26
9.37310E-01 6.83371E-26
9.39409E-01 6.62455E-26
9.41474E-01 6.42057E-26
9.43505E-01 6.22166E-26
9.45503E-01 6.02774E-26
9.47467E-01 5.83873E-26
9.49397E-01 5.65454E-26
9.51293E-01 5.47509E-26
9.53154E-01 5.30031E-26
9.54981E-01 5.13011E-26
9.56773E-01 4.96442E-26
9.58530E-01 4.80316E-26
9.60252E-01 4.64628E-26
9.61940E-01 4.49370E-26
9.63592E-01 4.34536E-26
9.65209E-01 4.20119E-26
9.66790E-01 4.06114E-26
9.68336E-01 3.92513E-26
9.69846E-01 3.79312E-26
9.71321E-01 3.66505E-26
9.72759E-01 3.54086E-26
9.74162E-01 3.42050E-26
9.75528E-01 3.30393E-26
9.76858E-01 3.19108E-26
9.78152E-01 3.08193E-26
9.79410E-01 2.97641E-26
9.80631E-01 2.87449E-26
9.81815E-01 2.77612E-26
9.82963E-01 2.68127E-26
9.84074E-01 2.58989E-26
9.85148E-01 2.50195E-26
9.86185E-01 2.41741E-26
9.87185E-01 2.33623E-26
9.88148E-01 2.25838E-26
9.89074E-01 2.18384E-26
9.89962E-01 2.11257E-26
9.90814E-01 2.04453E-26
9.91627E-01 1.97971E-26
9.92404E-01 1.91808E-26
9.93143E-01 1.85961E-26
9.93844E-01 1.80428E-26
9.94508E-01 1.75206E-26
9.95134E-01 1.70294E-26
9.95722E-01 1.65690E-26
9.96273E-01 1.61391E-26
9.96786E-01 1.57396E-26
9.97261E-01 1.53703E-26
9.97698E-01 1.50311E-26
9.98097E-01 1.47219E-26
9.98459E-01 1.44425E-26
9.98782E-01 1.41928E-26
9.99067E-01 1.39727E-26
9.99315E-01 1.37821E-26
9.99524E-01 1.36210E-26
9.99695E-01 1.34892E-26
9.99829E-01 1.33868E-26
9.99924E-01 1.33137E-26
9.99981E-01 1.32698E-26
1.00000E+00 1.32552E-26
