 #
 # Subroutine ELSEPA. Elastic scattering of electrons and positrons
 #                    by neutral atoms and positive ions
 #
 # Projectile: positron
 # Kinetic energy = 8.00000E+08 eV = 2.93995E+07 a.u.
 #
 # WARNING: High-energy factorization with free-atom DF screening.
 #          Absorption, polarization and exchange corrections are
 #          switched off.
 #          Phase shifts are calculated for the bare nucleus.
 #          Scattering amplitudes are not evaluated.
 #
 # Element: Pb,  Z =  82,  atomic weight = 2.07200E+02 g/mol
 #
 # Nuclear model: Fermi distribution
 #                Average radius = 6.33160E-13 cm
 #                Skin thickness = 5.46000E-14 cm
 #
 # Number of electrons = 82
 #
 # Total elastic cross section = 8.58133E-18 cm**2 = 3.06445E-01 a0**2
 # 1st transport cross section = 1.95359E-26 cm**2 = 6.97639E-10 a0**2
 # 2nd transport cross section = 5.85985E-26 cm**2 = 2.09259E-09 a0**2
 #
 #
 # Differential cross section:                       MU=(1-COS(THETA))/2
 #
 #  THETA        MU          DCS          DCS        Sherman      error
 #  (deg)                 (cm**2/sr)   (a0**2/sr)    function
 #----------------------------------------------------------------------
0.00000E+00 3.96374E-08
7.61557E-13 3.40773E-08
1.18994E-12 3.15399E-08
1.71346E-12 2.88800E-08
2.33225E-12 2.62307E-08
3.04617E-12 2.36888E-08
3.85530E-12 2.13204E-08
4.75964E-12 1.91496E-08
5.75917E-12 1.71967E-08
6.85391E-12 1.54450E-08
8.04379E-12 1.38943E-08
9.32893E-12 1.25154E-08
1.07092E-11 1.12994E-08
1.21847E-11 1.02212E-08
1.37554E-11 9.26775E-09
1.54213E-11 8.42110E-09
1.71823E-11 7.66846E-09
1.90386E-11 6.99796E-09
2.09900E-11 6.39804E-09
2.30367E-11 5.86164E-09
2.51785E-11 5.37852E-09
2.74156E-11 4.94498E-09
2.97478E-11 4.55209E-09
3.21752E-11 4.19797E-09
3.46979E-11 3.87601E-09
3.73157E-11 3.56891E-09
4.00286E-11 3.28640E-09
4.28368E-11 3.03766E-09
4.57402E-11 2.81783E-09
4.87388E-11 2.62281E-09
5.18325E-11 2.44922E-09
5.50215E-11 2.29416E-09
5.83057E-11 2.13490E-09
6.16850E-11 1.98533E-09
6.51595E-11 1.85135E-09
6.87293E-11 1.73096E-09
7.23943E-11 1.62250E-09
7.61544E-11 1.52451E-09
1.18991E-10 8.36662E-10
1.71347E-10 4.98443E-10
2.33223E-10 3.17096E-10
3.04617E-10 2.11863E-10
3.85531E-10 1.47070E-10
4.75965E-10 1.04875E-10
5.75917E-10 7.66566E-11
6.85389E-10 5.70894E-11
8.04380E-10 4.33586E-11
9.32891E-10 3.34805E-11
1.07092E-09 2.62490E-11
1.21847E-09 2.08904E-11
1.37554E-09 1.68571E-11
1.54213E-09 1.37642E-11
1.71823E-09 1.13552E-11
1.90386E-09 9.45454E-12
2.09900E-09 7.93756E-12
2.30367E-09 6.71639E-12
2.51785E-09 5.72261E-12
2.74156E-09 4.90787E-12
2.97478E-09 4.23263E-12
3.21752E-09 3.67012E-12
3.46978E-09 3.19761E-12
3.73156E-09 2.79737E-12
4.00286E-09 2.45864E-12
4.28368E-09 2.17190E-12
4.57402E-09 1.92369E-12
4.87388E-09 1.71068E-12
5.18326E-09 1.52729E-12
5.50215E-09 1.36642E-12
5.83057E-09 1.22697E-12
6.16850E-09 1.10495E-12
6.51596E-09 9.97298E-13
6.87293E-09 9.02909E-13
7.23942E-09 8.19175E-13
7.61544E-09 7.44880E-13
1.18991E-08 3.20440E-13
1.71347E-08 1.59539E-13
2.33223E-08 8.81133E-14
3.04617E-08 5.25830E-14
3.85531E-08 3.32994E-14
4.75965E-08 2.20996E-14
5.75917E-08 1.52346E-14
6.85389E-08 1.08372E-14
8.04380E-08 7.91626E-15
9.32891E-08 5.91536E-15
1.07092E-07 4.50790E-15
1.21847E-07 3.49495E-15
1.37554E-07 2.75106E-15
1.54213E-07 2.19490E-15
1.71823E-07 1.77243E-15
1.90386E-07 1.44690E-15
2.09900E-07 1.19278E-15
2.30367E-07 9.92101E-16
2.51785E-07 8.31913E-16
2.74156E-07 7.02795E-16
2.97478E-07 5.97790E-16
3.21752E-07 5.11689E-16
3.46978E-07 4.40548E-16
3.73156E-07 3.81354E-16
4.00286E-07 3.31777E-16
4.28368E-07 2.90003E-16
4.57402E-07 2.54600E-16
4.87388E-07 2.24440E-16
5.18325E-07 1.98616E-16
5.50215E-07 1.76401E-16
5.83057E-07 1.57207E-16
6.16850E-07 1.40553E-16
6.51596E-07 1.26047E-16
6.87293E-07 1.13364E-16
7.23942E-07 1.02238E-16
7.61543E-07 9.24422E-17
1.18991E-06 3.80222E-17
1.71347E-06 1.83817E-17
2.33223E-06 9.93722E-18
3.04617E-06 5.83075E-18
3.85531E-06 3.64243E-18
4.75964E-06 2.39079E-18
5.75916E-06 1.63337E-18
6.85388E-06 1.15345E-18
8.04378E-06 8.37499E-19
9.32888E-06 6.22667E-19
1.07092E-05 4.72494E-19
1.21846E-05 3.64973E-19
1.37553E-05 2.86361E-19
1.54212E-05 2.27814E-19
1.71822E-05 1.83489E-19
1.90385E-05 1.49340E-19
2.09899E-05 1.22939E-19
2.30365E-05 1.02101E-19
2.51783E-05 8.54674E-20
2.74153E-05 7.20652E-20
2.97475E-05 6.11791E-20
3.21749E-05 5.22719E-20
3.46974E-05 4.49327E-20
3.73152E-05 3.88432E-20
4.00281E-05 3.37558E-20
4.28362E-05 2.94772E-20
4.57395E-05 2.58529E-20
4.87380E-05 2.27672E-20
5.18317E-05 2.01267E-20
5.50205E-05 1.78569E-20
5.83045E-05 1.58977E-20
6.16838E-05 1.41999E-20
6.51582E-05 1.27232E-20
6.87277E-05 1.14339E-20
7.23925E-05 1.03040E-20
7.61524E-05 9.50962E-21
9.21439E-05 6.49288E-21
1.09658E-04 4.57821E-21
1.28695E-04 3.31632E-21
1.49255E-04 2.45726E-21
1.71338E-04 1.85642E-21
1.94942E-04 1.42612E-21
2.20070E-04 1.11160E-21
2.46720E-04 8.77564E-22
2.74892E-04 7.00626E-22
3.04586E-04 5.64961E-22
3.35803E-04 4.59632E-22
3.68542E-04 3.76923E-22
4.02802E-04 3.11315E-22
4.38585E-04 2.58791E-22
4.75889E-04 2.16387E-22
5.14715E-04 1.81893E-22
5.55063E-04 1.53636E-22
5.96931E-04 1.30340E-22
6.40321E-04 1.11023E-22
6.85233E-04 9.49163E-23
7.31665E-04 8.14210E-23
7.79618E-04 7.00609E-23
8.29092E-04 6.04579E-23
8.80086E-04 5.23078E-23
9.32601E-04 4.53657E-23
9.86636E-04 3.94325E-23
1.04219E-03 3.43454E-23
1.09927E-03 2.99712E-23
1.15786E-03 2.61995E-23
1.21797E-03 2.29393E-23
1.27961E-03 2.01144E-23
1.34276E-03 1.76613E-23
1.40743E-03 1.55268E-23
1.47362E-03 1.36660E-23
1.54133E-03 1.20408E-23
1.61056E-03 1.06192E-23
1.68131E-03 9.37366E-24
1.75357E-03 8.28089E-24
1.82735E-03 7.32086E-24
1.90265E-03 6.47645E-24
1.97947E-03 5.73287E-24
2.05780E-03 5.07742E-24
2.13765E-03 4.49909E-24
2.21902E-03 3.98836E-24
2.30190E-03 3.53698E-24
2.38630E-03 3.13775E-24
2.47222E-03 2.78441E-24
2.55965E-03 2.47150E-24
2.64859E-03 2.19424E-24
2.73905E-03 1.94847E-24
2.83103E-03 1.73049E-24
2.92452E-03 1.53712E-24
3.01952E-03 1.36550E-24
3.11604E-03 1.21315E-24
3.21407E-03 1.07788E-24
3.31362E-03 9.57757E-25
3.41468E-03 8.51063E-25
3.51725E-03 7.56288E-25
3.62133E-03 6.72098E-25
3.72692E-03 5.97307E-25
3.83403E-03 5.30867E-25
3.94265E-03 4.71848E-25
4.05278E-03 4.19424E-25
4.16442E-03 3.72862E-25
4.27757E-03 3.31512E-25
4.39223E-03 2.94795E-25
4.50840E-03 2.62197E-25
4.62608E-03 2.33261E-25
4.74527E-03 2.07579E-25
4.86597E-03 1.84791E-25
4.98817E-03 1.64573E-25
5.11188E-03 1.46639E-25
5.23711E-03 1.30733E-25
5.36383E-03 1.16629E-25
5.49207E-03 1.04124E-25
5.62181E-03 9.30382E-26
5.75306E-03 8.32110E-26
5.88581E-03 7.45001E-26
6.02007E-03 6.67784E-26
6.15583E-03 5.99332E-26
6.29310E-03 5.38642E-26
6.43187E-03 4.84820E-26
6.57214E-03 4.37076E-26
6.71392E-03 3.94706E-26
6.85720E-03 3.57085E-26
7.00198E-03 3.23659E-26
7.14827E-03 2.93936E-26
7.29605E-03 2.67483E-26
7.44534E-03 2.43913E-26
7.59612E-03 2.22886E-26
7.97965E-03 1.79553E-26
8.37255E-03 1.46502E-26
8.77480E-03 1.20949E-26
9.18641E-03 1.00872E-26
9.60736E-03 8.48183E-27
1.00376E-02 7.17464E-27
1.04773E-02 6.09172E-27
1.09262E-02 5.18074E-27
1.13844E-02 4.40477E-27
1.18520E-02 3.73767E-27
1.23288E-02 3.16078E-27
1.28150E-02 2.66054E-27
1.33104E-02 2.22678E-27
1.38150E-02 1.85158E-27
1.43290E-02 1.52846E-27
1.48521E-02 1.25186E-27
1.53845E-02 1.01682E-27
1.59262E-02 8.18805E-28
1.64770E-02 6.53567E-28
1.70371E-02 5.17121E-28
1.76063E-02 4.05729E-28
1.81848E-02 3.15906E-28
1.87724E-02 2.44429E-28
1.93692E-02 1.88360E-28
1.99751E-02 1.45048E-28
2.05901E-02 1.12139E-28
2.12143E-02 8.75714E-29
2.18476E-02 6.95668E-29
2.24900E-02 5.66182E-29
2.31415E-02 4.74699E-29
2.38021E-02 4.10952E-29
2.44717E-02 3.66727E-29
2.51504E-02 3.35611E-29
2.58382E-02 3.12736E-29
2.65349E-02 2.94537E-29
2.72407E-02 2.78522E-29
2.79555E-02 2.63056E-29
2.86793E-02 2.47181E-29
2.94120E-02 2.30441E-29
3.01537E-02 2.12745E-29
3.09043E-02 1.94249E-29
3.16639E-02 1.75260E-29
3.24324E-02 1.56159E-29
3.32098E-02 1.37348E-29
3.39961E-02 1.19206E-29
3.47912E-02 1.02063E-29
3.55952E-02 8.61817E-30
3.64081E-02 7.17551E-30
3.72297E-02 5.89014E-30
3.80602E-02 4.76704E-30
3.88995E-02 3.80514E-30
3.97476E-02 2.99827E-30
4.06044E-02 2.33623E-30
4.14700E-02 1.80593E-30
4.23443E-02 1.39240E-30
4.32273E-02 1.07969E-30
4.41190E-02 8.51732E-31
4.50194E-02 6.92928E-31
4.59284E-02 5.88709E-31
4.68461E-02 5.25883E-31
4.87074E-02 4.79815E-31
5.06030E-02 4.82910E-31
5.25328E-02 4.89992E-31
5.44967E-02 4.78321E-31
5.64946E-02 4.41583E-31
5.85262E-02 3.83696E-31
6.05914E-02 3.13461E-31
6.26901E-02 2.40603E-31
6.48222E-02 1.73274E-31
6.69873E-02 1.16881E-31
6.91854E-02 7.38891E-32
7.14163E-02 4.42682E-32
7.36799E-02 2.62476E-32
7.59760E-02 1.71259E-32
7.83043E-02 1.39740E-32
8.06647E-02 1.41441E-32
8.30571E-02 1.55647E-32
8.54812E-02 1.68461E-32
8.79369E-02 1.72424E-32
9.04240E-02 1.65261E-32
9.29422E-02 1.48255E-32
9.54915E-02 1.24630E-32
9.80716E-02 9.82038E-33
1.00682E-01 7.24403E-33
1.03323E-01 4.98970E-33
1.05995E-01 3.20345E-33
1.08696E-01 1.92841E-33
1.11427E-01 1.12741E-33
1.14188E-01 7.12122E-34
1.16978E-01 5.71579E-34
1.19797E-01 5.95529E-34
1.22645E-01 6.90399E-34
1.25522E-01 7.87659E-34
1.28428E-01 8.45668E-34
1.31361E-01 8.46805E-34
1.34323E-01 7.91829E-34
1.37313E-01 6.93256E-34
1.40330E-01 5.69089E-34
1.43375E-01 4.37781E-34
1.46447E-01 3.14797E-34
1.49545E-01 2.10809E-34
1.52671E-01 1.31272E-34
1.55823E-01 7.69907E-35
1.59001E-01 4.52819E-35
1.62205E-01 3.13413E-35
1.65435E-01 2.95420E-35
1.68690E-01 3.44769E-35
1.71970E-01 4.16601E-35
1.75276E-01 4.78829E-35
1.78606E-01 5.12741E-35
1.81961E-01 5.11460E-35
1.85340E-01 4.77119E-35
1.88743E-01 4.17588E-35
1.92169E-01 3.43351E-35
1.95619E-01 2.64972E-35
1.99092E-01 1.91331E-35
2.02589E-01 1.28663E-35
2.06107E-01 8.03050E-36
2.09649E-01 4.69555E-36
2.13212E-01 2.72710E-36
2.16797E-01 1.85962E-36
2.20404E-01 1.76818E-36
2.24032E-01 2.12900E-36
2.27680E-01 2.66259E-36
2.31350E-01 3.15866E-36
2.35040E-01 3.48421E-36
2.38751E-01 3.57870E-36
2.42481E-01 3.44046E-36
2.46231E-01 3.10896E-36
2.50000E-01 2.64652E-36
2.53788E-01 2.12216E-36
2.57595E-01 1.59920E-36
2.61421E-01 1.12736E-36
2.65264E-01 7.39032E-37
2.69126E-01 4.49049E-37
2.73005E-01 2.57093E-37
2.76901E-01 1.51563E-37
2.80814E-01 1.13923E-37
2.84744E-01 1.22880E-37
2.88691E-01 1.57792E-37
2.92653E-01 2.01081E-37
2.96632E-01 2.39584E-37
3.00625E-01 2.64991E-37
3.04634E-01 2.73531E-37
3.08658E-01 2.65152E-37
3.12697E-01 2.42471E-37
3.16749E-01 2.09662E-37
3.20816E-01 1.71456E-37
3.24896E-01 1.32331E-37
3.28990E-01 9.59751E-38
3.33097E-01 6.49780E-38
3.37216E-01 4.07713E-38
3.41348E-01 1.00000E-45
3.45492E-01 1.00000E-45
3.49647E-01 1.00000E-45
3.53814E-01 1.00000E-45
3.57992E-01 1.00000E-45
3.62181E-01 1.00000E-45
3.66381E-01 1.00000E-45
3.70590E-01 1.00000E-45
3.74810E-01 1.00000E-45
3.79039E-01 1.00000E-45
3.83277E-01 1.00000E-45
3.87524E-01 1.00000E-45
3.91780E-01 1.00000E-45
3.96044E-01 1.00000E-45
4.00316E-01 1.00000E-45
4.04596E-01 1.00000E-45
4.08882E-01 1.00000E-45
4.13176E-01 1.00000E-45
4.17476E-01 1.00000E-45
4.21783E-01 1.00000E-45
4.26095E-01 1.00000E-45
4.30413E-01 1.00000E-45
4.34737E-01 1.00000E-45
4.39065E-01 1.00000E-45
4.43398E-01 1.00000E-45
4.47736E-01 1.00000E-45
4.52077E-01 1.00000E-45
4.56422E-01 1.00000E-45
4.60770E-01 1.00000E-45
4.65122E-01 1.00000E-45
4.69476E-01 1.00000E-45
4.73832E-01 1.00000E-45
4.78190E-01 1.00000E-45
4.82550E-01 1.00000E-45
4.86912E-01 1.00000E-45
4.91274E-01 1.00000E-45
4.95637E-01 1.00000E-45
5.00000E-01 1.00000E-45
5.04363E-01 1.00000E-45
5.08726E-01 1.00000E-45
5.13088E-01 1.00000E-45
5.17450E-01 1.00000E-45
5.21810E-01 1.00000E-45
5.26168E-01 1.00000E-45
5.30524E-01 1.00000E-45
5.34878E-01 1.00000E-45
5.39230E-01 1.00000E-45
5.43578E-01 1.00000E-45
5.47923E-01 1.00000E-45
5.52264E-01 1.00000E-45
5.56602E-01 1.00000E-45
5.60935E-01 1.00000E-45
5.65263E-01 1.00000E-45
5.69587E-01 1.00000E-45
5.73905E-01 1.00000E-45
5.78217E-01 1.00000E-45
5.82524E-01 1.00000E-45
5.86824E-01 1.00000E-45
5.91118E-01 1.00000E-45
5.95404E-01 1.00000E-45
5.99684E-01 1.00000E-45
6.03956E-01 1.00000E-45
6.08220E-01 1.00000E-45
6.12476E-01 1.00000E-45
6.16723E-01 1.00000E-45
6.20961E-01 1.00000E-45
6.25190E-01 1.00000E-45
6.29410E-01 1.00000E-45
6.33619E-01 1.00000E-45
6.37819E-01 1.00000E-45
6.42008E-01 1.00000E-45
6.46186E-01 1.00000E-45
6.50353E-01 1.00000E-45
6.54508E-01 1.00000E-45
6.58652E-01 1.00000E-45
6.62784E-01 1.00000E-45
6.66903E-01 1.00000E-45
6.71010E-01 1.00000E-45
6.75104E-01 1.00000E-45
6.79184E-01 1.00000E-45
6.83251E-01 1.00000E-45
6.87303E-01 1.00000E-45
6.91342E-01 1.00000E-45
6.95366E-01 1.00000E-45
6.99375E-01 1.00000E-45
7.03368E-01 1.00000E-45
7.07347E-01 1.00000E-45
7.11309E-01 1.00000E-45
7.15256E-01 1.00000E-45
7.19186E-01 1.00000E-45
7.23099E-01 1.00000E-45
7.26995E-01 1.00000E-45
7.30874E-01 1.00000E-45
7.34736E-01 1.00000E-45
7.38579E-01 1.00000E-45
7.42405E-01 1.00000E-45
7.46212E-01 1.00000E-45
7.50000E-01 1.00000E-45
7.53769E-01 1.00000E-45
7.57519E-01 1.00000E-45
7.61249E-01 1.00000E-45
7.64960E-01 1.00000E-45
7.68650E-01 1.00000E-45
7.72320E-01 1.00000E-45
7.75968E-01 1.00000E-45
7.79596E-01 1.00000E-45
7.83203E-01 1.00000E-45
7.86788E-01 1.00000E-45
7.90351E-01 1.00000E-45
7.93893E-01 1.00000E-45
7.97411E-01 1.00000E-45
8.00908E-01 1.00000E-45
8.04381E-01 1.00000E-45
8.07831E-01 1.00000E-45
8.11257E-01 1.00000E-45
8.14660E-01 1.00000E-45
8.18039E-01 1.00000E-45
8.21394E-01 1.00000E-45
8.24724E-01 1.00000E-45
8.28030E-01 1.00000E-45
8.31310E-01 1.00000E-45
8.34565E-01 1.00000E-45
8.37795E-01 1.00000E-45
8.40999E-01 1.00000E-45
8.44177E-01 1.00000E-45
8.47329E-01 1.00000E-45
8.50455E-01 1.00000E-45
8.53553E-01 1.00000E-45
8.56625E-01 1.00000E-45
8.59670E-01 1.00000E-45
8.62687E-01 1.00000E-45
8.65677E-01 1.00000E-45
8.68639E-01 1.00000E-45
8.71572E-01 1.00000E-45
8.74478E-01 1.00000E-45
8.77355E-01 1.00000E-45
8.80203E-01 1.00000E-45
8.83022E-01 1.00000E-45
8.85812E-01 1.00000E-45
8.88573E-01 1.00000E-45
8.91304E-01 1.00000E-45
8.94005E-01 1.00000E-45
8.96677E-01 1.00000E-45
8.99318E-01 1.00000E-45
9.01928E-01 1.00000E-45
9.04508E-01 1.00000E-45
9.07058E-01 1.00000E-45
9.09576E-01 1.00000E-45
9.12063E-01 1.00000E-45
9.14519E-01 1.00000E-45
9.16943E-01 1.00000E-45
9.19335E-01 1.00000E-45
9.21696E-01 1.00000E-45
9.24024E-01 1.00000E-45
9.26320E-01 1.00000E-45
9.28584E-01 1.00000E-45
9.30815E-01 1.00000E-45
9.33013E-01 1.00000E-45
9.35178E-01 1.00000E-45
9.37310E-01 1.00000E-45
9.39409E-01 1.00000E-45
9.41474E-01 1.00000E-45
9.43505E-01 1.00000E-45
9.45503E-01 1.00000E-45
9.47467E-01 1.00000E-45
9.49397E-01 1.00000E-45
9.51293E-01 1.00000E-45
9.53154E-01 1.00000E-45
9.54981E-01 1.00000E-45
9.56773E-01 1.00000E-45
9.58530E-01 1.00000E-45
9.60252E-01 1.00000E-45
9.61940E-01 1.00000E-45
9.63592E-01 1.00000E-45
9.65209E-01 1.00000E-45
9.66790E-01 1.00000E-45
9.68336E-01 1.00000E-45
9.69846E-01 1.00000E-45
9.71321E-01 1.00000E-45
9.72759E-01 1.00000E-45
9.74162E-01 1.00000E-45
9.75528E-01 1.00000E-45
9.76858E-01 1.00000E-45
9.78152E-01 1.00000E-45
9.79410E-01 1.00000E-45
9.80631E-01 1.00000E-45
9.81815E-01 1.00000E-45
9.82963E-01 1.00000E-45
9.84074E-01 1.00000E-45
9.85148E-01 1.00000E-45
9.86185E-01 1.00000E-45
9.87185E-01 1.00000E-45
9.88148E-01 1.00000E-45
9.89074E-01 1.00000E-45
9.89962E-01 1.00000E-45
9.90814E-01 1.00000E-45
9.91627E-01 1.00000E-45
9.92404E-01 1.00000E-45
9.93143E-01 1.00000E-45
9.93844E-01 1.00000E-45
9.94508E-01 1.00000E-45
9.95134E-01 1.00000E-45
9.95722E-01 1.00000E-45
9.96273E-01 1.00000E-45
9.96786E-01 1.00000E-45
9.97261E-01 1.00000E-45
9.97698E-01 1.00000E-45
9.98097E-01 1.00000E-45
9.98459E-01 1.00000E-45
9.98782E-01 1.00000E-45
9.99067E-01 1.00000E-45
9.99315E-01 1.00000E-45
9.99524E-01 1.00000E-45
9.99695E-01 1.00000E-45
9.99829E-01 1.00000E-45
9.99924E-01 1.00000E-45
9.99981E-01 1.00000E-45
1.00000E+00 1.00000E-45
