 #
 # Subroutine ELSEPA. Elastic scattering of electrons and positrons
 #                    by neutral atoms and positive ions
 #
 # Projectile: positron
 # Kinetic energy = 7.00000E+06 eV = 2.57245E+05 a.u.
 #
 # WARNING: High-energy factorization with free-atom DF screening.
 #          Absorption, polarization and exchange corrections are
 #          switched off.
 #          Phase shifts are calculated for the bare nucleus.
 #          Scattering amplitudes are not evaluated.
 #
 # Element: Pb,  Z =  82,  atomic weight = 2.07200E+02 g/mol
 #
 # Nuclear model: Fermi distribution
 #                Average radius = 6.33160E-13 cm
 #                Skin thickness = 5.46000E-14 cm
 #
 # Number of electrons = 82
 #
 # Total elastic cross section = 8.63742E-18 cm**2 = 3.08448E-01 a0**2
 # 1st transport cross section = 1.51227E-22 cm**2 = 5.40043E-06 a0**2
 # 2nd transport cross section = 4.36017E-22 cm**2 = 1.55705E-05 a0**2
 #
 #
 # Differential cross section:                       MU=(1-COS(THETA))/2
 #
 #  THETA        MU          DCS          DCS        Sherman      error
 #  (deg)                 (cm**2/sr)   (a0**2/sr)    function
 #----------------------------------------------------------------------
0.00000E+00 3.48952E-12
7.61557E-13 3.48946E-12
1.18994E-12 3.48944E-12
1.71346E-12 3.48940E-12
2.33225E-12 3.48936E-12
3.04617E-12 3.48931E-12
3.85530E-12 3.48926E-12
4.75964E-12 3.48920E-12
5.75917E-12 3.48913E-12
6.85391E-12 3.48906E-12
8.04379E-12 3.48898E-12
9.32893E-12 3.48890E-12
1.07092E-11 3.48881E-12
1.21847E-11 3.48871E-12
1.37554E-11 3.48861E-12
1.54213E-11 3.48850E-12
1.71823E-11 3.48838E-12
1.90386E-11 3.48826E-12
2.09900E-11 3.48813E-12
2.30367E-11 3.48800E-12
2.51785E-11 3.48786E-12
2.74156E-11 3.48772E-12
2.97478E-11 3.48756E-12
3.21752E-11 3.48741E-12
3.46979E-11 3.48724E-12
3.73157E-11 3.48707E-12
4.00286E-11 3.48690E-12
4.28368E-11 3.48671E-12
4.57402E-11 3.48652E-12
4.87388E-11 3.48633E-12
5.18325E-11 3.48613E-12
5.50215E-11 3.48592E-12
5.83057E-11 3.48571E-12
6.16850E-11 3.48549E-12
6.51595E-11 3.48526E-12
6.87293E-11 3.48503E-12
7.23943E-11 3.48480E-12
7.61544E-11 3.48455E-12
1.18991E-10 3.48178E-12
1.71347E-10 3.47841E-12
2.33223E-10 3.47443E-12
3.04617E-10 3.46985E-12
3.85531E-10 3.46467E-12
4.75965E-10 3.45890E-12
5.75917E-10 3.45255E-12
6.85389E-10 3.44562E-12
8.04380E-10 3.43812E-12
9.32891E-10 3.43005E-12
1.07092E-09 3.42142E-12
1.21847E-09 3.41224E-12
1.37554E-09 3.40252E-12
1.54213E-09 3.39227E-12
1.71823E-09 3.38149E-12
1.90386E-09 3.37019E-12
2.09900E-09 3.35839E-12
2.30367E-09 3.34610E-12
2.51785E-09 3.33332E-12
2.74156E-09 3.32007E-12
2.97478E-09 3.30636E-12
3.21752E-09 3.29220E-12
3.46978E-09 3.27760E-12
3.73156E-09 3.26257E-12
4.00286E-09 3.24713E-12
4.28368E-09 3.23120E-12
4.57402E-09 3.21488E-12
4.87388E-09 3.19821E-12
5.18326E-09 3.18122E-12
5.50215E-09 3.16391E-12
5.83057E-09 3.14630E-12
6.16850E-09 3.12842E-12
6.51596E-09 3.11014E-12
6.87293E-09 3.09141E-12
7.23942E-09 3.07244E-12
7.61544E-09 3.05325E-12
1.18991E-08 2.84970E-12
1.71347E-08 2.63251E-12
2.33223E-08 2.41238E-12
3.04617E-08 2.19818E-12
3.85531E-08 1.99444E-12
4.75965E-08 1.80539E-12
5.75917E-08 1.63275E-12
6.85389E-08 1.47584E-12
8.04380E-08 1.33516E-12
9.32891E-08 1.20933E-12
1.07092E-07 1.09678E-12
1.21847E-07 9.96706E-13
1.37554E-07 9.07328E-13
1.54213E-07 8.27542E-13
1.71823E-07 7.56411E-13
1.90386E-07 6.92494E-13
2.09900E-07 6.35234E-13
2.30367E-07 5.83823E-13
2.51785E-07 5.37317E-13
2.74156E-07 4.95413E-13
2.97478E-07 4.57467E-13
3.21752E-07 4.22980E-13
3.46978E-07 3.91704E-13
3.73156E-07 3.63161E-13
4.00286E-07 3.37118E-13
4.28368E-07 3.11832E-13
4.57402E-07 2.88714E-13
4.87388E-07 2.68191E-13
5.18325E-07 2.49912E-13
5.50215E-07 2.33578E-13
5.83057E-07 2.18938E-13
6.16850E-07 2.05776E-13
6.51596E-07 1.92995E-13
6.87293E-07 1.80115E-13
7.23942E-07 1.68510E-13
7.61543E-07 1.58026E-13
1.18991E-06 8.83446E-14
1.71347E-06 5.30381E-14
2.33223E-06 3.38693E-14
3.04617E-06 2.27874E-14
3.85531E-06 1.58809E-14
4.75964E-06 1.14004E-14
5.75916E-06 8.38262E-15
6.85388E-06 6.27244E-15
8.04378E-06 4.78024E-15
9.32888E-06 3.70199E-15
1.07092E-05 2.90897E-15
1.21846E-05 2.31631E-15
1.37553E-05 1.86893E-15
1.54212E-05 1.52633E-15
1.71822E-05 1.26010E-15
1.90385E-05 1.04908E-15
2.09899E-05 8.81974E-16
2.30365E-05 7.46978E-16
2.51783E-05 6.36734E-16
2.74153E-05 5.46183E-16
2.97475E-05 4.71212E-16
3.21749E-05 4.08691E-16
3.46974E-05 3.56283E-16
3.73152E-05 3.12028E-16
4.00281E-05 2.74467E-16
4.28362E-05 2.42262E-16
4.57395E-05 2.14736E-16
4.87380E-05 1.91171E-16
5.18317E-05 1.70577E-16
5.50205E-05 1.52709E-16
5.83045E-05 1.37212E-16
6.16838E-05 1.23521E-16
6.51582E-05 1.11533E-16
6.87277E-05 1.01024E-16
7.23925E-05 9.16512E-17
7.61524E-05 8.33699E-17
9.21439E-05 5.83016E-17
1.09658E-04 4.19476E-17
1.28695E-04 3.09473E-17
1.49255E-04 2.33198E-17
1.71338E-04 1.78975E-17
1.94942E-04 1.39635E-17
2.20070E-04 1.10520E-17
2.46720E-04 8.86114E-18
2.74892E-04 7.18789E-18
3.04586E-04 5.89116E-18
3.35803E-04 4.87434E-18
3.68542E-04 4.06786E-18
4.02802E-04 3.42117E-18
4.38585E-04 2.89805E-18
4.75889E-04 2.47106E-18
5.14715E-04 2.11971E-18
5.55063E-04 1.82856E-18
5.96931E-04 1.58557E-18
6.40321E-04 1.38152E-18
6.85233E-04 1.20920E-18
7.31665E-04 1.06280E-18
7.79618E-04 9.37845E-19
8.29092E-04 8.30670E-19
8.80086E-04 7.38308E-19
9.32601E-04 6.58398E-19
9.86636E-04 5.88974E-19
1.04219E-03 5.28426E-19
1.09927E-03 4.75443E-19
1.15786E-03 4.28909E-19
1.21797E-03 3.87914E-19
1.27961E-03 3.51688E-19
1.34276E-03 3.19575E-19
1.40743E-03 2.91036E-19
1.47362E-03 2.65603E-19
1.54133E-03 2.42878E-19
1.61056E-03 2.22526E-19
1.68131E-03 2.04254E-19
1.75357E-03 1.87814E-19
1.82735E-03 1.72991E-19
1.90265E-03 1.59596E-19
1.97947E-03 1.47470E-19
2.05780E-03 1.36470E-19
2.13765E-03 1.26473E-19
2.21902E-03 1.17373E-19
2.30190E-03 1.09074E-19
2.38630E-03 1.01493E-19
2.47222E-03 9.45574E-20
2.55965E-03 8.82023E-20
2.64859E-03 8.23704E-20
2.73905E-03 7.70112E-20
2.83103E-03 7.20791E-20
2.92452E-03 6.75343E-20
3.01952E-03 6.33409E-20
3.11604E-03 5.94667E-20
3.21407E-03 5.58832E-20
3.31362E-03 5.25646E-20
3.41468E-03 4.94878E-20
3.51725E-03 4.66320E-20
3.62133E-03 4.39784E-20
3.72692E-03 4.15101E-20
3.83403E-03 3.92119E-20
3.94265E-03 3.70699E-20
4.05278E-03 3.50715E-20
4.16442E-03 3.32052E-20
4.27757E-03 3.14613E-20
4.39223E-03 2.98295E-20
4.50840E-03 2.83019E-20
4.62608E-03 2.68702E-20
4.74527E-03 2.55276E-20
4.86597E-03 2.42674E-20
4.98817E-03 2.30836E-20
5.11188E-03 2.19708E-20
5.23711E-03 2.09238E-20
5.36383E-03 1.99383E-20
5.49207E-03 1.90097E-20
5.62181E-03 1.81343E-20
5.75306E-03 1.73084E-20
5.88581E-03 1.65288E-20
6.02007E-03 1.57923E-20
6.15583E-03 1.50962E-20
6.29310E-03 1.44378E-20
6.43187E-03 1.38146E-20
6.57214E-03 1.32246E-20
6.71392E-03 1.26655E-20
6.85720E-03 1.21356E-20
7.00198E-03 1.16328E-20
7.14827E-03 1.11557E-20
7.29605E-03 1.07026E-20
7.44534E-03 1.02722E-20
7.59612E-03 9.86299E-21
7.97965E-03 8.92528E-21
8.37255E-03 8.09571E-21
8.77480E-03 7.35974E-21
9.18641E-03 6.70501E-21
9.60736E-03 6.12101E-21
1.00376E-02 5.59882E-21
1.04773E-02 5.13077E-21
1.09262E-02 4.71028E-21
1.13844E-02 4.33170E-21
1.18520E-02 3.99011E-21
1.23288E-02 3.68130E-21
1.28150E-02 3.40157E-21
1.33104E-02 3.14771E-21
1.38150E-02 2.91691E-21
1.43290E-02 2.70671E-21
1.48521E-02 2.51495E-21
1.53845E-02 2.33974E-21
1.59262E-02 2.17940E-21
1.64770E-02 2.03244E-21
1.70371E-02 1.89756E-21
1.76063E-02 1.77358E-21
1.81848E-02 1.65948E-21
1.87724E-02 1.55432E-21
1.93692E-02 1.45728E-21
1.99751E-02 1.36763E-21
2.05901E-02 1.28471E-21
2.12143E-02 1.20791E-21
2.18476E-02 1.13671E-21
2.24900E-02 1.07063E-21
2.31415E-02 1.00924E-21
2.38021E-02 9.52134E-22
2.44717E-02 8.98972E-22
2.51504E-02 8.49431E-22
2.58382E-02 8.03219E-22
2.65349E-02 7.60075E-22
2.72407E-02 7.19758E-22
2.79555E-02 6.82050E-22
2.86793E-02 6.46752E-22
2.94120E-02 6.13683E-22
3.01537E-02 5.82676E-22
3.09043E-02 5.53581E-22
3.16639E-02 5.26259E-22
3.24324E-02 5.00582E-22
3.32098E-02 4.76433E-22
3.39961E-02 4.53706E-22
3.47912E-02 4.32301E-22
3.55952E-02 4.12129E-22
3.64081E-02 3.93105E-22
3.72297E-02 3.75153E-22
3.80602E-02 3.58201E-22
3.88995E-02 3.42183E-22
3.97476E-02 3.27040E-22
4.06044E-02 3.12714E-22
4.14700E-02 2.99153E-22
4.23443E-02 2.86310E-22
4.32273E-02 2.74140E-22
4.41190E-02 2.62601E-22
4.50194E-02 2.51654E-22
4.59284E-02 2.41264E-22
4.68461E-02 2.31397E-22
4.87074E-02 2.13112E-22
5.06030E-02 1.96573E-22
5.25328E-02 1.81585E-22
5.44967E-02 1.67980E-22
5.64946E-02 1.55607E-22
5.85262E-02 1.44335E-22
6.05914E-02 1.34052E-22
6.26901E-02 1.24654E-22
6.48222E-02 1.16053E-22
6.69873E-02 1.08169E-22
6.91854E-02 1.00933E-22
7.14163E-02 9.42824E-23
7.36799E-02 8.81617E-23
7.59760E-02 8.25214E-23
7.83043E-02 7.73173E-23
8.06647E-02 7.25100E-23
8.30571E-02 6.80640E-23
8.54812E-02 6.39476E-23
8.79369E-02 6.01321E-23
9.04240E-02 5.65916E-23
9.29422E-02 5.33031E-23
9.54915E-02 5.02454E-23
9.80716E-02 4.73997E-23
1.00682E-01 4.47487E-23
1.03323E-01 4.22767E-23
1.05995E-01 3.99696E-23
1.08696E-01 3.78145E-23
1.11427E-01 3.57998E-23
1.14188E-01 3.39146E-23
1.16978E-01 3.21491E-23
1.19797E-01 3.04946E-23
1.22645E-01 2.89427E-23
1.25522E-01 2.74862E-23
1.28428E-01 2.61180E-23
1.31361E-01 2.48319E-23
1.34323E-01 2.36221E-23
1.37313E-01 2.24833E-23
1.40330E-01 2.14107E-23
1.43375E-01 2.03997E-23
1.46447E-01 1.94462E-23
1.49545E-01 1.85463E-23
1.52671E-01 1.76966E-23
1.55823E-01 1.68937E-23
1.59001E-01 1.61345E-23
1.62205E-01 1.54164E-23
1.65435E-01 1.47367E-23
1.68690E-01 1.40930E-23
1.71970E-01 1.34832E-23
1.75276E-01 1.29049E-23
1.78606E-01 1.23564E-23
1.81961E-01 1.18359E-23
1.85340E-01 1.13418E-23
1.88743E-01 1.08723E-23
1.92169E-01 1.04261E-23
1.95619E-01 1.00019E-23
1.99092E-01 9.59832E-24
2.02589E-01 9.21423E-24
2.06107E-01 8.84853E-24
2.09649E-01 8.50020E-24
2.13212E-01 8.16827E-24
2.16797E-01 7.85182E-24
2.20404E-01 7.55001E-24
2.24032E-01 7.26204E-24
2.27680E-01 6.98719E-24
2.31350E-01 6.72475E-24
2.35040E-01 6.47404E-24
2.38751E-01 6.23447E-24
2.42481E-01 6.00546E-24
2.46231E-01 5.78646E-24
2.50000E-01 5.57696E-24
2.53788E-01 5.37648E-24
2.57595E-01 5.18455E-24
2.61421E-01 5.00076E-24
2.65264E-01 4.82471E-24
2.69126E-01 4.65600E-24
2.73005E-01 4.49428E-24
2.76901E-01 4.33922E-24
2.80814E-01 4.19049E-24
2.84744E-01 4.04778E-24
2.88691E-01 3.91082E-24
2.92653E-01 3.77934E-24
2.96632E-01 3.65307E-24
3.00625E-01 3.53178E-24
3.04634E-01 3.41523E-24
3.08658E-01 3.30322E-24
3.12697E-01 3.19553E-24
3.16749E-01 3.09196E-24
3.20816E-01 2.99234E-24
3.24896E-01 2.89649E-24
3.28990E-01 2.80424E-24
3.33097E-01 2.71543E-24
3.37216E-01 2.62992E-24
3.41348E-01 2.54756E-24
3.45492E-01 2.46821E-24
3.49647E-01 2.39175E-24
3.53814E-01 2.31805E-24
3.57992E-01 2.24700E-24
3.62181E-01 2.17849E-24
3.66381E-01 2.11241E-24
3.70590E-01 2.04866E-24
3.74810E-01 1.98714E-24
3.79039E-01 1.92777E-24
3.83277E-01 1.87045E-24
3.87524E-01 1.81510E-24
3.91780E-01 1.76165E-24
3.96044E-01 1.71002E-24
4.00316E-01 1.66013E-24
4.04596E-01 1.61192E-24
4.08882E-01 1.56532E-24
4.13176E-01 1.52027E-24
4.17476E-01 1.47671E-24
4.21783E-01 1.43458E-24
4.26095E-01 1.39383E-24
4.30413E-01 1.35441E-24
4.34737E-01 1.31626E-24
4.39065E-01 1.27933E-24
4.43398E-01 1.24359E-24
4.47736E-01 1.20898E-24
4.52077E-01 1.17547E-24
4.56422E-01 1.14302E-24
4.60770E-01 1.11158E-24
4.65122E-01 1.08112E-24
4.69476E-01 1.05160E-24
4.73832E-01 1.02300E-24
4.78190E-01 9.95275E-25
4.82550E-01 9.68398E-25
4.86912E-01 9.42323E-25
4.91274E-01 9.17030E-25
4.95637E-01 8.92497E-25
5.00000E-01 8.68698E-25
5.04363E-01 8.45607E-25
5.08726E-01 8.23199E-25
5.13088E-01 8.01452E-25
5.17450E-01 7.80343E-25
5.21810E-01 7.59850E-25
5.26168E-01 7.39952E-25
5.30524E-01 7.20629E-25
5.34878E-01 7.01863E-25
5.39230E-01 6.83634E-25
5.43578E-01 6.65925E-25
5.47923E-01 6.48718E-25
5.52264E-01 6.31998E-25
5.56602E-01 6.15748E-25
5.60935E-01 5.99953E-25
5.65263E-01 5.84599E-25
5.69587E-01 5.69670E-25
5.73905E-01 5.55155E-25
5.78217E-01 5.41039E-25
5.82524E-01 5.27309E-25
5.86824E-01 5.13955E-25
5.91118E-01 5.00963E-25
5.95404E-01 4.88322E-25
5.99684E-01 4.76023E-25
6.03956E-01 4.64053E-25
6.08220E-01 4.52403E-25
6.12476E-01 4.41064E-25
6.16723E-01 4.30025E-25
6.20961E-01 4.19277E-25
6.25190E-01 4.08812E-25
6.29410E-01 3.98622E-25
6.33619E-01 3.88697E-25
6.37819E-01 3.79030E-25
6.42008E-01 3.69614E-25
6.46186E-01 3.60441E-25
6.50353E-01 3.51503E-25
6.54508E-01 3.42795E-25
6.58652E-01 3.34308E-25
6.62784E-01 3.26038E-25
6.66903E-01 3.17977E-25
6.71010E-01 3.10119E-25
6.75104E-01 3.02459E-25
6.79184E-01 2.94992E-25
6.83251E-01 2.87711E-25
6.87303E-01 2.80611E-25
6.91342E-01 2.73687E-25
6.95366E-01 2.66935E-25
6.99375E-01 2.60349E-25
7.03368E-01 2.53925E-25
7.07347E-01 2.47659E-25
7.11309E-01 2.41545E-25
7.15256E-01 2.35580E-25
7.19186E-01 2.29761E-25
7.23099E-01 2.24082E-25
7.26995E-01 2.18540E-25
7.30874E-01 2.13131E-25
7.34736E-01 2.07852E-25
7.38579E-01 2.02700E-25
7.42405E-01 1.97670E-25
7.46212E-01 1.92760E-25
7.50000E-01 1.87967E-25
7.53769E-01 1.83287E-25
7.57519E-01 1.78717E-25
7.61249E-01 1.74256E-25
7.64960E-01 1.69899E-25
7.68650E-01 1.65644E-25
7.72320E-01 1.61488E-25
7.75968E-01 1.57430E-25
7.79596E-01 1.53466E-25
7.83203E-01 1.49594E-25
7.86788E-01 1.45812E-25
7.90351E-01 1.42118E-25
7.93893E-01 1.38509E-25
7.97411E-01 1.34983E-25
8.00908E-01 1.31538E-25
8.04381E-01 1.28172E-25
8.07831E-01 1.24883E-25
8.11257E-01 1.21670E-25
8.14660E-01 1.18530E-25
8.18039E-01 1.15462E-25
8.21394E-01 1.12464E-25
8.24724E-01 1.09534E-25
8.28030E-01 1.06671E-25
8.31310E-01 1.03873E-25
8.34565E-01 1.01138E-25
8.37795E-01 9.84654E-26
8.40999E-01 9.58533E-26
8.44177E-01 9.33004E-26
8.47329E-01 9.08053E-26
8.50455E-01 8.83666E-26
8.53553E-01 8.59831E-26
8.56625E-01 8.36535E-26
8.59670E-01 8.13766E-26
8.62687E-01 7.91512E-26
8.65677E-01 7.69761E-26
8.68639E-01 7.48502E-26
8.71572E-01 7.27725E-26
8.74478E-01 7.07418E-26
8.77355E-01 6.87571E-26
8.80203E-01 6.68174E-26
8.83022E-01 6.49218E-26
8.85812E-01 6.30692E-26
8.88573E-01 6.12589E-26
8.91304E-01 5.94898E-26
8.94005E-01 5.77610E-26
8.96677E-01 5.60719E-26
8.99318E-01 5.44215E-26
9.01928E-01 5.28089E-26
9.04508E-01 5.12336E-26
9.07058E-01 4.96946E-26
9.09576E-01 4.81912E-26
9.12063E-01 4.67228E-26
9.14519E-01 4.52886E-26
9.16943E-01 4.38879E-26
9.19335E-01 4.25202E-26
9.21696E-01 4.11847E-26
9.24024E-01 3.98808E-26
9.26320E-01 3.86079E-26
9.28584E-01 3.73655E-26
9.30815E-01 3.61529E-26
9.33013E-01 3.49696E-26
9.35178E-01 3.38151E-26
9.37310E-01 3.26888E-26
9.39409E-01 3.15902E-26
9.41474E-01 3.05189E-26
9.43505E-01 2.94743E-26
9.45503E-01 2.84559E-26
9.47467E-01 2.74634E-26
9.49397E-01 2.64963E-26
9.51293E-01 2.55541E-26
9.53154E-01 2.46365E-26
9.54981E-01 2.37429E-26
9.56773E-01 2.28732E-26
9.58530E-01 2.20267E-26
9.60252E-01 2.12033E-26
9.61940E-01 2.04024E-26
9.63592E-01 1.96239E-26
9.65209E-01 1.88673E-26
9.66790E-01 1.81323E-26
9.68336E-01 1.74186E-26
9.69846E-01 1.67259E-26
9.71321E-01 1.60539E-26
9.72759E-01 1.54023E-26
9.74162E-01 1.47709E-26
9.75528E-01 1.41593E-26
9.76858E-01 1.35673E-26
9.78152E-01 1.29947E-26
9.79410E-01 1.24412E-26
9.80631E-01 1.19066E-26
9.81815E-01 1.13907E-26
9.82963E-01 1.08932E-26
9.84074E-01 1.04140E-26
9.85148E-01 9.95274E-27
9.86185E-01 9.50937E-27
9.87185E-01 9.08367E-27
9.88148E-01 8.67546E-27
9.89074E-01 8.28456E-27
9.89962E-01 7.91083E-27
9.90814E-01 7.55410E-27
9.91627E-01 7.21423E-27
9.92404E-01 6.89108E-27
9.93143E-01 6.58452E-27
9.93844E-01 6.29442E-27
9.94508E-01 6.02067E-27
9.95134E-01 5.76314E-27
9.95722E-01 5.52174E-27
9.96273E-01 5.29637E-27
9.96786E-01 5.08694E-27
9.97261E-01 4.89336E-27
9.97698E-01 4.71555E-27
9.98097E-01 4.55345E-27
9.98459E-01 4.40698E-27
9.98782E-01 4.27608E-27
9.99067E-01 4.16071E-27
9.99315E-01 4.06082E-27
9.99524E-01 3.97636E-27
9.99695E-01 3.90731E-27
9.99829E-01 3.85363E-27
9.99924E-01 3.81530E-27
9.99981E-01 3.79231E-27
1.00000E+00 3.78465E-27
