 #
 # Subroutine ELSEPA. Elastic scattering of electrons and positrons
 #                    by neutral atoms and positive ions
 #
 # Projectile: positron
 # Kinetic energy = 2.00000E+06 eV = 7.34987E+04 a.u.
 #
 # WARNING: High-energy factorization with free-atom DF screening.
 #          Absorption, polarization and exchange corrections are
 #          switched off.
 #          Phase shifts are calculated for the bare nucleus.
 #          Scattering amplitudes are not evaluated.
 #
 # Element: Pb,  Z =  82,  atomic weight = 2.07200E+02 g/mol
 #
 # Nuclear model: Fermi distribution
 #                Average radius = 6.33160E-13 cm
 #                Skin thickness = 5.46000E-14 cm
 #
 # Number of electrons = 82
 #
 # Total elastic cross section = 8.95291E-18 cm**2 = 3.19714E-01 a0**2
 # 1st transport cross section = 1.13849E-21 cm**2 = 4.06563E-05 a0**2
 # 2nd transport cross section = 3.23315E-21 cm**2 = 1.15458E-04 a0**2
 #
 #
 # Differential cross section:                       MU=(1-COS(THETA))/2
 #
 #  THETA        MU          DCS          DCS        Sherman      error
 #  (deg)                 (cm**2/sr)   (a0**2/sr)    function
 #----------------------------------------------------------------------
0.00000E+00 3.89999E-13
7.61557E-13 3.89998E-13
1.18994E-12 3.89997E-13
1.71346E-12 3.89997E-13
2.33225E-12 3.89996E-13
3.04617E-12 3.89996E-13
3.85530E-12 3.89995E-13
4.75964E-12 3.89994E-13
5.75917E-12 3.89993E-13
6.85391E-12 3.89992E-13
8.04379E-12 3.89991E-13
9.32893E-12 3.89990E-13
1.07092E-11 3.89989E-13
1.21847E-11 3.89988E-13
1.37554E-11 3.89986E-13
1.54213E-11 3.89985E-13
1.71823E-11 3.89984E-13
1.90386E-11 3.89982E-13
2.09900E-11 3.89980E-13
2.30367E-11 3.89979E-13
2.51785E-11 3.89977E-13
2.74156E-11 3.89975E-13
2.97478E-11 3.89973E-13
3.21752E-11 3.89971E-13
3.46979E-11 3.89969E-13
3.73157E-11 3.89967E-13
4.00286E-11 3.89965E-13
4.28368E-11 3.89963E-13
4.57402E-11 3.89960E-13
4.87388E-11 3.89958E-13
5.18325E-11 3.89955E-13
5.50215E-11 3.89953E-13
5.83057E-11 3.89950E-13
6.16850E-11 3.89947E-13
6.51595E-11 3.89945E-13
6.87293E-11 3.89942E-13
7.23943E-11 3.89939E-13
7.61544E-11 3.89936E-13
1.18991E-10 3.89901E-13
1.71347E-10 3.89860E-13
2.33223E-10 3.89811E-13
3.04617E-10 3.89754E-13
3.85531E-10 3.89691E-13
4.75965E-10 3.89620E-13
5.75917E-10 3.89541E-13
6.85389E-10 3.89455E-13
8.04380E-10 3.89362E-13
9.32891E-10 3.89262E-13
1.07092E-09 3.89154E-13
1.21847E-09 3.89039E-13
1.37554E-09 3.88917E-13
1.54213E-09 3.88787E-13
1.71823E-09 3.88650E-13
1.90386E-09 3.88506E-13
2.09900E-09 3.88355E-13
2.30367E-09 3.88196E-13
2.51785E-09 3.88030E-13
2.74156E-09 3.87857E-13
2.97478E-09 3.87677E-13
3.21752E-09 3.87490E-13
3.46978E-09 3.87296E-13
3.73156E-09 3.87094E-13
4.00286E-09 3.86885E-13
4.28368E-09 3.86670E-13
4.57402E-09 3.86447E-13
4.87388E-09 3.86217E-13
5.18326E-09 3.85980E-13
5.50215E-09 3.85737E-13
5.83057E-09 3.85486E-13
6.16850E-09 3.85228E-13
6.51596E-09 3.84964E-13
6.87293E-09 3.84692E-13
7.23942E-09 3.84414E-13
7.61544E-09 3.84129E-13
1.18991E-08 3.80908E-13
1.71347E-08 3.77041E-13
2.33223E-08 3.72562E-13
3.04617E-08 3.67514E-13
3.85531E-08 3.61940E-13
4.75965E-08 3.55869E-13
5.75917E-08 3.49419E-13
6.85389E-08 3.42548E-13
8.04380E-08 3.35396E-13
9.32891E-08 3.27948E-13
1.07092E-07 3.20292E-13
1.21847E-07 3.12474E-13
1.37554E-07 3.04503E-13
1.54213E-07 2.96502E-13
1.71823E-07 2.88385E-13
1.90386E-07 2.80348E-13
2.09900E-07 2.72249E-13
2.30367E-07 2.64278E-13
2.51785E-07 2.56347E-13
2.74156E-07 2.48550E-13
2.97478E-07 2.40880E-13
3.21752E-07 2.33336E-13
3.46978E-07 2.25996E-13
3.73156E-07 2.18765E-13
4.00286E-07 2.11794E-13
4.28368E-07 2.04917E-13
4.57402E-07 1.98307E-13
4.87388E-07 1.91842E-13
5.18325E-07 1.85608E-13
5.50215E-07 1.79560E-13
5.83057E-07 1.73705E-13
6.16850E-07 1.68068E-13
6.51596E-07 1.62587E-13
6.87293E-07 1.57349E-13
7.23942E-07 1.52231E-13
7.61543E-07 1.47352E-13
1.18991E-06 1.07152E-13
1.71347E-06 7.95139E-14
2.33223E-06 6.01755E-14
3.04617E-06 4.63427E-14
3.85531E-06 3.61508E-14
4.75964E-06 2.82736E-14
5.75916E-06 2.28465E-14
6.85388E-06 1.83616E-14
8.04378E-06 1.50351E-14
9.32888E-06 1.23769E-14
1.07092E-05 1.02789E-14
1.21846E-05 8.62594E-15
1.37553E-05 7.26787E-15
1.54212E-05 6.19815E-15
1.71822E-05 5.29393E-15
1.90385E-05 4.57057E-15
2.09899E-05 3.95752E-15
2.30365E-05 3.45548E-15
2.51783E-05 3.02588E-15
2.74153E-05 2.66332E-15
2.97475E-05 2.35393E-15
3.21749E-05 2.08677E-15
3.46974E-05 1.85950E-15
3.73152E-05 1.65906E-15
4.00281E-05 1.48858E-15
4.28362E-05 1.33546E-15
4.57395E-05 1.20372E-15
4.87380E-05 1.08597E-15
5.18317E-05 9.82660E-16
5.50205E-05 8.90826E-16
5.83045E-05 8.09033E-16
6.16838E-05 7.36661E-16
6.51582E-05 6.71441E-16
6.87277E-05 6.13861E-16
7.23925E-05 5.61480E-16
7.61524E-05 5.15029E-16
9.21439E-05 3.70060E-16
1.09658E-04 2.72305E-16
1.28695E-04 2.05053E-16
1.49255E-04 1.57643E-16
1.71338E-04 1.23314E-16
1.94942E-04 9.78890E-17
2.20070E-04 7.87302E-17
2.46720E-04 6.40730E-17
2.74892E-04 5.26988E-17
3.04586E-04 4.37440E-17
3.35803E-04 3.66118E-17
3.68542E-04 3.08740E-17
4.02802E-04 2.61978E-17
4.38585E-04 2.23932E-17
4.75889E-04 1.92569E-17
5.14715E-04 1.66447E-17
5.55063E-04 1.44699E-17
5.96931E-04 1.26283E-17
6.40321E-04 1.10807E-17
6.85233E-04 9.75315E-18
7.31665E-04 8.62474E-18
7.79618E-04 7.65101E-18
8.29092E-04 6.81237E-18
8.80086E-04 6.08484E-18
9.32601E-04 5.45117E-18
9.86636E-04 4.89865E-18
1.04219E-03 4.41271E-18
1.09927E-03 3.98697E-18
1.15786E-03 3.60939E-18
1.21797E-03 3.27657E-18
1.27961E-03 2.98020E-18
1.34276E-03 2.71696E-18
1.40743E-03 2.48185E-18
1.47362E-03 2.27154E-18
1.54133E-03 2.08310E-18
1.61056E-03 1.91350E-18
1.68131E-03 1.76106E-18
1.75357E-03 1.62313E-18
1.82735E-03 1.49868E-18
1.90265E-03 1.38567E-18
1.97947E-03 1.28325E-18
2.05780E-03 1.19001E-18
2.13765E-03 1.10510E-18
2.21902E-03 1.02763E-18
2.30190E-03 9.56779E-19
2.38630E-03 8.91985E-19
2.47222E-03 8.32489E-19
2.55965E-03 7.77949E-19
2.64859E-03 7.27710E-19
2.73905E-03 6.81515E-19
2.83103E-03 6.38884E-19
2.92452E-03 5.99546E-19
3.01952E-03 5.63180E-19
3.11604E-03 5.29515E-19
3.21407E-03 4.98341E-19
3.31362E-03 4.69395E-19
3.41468E-03 4.42548E-19
3.51725E-03 4.17549E-19
3.62133E-03 3.94312E-19
3.72692E-03 3.72646E-19
3.83403E-03 3.52454E-19
3.94265E-03 3.33602E-19
4.05278E-03 3.15986E-19
4.16442E-03 2.99519E-19
4.27757E-03 2.84097E-19
4.39223E-03 2.69664E-19
4.50840E-03 2.56115E-19
4.62608E-03 2.43415E-19
4.74527E-03 2.31478E-19
4.86597E-03 2.20267E-19
4.98817E-03 2.09720E-19
5.11188E-03 1.99793E-19
5.23711E-03 1.90445E-19
5.36383E-03 1.81631E-19
5.49207E-03 1.73322E-19
5.62181E-03 1.65474E-19
5.75306E-03 1.58069E-19
5.88581E-03 1.51065E-19
6.02007E-03 1.44445E-19
6.15583E-03 1.38180E-19
6.29310E-03 1.32249E-19
6.43187E-03 1.26632E-19
6.57214E-03 1.21306E-19
6.71392E-03 1.16257E-19
6.85720E-03 1.11464E-19
7.00198E-03 1.06916E-19
7.14827E-03 1.02593E-19
7.29605E-03 9.84869E-20
7.44534E-03 9.45813E-20
7.59612E-03 9.08666E-20
7.97965E-03 8.23419E-20
8.37255E-03 7.47868E-20
8.77480E-03 6.80718E-20
9.18641E-03 6.20884E-20
9.60736E-03 5.67435E-20
1.00376E-02 5.19574E-20
1.04773E-02 4.76617E-20
1.09262E-02 4.37977E-20
1.13844E-02 4.03146E-20
1.18520E-02 3.71684E-20
1.23288E-02 3.43208E-20
1.28150E-02 3.17386E-20
1.33104E-02 2.93929E-20
1.38150E-02 2.72583E-20
1.43290E-02 2.53126E-20
1.48521E-02 2.35361E-20
1.53845E-02 2.19115E-20
1.59262E-02 2.04236E-20
1.64770E-02 1.90589E-20
1.70371E-02 1.78054E-20
1.76063E-02 1.66524E-20
1.81848E-02 1.55904E-20
1.87724E-02 1.46111E-20
1.93692E-02 1.37069E-20
1.99751E-02 1.28710E-20
2.05901E-02 1.20973E-20
2.12143E-02 1.13804E-20
2.18476E-02 1.07153E-20
2.24900E-02 1.00977E-20
2.31415E-02 9.52357E-21
2.38021E-02 8.98930E-21
2.44717E-02 8.49163E-21
2.51504E-02 8.02762E-21
2.58382E-02 7.59459E-21
2.65349E-02 7.19009E-21
2.72407E-02 6.81191E-21
2.79555E-02 6.45803E-21
2.86793E-02 6.12662E-21
2.94120E-02 5.81598E-21
3.01537E-02 5.52458E-21
3.09043E-02 5.25103E-21
3.16639E-02 4.99403E-21
3.24324E-02 4.75239E-21
3.32098E-02 4.52505E-21
3.39961E-02 4.31100E-21
3.47912E-02 4.10932E-21
3.55952E-02 3.91917E-21
3.64081E-02 3.73977E-21
3.72297E-02 3.57041E-21
3.80602E-02 3.41041E-21
3.88995E-02 3.25917E-21
3.97476E-02 3.11615E-21
4.06044E-02 2.98077E-21
4.14700E-02 2.85260E-21
4.23443E-02 2.73115E-21
4.32273E-02 2.61603E-21
4.41190E-02 2.50684E-21
4.50194E-02 2.40321E-21
4.59284E-02 2.30482E-21
4.68461E-02 2.21134E-21
4.87074E-02 2.03803E-21
5.06030E-02 1.88116E-21
5.25328E-02 1.73892E-21
5.44967E-02 1.60970E-21
5.64946E-02 1.49211E-21
5.85262E-02 1.38492E-21
6.05914E-02 1.28706E-21
6.26901E-02 1.19758E-21
6.48222E-02 1.11564E-21
6.69873E-02 1.04049E-21
6.91854E-02 9.71468E-22
7.14163E-02 9.07998E-22
7.36799E-02 8.49549E-22
7.59760E-02 7.95659E-22
7.83043E-02 7.45911E-22
8.06647E-02 6.99931E-22
8.30571E-02 6.57386E-22
8.54812E-02 6.17973E-22
8.79369E-02 5.81424E-22
9.04240E-02 5.47493E-22
9.29422E-02 5.15959E-22
9.54915E-02 4.86626E-22
9.80716E-02 4.59313E-22
1.00682E-01 4.33857E-22
1.03323E-01 4.10109E-22
1.05995E-01 3.87936E-22
1.08696E-01 3.67214E-22
1.11427E-01 3.47832E-22
1.14188E-01 3.29688E-22
1.16978E-01 3.12691E-22
1.19797E-01 2.96754E-22
1.22645E-01 2.81800E-22
1.25522E-01 2.67757E-22
1.28428E-01 2.54562E-22
1.31361E-01 2.42153E-22
1.34323E-01 2.30476E-22
1.37313E-01 2.19480E-22
1.40330E-01 2.09118E-22
1.43375E-01 1.99348E-22
1.46447E-01 1.90129E-22
1.49545E-01 1.81426E-22
1.52671E-01 1.73205E-22
1.55823E-01 1.65433E-22
1.59001E-01 1.58083E-22
1.62205E-01 1.51127E-22
1.65435E-01 1.44541E-22
1.68690E-01 1.38301E-22
1.71970E-01 1.32387E-22
1.75276E-01 1.26778E-22
1.78606E-01 1.21455E-22
1.81961E-01 1.16402E-22
1.85340E-01 1.11603E-22
1.88743E-01 1.07042E-22
1.92169E-01 1.02706E-22
1.95619E-01 9.85814E-23
1.99092E-01 9.46566E-23
2.02589E-01 9.09200E-23
2.06107E-01 8.73609E-23
2.09649E-01 8.39696E-23
2.13212E-01 8.07368E-23
2.16797E-01 7.76537E-23
2.20404E-01 7.47123E-23
2.24032E-01 7.19048E-23
2.27680E-01 6.92241E-23
2.31350E-01 6.66636E-23
2.35040E-01 6.42167E-23
2.38751E-01 6.18778E-23
2.42481E-01 5.96412E-23
2.46231E-01 5.75015E-23
2.50000E-01 5.54540E-23
2.53788E-01 5.34939E-23
2.57595E-01 5.16168E-23
2.61421E-01 4.98187E-23
2.65264E-01 4.80956E-23
2.69126E-01 4.64439E-23
2.73005E-01 4.48601E-23
2.76901E-01 4.33408E-23
2.80814E-01 4.18832E-23
2.84744E-01 4.04841E-23
2.88691E-01 3.91409E-23
2.92653E-01 3.78510E-23
2.96632E-01 3.66117E-23
3.00625E-01 3.54209E-23
3.04634E-01 3.42763E-23
3.08658E-01 3.31758E-23
3.12697E-01 3.21174E-23
3.16749E-01 3.10992E-23
3.20816E-01 3.01194E-23
3.24896E-01 2.91764E-23
3.28990E-01 2.82685E-23
3.33097E-01 2.73941E-23
3.37216E-01 2.65519E-23
3.41348E-01 2.57405E-23
3.45492E-01 2.49584E-23
3.49647E-01 2.42046E-23
3.53814E-01 2.34777E-23
3.57992E-01 2.27767E-23
3.62181E-01 2.21005E-23
3.66381E-01 2.14480E-23
3.70590E-01 2.08183E-23
3.74810E-01 2.02105E-23
3.79039E-01 1.96236E-23
3.83277E-01 1.90568E-23
3.87524E-01 1.85093E-23
3.91780E-01 1.79804E-23
3.96044E-01 1.74693E-23
4.00316E-01 1.69753E-23
4.04596E-01 1.64977E-23
4.08882E-01 1.60359E-23
4.13176E-01 1.55893E-23
4.17476E-01 1.51573E-23
4.21783E-01 1.47394E-23
4.26095E-01 1.43349E-23
4.30413E-01 1.39434E-23
4.34737E-01 1.35645E-23
4.39065E-01 1.31976E-23
4.43398E-01 1.28423E-23
4.47736E-01 1.24982E-23
4.52077E-01 1.21648E-23
4.56422E-01 1.18418E-23
4.60770E-01 1.15288E-23
4.65122E-01 1.12254E-23
4.69476E-01 1.09313E-23
4.73832E-01 1.06461E-23
4.78190E-01 1.03696E-23
4.82550E-01 1.01014E-23
4.86912E-01 9.84127E-24
4.91274E-01 9.58887E-24
4.95637E-01 9.34397E-24
5.00000E-01 9.10630E-24
5.04363E-01 8.87560E-24
5.08726E-01 8.65164E-24
5.13088E-01 8.43419E-24
5.17450E-01 8.22304E-24
5.21810E-01 8.01797E-24
5.26168E-01 7.81878E-24
5.30524E-01 7.62526E-24
5.34878E-01 7.43724E-24
5.39230E-01 7.25453E-24
5.43578E-01 7.07695E-24
5.47923E-01 6.90435E-24
5.52264E-01 6.73655E-24
5.56602E-01 6.57341E-24
5.60935E-01 6.41477E-24
5.65263E-01 6.26049E-24
5.69587E-01 6.11043E-24
5.73905E-01 5.96445E-24
5.78217E-01 5.82244E-24
5.82524E-01 5.68426E-24
5.86824E-01 5.54979E-24
5.91118E-01 5.41892E-24
5.95404E-01 5.29153E-24
5.99684E-01 5.16753E-24
6.03956E-01 5.04680E-24
6.08220E-01 4.92925E-24
6.12476E-01 4.81478E-24
6.16723E-01 4.70329E-24
6.20961E-01 4.59471E-24
6.25190E-01 4.48893E-24
6.29410E-01 4.38588E-24
6.33619E-01 4.28548E-24
6.37819E-01 4.18764E-24
6.42008E-01 4.09230E-24
6.46186E-01 3.99938E-24
6.50353E-01 3.90880E-24
6.54508E-01 3.82051E-24
6.58652E-01 3.73443E-24
6.62784E-01 3.65051E-24
6.66903E-01 3.56867E-24
6.71010E-01 3.48887E-24
6.75104E-01 3.41104E-24
6.79184E-01 3.33513E-24
6.83251E-01 3.26108E-24
6.87303E-01 3.18884E-24
6.91342E-01 3.11837E-24
6.95366E-01 3.04961E-24
6.99375E-01 2.98251E-24
7.03368E-01 2.91703E-24
7.07347E-01 2.85313E-24
7.11309E-01 2.79077E-24
7.15256E-01 2.72989E-24
7.19186E-01 2.67046E-24
7.23099E-01 2.61245E-24
7.26995E-01 2.55581E-24
7.30874E-01 2.50051E-24
7.34736E-01 2.44651E-24
7.38579E-01 2.39378E-24
7.42405E-01 2.34229E-24
7.46212E-01 2.29200E-24
7.50000E-01 2.24287E-24
7.53769E-01 2.19490E-24
7.57519E-01 2.14803E-24
7.61249E-01 2.10224E-24
7.64960E-01 2.05752E-24
7.68650E-01 2.01382E-24
7.72320E-01 1.97112E-24
7.75968E-01 1.92940E-24
7.79596E-01 1.88863E-24
7.83203E-01 1.84880E-24
7.86788E-01 1.80987E-24
7.90351E-01 1.77182E-24
7.93893E-01 1.73463E-24
7.97411E-01 1.69829E-24
8.00908E-01 1.66277E-24
8.04381E-01 1.62804E-24
8.07831E-01 1.59410E-24
8.11257E-01 1.56092E-24
8.14660E-01 1.52848E-24
8.18039E-01 1.49678E-24
8.21394E-01 1.46578E-24
8.24724E-01 1.43547E-24
8.28030E-01 1.40584E-24
8.31310E-01 1.37687E-24
8.34565E-01 1.34854E-24
8.37795E-01 1.32085E-24
8.40999E-01 1.29377E-24
8.44177E-01 1.26729E-24
8.47329E-01 1.24140E-24
8.50455E-01 1.21609E-24
8.53553E-01 1.19134E-24
8.56625E-01 1.16714E-24
8.59670E-01 1.14347E-24
8.62687E-01 1.12033E-24
8.65677E-01 1.09771E-24
8.68639E-01 1.07558E-24
8.71572E-01 1.05395E-24
8.74478E-01 1.03280E-24
8.77355E-01 1.01212E-24
8.80203E-01 9.91903E-25
8.83022E-01 9.72135E-25
8.85812E-01 9.52808E-25
8.88573E-01 9.33914E-25
8.91304E-01 9.15443E-25
8.94005E-01 8.97387E-25
8.96677E-01 8.79737E-25
8.99318E-01 8.62485E-25
9.01928E-01 8.45622E-25
9.04508E-01 8.29142E-25
9.07058E-01 8.13036E-25
9.09576E-01 7.97296E-25
9.12063E-01 7.81917E-25
9.14519E-01 7.66890E-25
9.16943E-01 7.52210E-25
9.19335E-01 7.37869E-25
9.21696E-01 7.23861E-25
9.24024E-01 7.10179E-25
9.26320E-01 6.96819E-25
9.28584E-01 6.83773E-25
9.30815E-01 6.71036E-25
9.33013E-01 6.58602E-25
9.35178E-01 6.46467E-25
9.37310E-01 6.34624E-25
9.39409E-01 6.23069E-25
9.41474E-01 6.11797E-25
9.43505E-01 6.00802E-25
9.45503E-01 5.90080E-25
9.47467E-01 5.79627E-25
9.49397E-01 5.69438E-25
9.51293E-01 5.59509E-25
9.53154E-01 5.49835E-25
9.54981E-01 5.40413E-25
9.56773E-01 5.31238E-25
9.58530E-01 5.22307E-25
9.60252E-01 5.13616E-25
9.61940E-01 5.05162E-25
9.63592E-01 4.96940E-25
9.65209E-01 4.88948E-25
9.66790E-01 4.81183E-25
9.68336E-01 4.73640E-25
9.69846E-01 4.66317E-25
9.71321E-01 4.59212E-25
9.72759E-01 4.52320E-25
9.74162E-01 4.45640E-25
9.75528E-01 4.39168E-25
9.76858E-01 4.32903E-25
9.78152E-01 4.26841E-25
9.79410E-01 4.20980E-25
9.80631E-01 4.15319E-25
9.81815E-01 4.09853E-25
9.82963E-01 4.04582E-25
9.84074E-01 3.99503E-25
9.85148E-01 3.94615E-25
9.86185E-01 3.89914E-25
9.87185E-01 3.85401E-25
9.88148E-01 3.81072E-25
9.89074E-01 3.76926E-25
9.89962E-01 3.72961E-25
9.90814E-01 3.69176E-25
9.91627E-01 3.65570E-25
9.92404E-01 3.62140E-25
9.93143E-01 3.58886E-25
9.93844E-01 3.55806E-25
9.94508E-01 3.52900E-25
9.95134E-01 3.50165E-25
9.95722E-01 3.47602E-25
9.96273E-01 3.45208E-25
9.96786E-01 3.42984E-25
9.97261E-01 3.40928E-25
9.97698E-01 3.39039E-25
9.98097E-01 3.37317E-25
9.98459E-01 3.35760E-25
9.98782E-01 3.34370E-25
9.99067E-01 3.33144E-25
9.99315E-01 3.32082E-25
9.99524E-01 3.31185E-25
9.99695E-01 3.30451E-25
9.99829E-01 3.29880E-25
9.99924E-01 3.29473E-25
9.99981E-01 3.29229E-25
1.00000E+00 3.29147E-25
