 #
 # Subroutine ELSEPA. Elastic scattering of electrons and positrons
 #                    by neutral atoms and positive ions
 #
 # Projectile: positron
 # Kinetic energy = 8.00000E+07 eV = 2.93995E+06 a.u.
 #
 # WARNING: High-energy factorization with free-atom DF screening.
 #          Absorption, polarization and exchange corrections are
 #          switched off.
 #          Phase shifts are calculated for the bare nucleus.
 #          Scattering amplitudes are not evaluated.
 #
 # Element: Pb,  Z =  82,  atomic weight = 2.07200E+02 g/mol
 #
 # Nuclear model: Fermi distribution
 #                Average radius = 6.33160E-13 cm
 #                Skin thickness = 5.46000E-14 cm
 #
 # Number of electrons = 82
 #
 # Total elastic cross section = 8.60567E-18 cm**2 = 3.07314E-01 a0**2
 # 1st transport cross section = 1.85710E-24 cm**2 = 6.63183E-08 a0**2
 # 2nd transport cross section = 5.49676E-24 cm**2 = 1.96293E-07 a0**2
 #
 #
 # Differential cross section:                       MU=(1-COS(THETA))/2
 #
 #  THETA        MU          DCS          DCS        Sherman      error
 #  (deg)                 (cm**2/sr)   (a0**2/sr)    function
 #----------------------------------------------------------------------
0.00000E+00 4.00941E-10
7.61557E-13 4.00286E-10
1.18994E-12 3.99920E-10
1.71346E-12 3.99473E-10
2.33225E-12 3.98946E-10
3.04617E-12 3.98341E-10
3.85530E-12 3.97656E-10
4.75964E-12 3.96894E-10
5.75917E-12 3.96055E-10
6.85391E-12 3.95139E-10
8.04379E-12 3.94149E-10
9.32893E-12 3.93084E-10
1.07092E-11 3.91947E-10
1.21847E-11 3.90737E-10
1.37554E-11 3.89457E-10
1.54213E-11 3.88108E-10
1.71823E-11 3.86691E-10
1.90386E-11 3.85207E-10
2.09900E-11 3.83659E-10
2.30367E-11 3.82047E-10
2.51785E-11 3.80373E-10
2.74156E-11 3.78639E-10
2.97478E-11 3.76847E-10
3.21752E-11 3.74998E-10
3.46979E-11 3.73094E-10
3.73157E-11 3.71126E-10
4.00286E-11 3.69106E-10
4.28368E-11 3.67041E-10
4.57402E-11 3.64934E-10
4.87388E-11 3.62785E-10
5.18325E-11 3.60597E-10
5.50215E-11 3.58373E-10
5.83057E-11 3.56078E-10
6.16850E-11 3.53748E-10
6.51595E-11 3.51386E-10
6.87293E-11 3.48997E-10
7.23943E-11 3.46581E-10
7.61544E-11 3.44141E-10
1.18991E-10 3.18269E-10
1.71347E-10 2.91202E-10
2.33223E-10 2.64264E-10
3.04617E-10 2.38481E-10
3.85531E-10 2.14466E-10
4.75965E-10 1.92512E-10
5.75917E-10 1.72759E-10
6.85389E-10 1.55088E-10
8.04380E-10 1.39440E-10
9.32891E-10 1.25549E-10
1.07092E-09 1.13315E-10
1.21847E-09 1.02451E-10
1.37554E-09 9.28728E-11
1.54213E-09 8.43492E-11
1.71823E-09 7.67957E-11
1.90386E-09 7.00501E-11
2.09900E-09 6.40345E-11
2.30367E-09 5.86409E-11
2.51785E-09 5.38002E-11
2.74156E-09 4.94430E-11
2.97478E-09 4.55090E-11
3.21752E-09 4.19555E-11
3.46978E-09 3.87298E-11
3.73156E-09 3.56153E-11
4.00286E-09 3.28012E-11
4.28368E-09 3.03237E-11
4.57402E-09 2.81342E-11
4.87388E-09 2.61920E-11
5.18326E-09 2.44632E-11
5.50215E-09 2.29190E-11
5.83057E-09 2.12770E-11
6.16850E-09 1.97894E-11
6.51596E-09 1.84569E-11
6.87293E-09 1.72596E-11
7.23942E-09 1.61809E-11
7.61544E-09 1.52063E-11
1.18991E-08 8.32648E-12
1.71347E-08 4.96024E-12
2.33223E-08 3.15224E-12
3.04617E-08 2.10603E-12
3.85531E-08 1.46043E-12
4.75965E-08 1.04124E-12
5.75917E-08 7.60397E-13
6.85389E-08 5.66219E-13
8.04380E-08 4.29880E-13
9.32891E-08 3.31843E-13
1.07092E-07 2.60168E-13
1.21847E-07 2.07028E-13
1.37554E-07 1.67066E-13
1.54213E-07 1.36387E-13
1.71823E-07 1.12517E-13
1.90386E-07 9.36656E-14
2.09900E-07 7.86375E-14
2.30367E-07 6.65296E-14
2.51785E-07 5.66858E-14
2.74156E-07 4.86071E-14
2.97478E-07 4.19187E-14
3.21752E-07 3.63432E-14
3.46978E-07 3.16622E-14
3.73156E-07 2.76940E-14
4.00286E-07 2.43430E-14
4.28368E-07 2.15055E-14
4.57402E-07 1.90417E-14
4.87388E-07 1.69347E-14
5.18325E-07 1.51148E-14
5.50215E-07 1.35237E-14
5.83057E-07 1.21444E-14
6.16850E-07 1.09338E-14
6.51596E-07 9.86913E-15
6.87293E-07 8.93560E-15
7.23942E-07 8.10497E-15
7.61543E-07 7.37025E-15
1.18991E-06 3.16888E-15
1.71347E-06 1.57727E-15
2.33223E-06 8.70860E-16
3.04617E-06 5.19563E-16
3.85531E-06 3.28959E-16
4.75964E-06 2.18264E-16
5.75916E-06 1.50425E-16
6.85388E-06 1.06984E-16
8.04378E-06 7.81312E-17
9.32888E-06 5.83704E-17
1.07092E-05 4.44739E-17
1.21846E-05 3.44736E-17
1.37553E-05 2.71308E-17
1.54212E-05 2.16422E-17
1.71822E-05 1.74734E-17
1.90385E-05 1.42525E-17
2.09899E-05 1.17561E-17
2.30365E-05 9.78121E-18
2.51783E-05 8.20146E-18
2.74153E-05 6.92611E-18
2.97475E-05 5.88831E-18
3.21749E-05 5.03773E-18
3.46974E-05 4.33578E-18
3.73152E-05 3.75247E-18
4.00281E-05 3.26443E-18
4.28362E-05 2.85339E-18
4.57395E-05 2.50499E-18
4.87380E-05 2.20805E-18
5.18317E-05 1.95364E-18
5.50205E-05 1.73474E-18
5.83045E-05 1.54558E-18
6.16838E-05 1.38152E-18
6.51582E-05 1.23869E-18
6.87277E-05 1.11388E-18
7.23925E-05 1.00442E-18
7.61524E-05 9.08117E-19
9.21439E-05 6.21075E-19
1.09658E-04 4.38913E-19
1.28695E-04 3.18877E-19
1.49255E-04 2.37169E-19
1.71338E-04 1.80018E-19
1.94942E-04 1.39074E-19
2.20070E-04 1.09126E-19
2.46720E-04 8.68147E-20
2.74892E-04 6.99195E-20
3.04586E-04 5.69369E-20
3.35803E-04 4.68295E-20
3.68542E-04 3.88659E-20
4.02802E-04 3.25235E-20
4.38585E-04 2.74221E-20
4.75889E-04 2.32815E-20
5.14715E-04 1.98928E-20
5.55063E-04 1.70980E-20
5.96931E-04 1.47765E-20
6.40321E-04 1.28354E-20
6.85233E-04 1.12023E-20
7.31665E-04 9.82055E-21
7.79618E-04 8.64502E-21
8.29092E-04 7.63998E-21
8.80086E-04 6.77658E-21
9.32601E-04 6.03155E-21
9.86636E-04 5.38598E-21
1.04219E-03 4.82433E-21
1.09927E-03 4.33390E-21
1.15786E-03 3.90410E-21
1.21797E-03 3.52618E-21
1.27961E-03 3.19279E-21
1.34276E-03 2.89781E-21
1.40743E-03 2.63604E-21
1.47362E-03 2.40311E-21
1.54133E-03 2.19527E-21
1.61056E-03 2.00939E-21
1.68131E-03 1.84270E-21
1.75357E-03 1.69291E-21
1.82735E-03 1.55798E-21
1.90265E-03 1.43620E-21
1.97947E-03 1.32606E-21
2.05780E-03 1.22624E-21
2.13765E-03 1.13561E-21
2.21902E-03 1.05317E-21
2.30190E-03 9.78054E-22
2.38630E-03 9.09493E-22
2.47222E-03 8.46818E-22
2.55965E-03 7.89428E-22
2.64859E-03 7.36801E-22
2.73905E-03 6.88472E-22
2.83103E-03 6.44024E-22
2.92452E-03 6.03092E-22
3.01952E-03 5.65348E-22
3.11604E-03 5.30498E-22
3.21407E-03 4.98281E-22
3.31362E-03 4.68463E-22
3.41468E-03 4.40831E-22
3.51725E-03 4.15198E-22
3.62133E-03 3.91394E-22
3.72692E-03 3.69263E-22
3.83403E-03 3.48667E-22
3.94265E-03 3.29482E-22
4.05278E-03 3.11594E-22
4.16442E-03 2.94901E-22
4.27757E-03 2.79295E-22
4.39223E-03 2.64699E-22
4.50840E-03 2.51037E-22
4.62608E-03 2.38241E-22
4.74527E-03 2.26244E-22
4.86597E-03 2.14989E-22
4.98817E-03 2.04419E-22
5.11188E-03 1.94488E-22
5.23711E-03 1.85147E-22
5.36383E-03 1.76357E-22
5.49207E-03 1.68079E-22
5.62181E-03 1.60277E-22
5.75306E-03 1.52919E-22
5.88581E-03 1.45975E-22
6.02007E-03 1.39418E-22
6.15583E-03 1.33222E-22
6.29310E-03 1.27364E-22
6.43187E-03 1.21821E-22
6.57214E-03 1.16574E-22
6.71392E-03 1.11604E-22
6.85720E-03 1.06893E-22
7.00198E-03 1.02427E-22
7.14827E-03 9.81886E-23
7.29605E-03 9.41655E-23
7.44534E-03 9.03442E-23
7.59612E-03 8.67130E-23
7.97965E-03 7.83944E-23
8.37255E-03 7.10402E-23
8.77480E-03 6.45197E-23
9.18641E-03 5.87224E-23
9.60736E-03 5.35547E-23
1.00376E-02 4.89365E-23
1.04773E-02 4.47995E-23
1.09262E-02 4.10850E-23
1.13844E-02 3.77426E-23
1.18520E-02 3.47286E-23
1.23288E-02 3.20052E-23
1.28150E-02 2.95397E-23
1.33104E-02 2.73034E-23
1.38150E-02 2.52714E-23
1.43290E-02 2.34218E-23
1.48521E-02 2.17355E-23
1.53845E-02 2.01956E-23
1.59262E-02 1.87872E-23
1.64770E-02 1.74971E-23
1.70371E-02 1.63137E-23
1.76063E-02 1.52267E-23
1.81848E-02 1.42268E-23
1.87724E-02 1.33059E-23
1.93692E-02 1.24567E-23
1.99751E-02 1.16727E-23
2.05901E-02 1.09479E-23
2.12143E-02 1.02772E-23
2.18476E-02 9.65575E-24
2.24900E-02 9.07942E-24
2.31415E-02 8.54434E-24
2.38021E-02 8.04706E-24
2.44717E-02 7.58444E-24
2.51504E-02 7.15367E-24
2.58382E-02 6.75218E-24
2.65349E-02 6.37763E-24
2.72407E-02 6.02792E-24
2.79555E-02 5.70113E-24
2.86793E-02 5.39548E-24
2.94120E-02 5.10939E-24
3.01537E-02 4.84139E-24
3.09043E-02 4.59015E-24
3.16639E-02 4.35444E-24
3.24324E-02 4.13314E-24
3.32098E-02 3.92522E-24
3.39961E-02 3.72973E-24
3.47912E-02 3.54582E-24
3.55952E-02 3.37268E-24
3.64081E-02 3.20957E-24
3.72297E-02 3.05582E-24
3.80602E-02 2.91080E-24
3.88995E-02 2.77393E-24
3.97476E-02 2.64468E-24
4.06044E-02 2.52256E-24
4.14700E-02 2.40710E-24
4.23443E-02 2.29789E-24
4.32273E-02 2.19453E-24
4.41190E-02 2.09665E-24
4.50194E-02 2.00392E-24
4.59284E-02 1.91603E-24
4.68461E-02 1.83267E-24
4.87074E-02 1.67851E-24
5.06030E-02 1.53947E-24
5.25328E-02 1.41385E-24
5.44967E-02 1.30016E-24
5.64946E-02 1.19710E-24
5.85262E-02 1.10351E-24
6.05914E-02 1.01841E-24
6.26901E-02 9.40912E-25
6.48222E-02 8.70232E-25
6.69873E-02 8.05685E-25
6.91854E-02 7.46662E-25
7.14163E-02 6.92620E-25
7.36799E-02 6.43080E-25
7.59760E-02 5.97612E-25
7.83043E-02 5.55834E-25
8.06647E-02 5.17405E-25
8.30571E-02 4.82018E-25
8.54812E-02 4.49398E-25
8.79369E-02 4.19300E-25
9.04240E-02 3.91501E-25
9.29422E-02 3.65802E-25
9.54915E-02 3.42022E-25
9.80716E-02 3.19999E-25
1.00682E-01 2.99585E-25
1.03323E-01 2.80648E-25
1.05995E-01 2.63066E-25
1.08696E-01 2.46730E-25
1.11427E-01 2.31539E-25
1.14188E-01 2.17404E-25
1.16978E-01 2.04240E-25
1.19797E-01 1.91974E-25
1.22645E-01 1.80536E-25
1.25522E-01 1.69863E-25
1.28428E-01 1.59897E-25
1.31361E-01 1.50587E-25
1.34323E-01 1.41883E-25
1.37313E-01 1.33741E-25
1.40330E-01 1.26121E-25
1.43375E-01 1.18984E-25
1.46447E-01 1.12298E-25
1.49545E-01 1.06030E-25
1.52671E-01 1.00150E-25
1.55823E-01 9.46324E-26
1.59001E-01 8.94519E-26
1.62205E-01 8.45855E-26
1.65435E-01 8.00122E-26
1.68690E-01 7.57121E-26
1.71970E-01 7.16673E-26
1.75276E-01 6.78608E-26
1.78606E-01 6.42772E-26
1.81961E-01 6.09020E-26
1.85340E-01 5.77217E-26
1.88743E-01 5.47238E-26
1.92169E-01 5.18969E-26
1.95619E-01 4.92302E-26
1.99092E-01 4.67137E-26
2.02589E-01 4.43379E-26
2.06107E-01 4.20943E-26
2.09649E-01 3.99748E-26
2.13212E-01 3.79718E-26
2.16797E-01 3.60783E-26
2.20404E-01 3.42877E-26
2.24032E-01 3.25939E-26
2.27680E-01 3.09911E-26
2.31350E-01 2.94740E-26
2.35040E-01 2.80376E-26
2.38751E-01 2.66772E-26
2.42481E-01 2.53884E-26
2.46231E-01 2.41670E-26
2.50000E-01 2.30093E-26
2.53788E-01 2.19116E-26
2.57595E-01 2.08705E-26
2.61421E-01 1.98829E-26
2.65264E-01 1.89457E-26
2.69126E-01 1.80562E-26
2.73005E-01 1.72117E-26
2.76901E-01 1.64098E-26
2.80814E-01 1.56481E-26
2.84744E-01 1.49245E-26
2.88691E-01 1.42368E-26
2.92653E-01 1.35832E-26
2.96632E-01 1.29618E-26
3.00625E-01 1.23709E-26
3.04634E-01 1.18089E-26
3.08658E-01 1.12743E-26
3.12697E-01 1.07656E-26
3.16749E-01 1.02814E-26
3.20816E-01 9.82062E-27
3.24896E-01 9.38187E-27
3.28990E-01 8.96408E-27
3.33097E-01 8.56615E-27
3.37216E-01 8.18709E-27
3.41348E-01 7.82592E-27
3.45492E-01 7.48175E-27
3.49647E-01 7.15370E-27
3.53814E-01 6.84098E-27
3.57992E-01 6.54281E-27
3.62181E-01 6.25848E-27
3.66381E-01 5.98728E-27
3.70590E-01 5.72858E-27
3.74810E-01 5.48176E-27
3.79039E-01 5.24623E-27
3.83277E-01 5.02145E-27
3.87524E-01 4.80688E-27
3.91780E-01 4.60204E-27
3.96044E-01 4.40645E-27
4.00316E-01 4.21967E-27
4.04596E-01 4.04128E-27
4.08882E-01 3.87087E-27
4.13176E-01 3.70806E-27
4.17476E-01 3.55250E-27
4.21783E-01 3.40383E-27
4.26095E-01 3.26174E-27
4.30413E-01 3.12592E-27
4.34737E-01 2.99607E-27
4.39065E-01 2.87191E-27
4.43398E-01 2.75318E-27
4.47736E-01 2.63962E-27
4.52077E-01 2.53101E-27
4.56422E-01 2.42710E-27
4.60770E-01 2.32768E-27
4.65122E-01 2.23256E-27
4.69476E-01 2.14152E-27
4.73832E-01 2.05439E-27
4.78190E-01 1.97099E-27
4.82550E-01 1.89114E-27
4.86912E-01 1.81469E-27
4.91274E-01 1.74149E-27
4.95637E-01 1.67139E-27
5.00000E-01 1.60425E-27
5.04363E-01 1.53994E-27
5.08726E-01 1.47834E-27
5.13088E-01 1.41931E-27
5.17450E-01 1.36276E-27
5.21810E-01 1.30856E-27
5.26168E-01 1.25662E-27
5.30524E-01 1.20684E-27
5.34878E-01 1.15912E-27
5.39230E-01 1.11337E-27
5.43578E-01 1.06951E-27
5.47923E-01 1.02746E-27
5.52264E-01 9.87131E-28
5.56602E-01 9.48455E-28
5.60935E-01 9.11359E-28
5.65263E-01 8.75776E-28
5.69587E-01 8.41641E-28
5.73905E-01 8.08893E-28
5.78217E-01 7.77471E-28
5.82524E-01 7.47319E-28
5.86824E-01 7.18384E-28
5.91118E-01 6.90614E-28
5.95404E-01 6.63959E-28
5.99684E-01 6.38373E-28
6.03956E-01 6.13810E-28
6.08220E-01 5.90228E-28
6.12476E-01 5.67586E-28
6.16723E-01 5.45844E-28
6.20961E-01 5.24965E-28
6.25190E-01 5.04913E-28
6.29410E-01 4.85653E-28
6.33619E-01 4.67153E-28
6.37819E-01 4.49381E-28
6.42008E-01 4.32307E-28
6.46186E-01 4.15904E-28
6.50353E-01 4.00142E-28
6.54508E-01 3.84996E-28
6.58652E-01 3.70440E-28
6.62784E-01 3.56451E-28
6.66903E-01 3.43006E-28
6.71010E-01 3.30082E-28
6.75104E-01 3.17658E-28
6.79184E-01 3.05714E-28
6.83251E-01 2.94230E-28
6.87303E-01 2.83189E-28
6.91342E-01 2.72572E-28
6.95366E-01 2.62362E-28
6.99375E-01 2.52543E-28
7.03368E-01 2.43099E-28
7.07347E-01 2.34016E-28
7.11309E-01 2.25279E-28
7.15256E-01 2.16874E-28
7.19186E-01 2.08788E-28
7.23099E-01 2.01008E-28
7.26995E-01 1.93523E-28
7.30874E-01 1.86320E-28
7.34736E-01 1.79389E-28
7.38579E-01 1.72719E-28
7.42405E-01 1.66299E-28
7.46212E-01 1.60121E-28
7.50000E-01 1.54174E-28
7.53769E-01 1.48449E-28
7.57519E-01 1.42938E-28
7.61249E-01 1.37632E-28
7.64960E-01 1.32524E-28
7.68650E-01 1.27606E-28
7.72320E-01 1.22870E-28
7.75968E-01 1.18310E-28
7.79596E-01 1.13919E-28
7.83203E-01 1.09689E-28
7.86788E-01 1.05616E-28
7.90351E-01 1.01693E-28
7.93893E-01 9.79141E-29
7.97411E-01 9.42739E-29
8.00908E-01 9.07673E-29
8.04381E-01 8.73891E-29
8.07831E-01 8.41344E-29
8.11257E-01 8.09986E-29
8.14660E-01 7.79772E-29
8.18039E-01 7.50658E-29
8.21394E-01 7.22604E-29
8.24724E-01 6.95568E-29
8.28030E-01 6.69514E-29
8.31310E-01 6.44403E-29
8.34565E-01 6.20202E-29
8.37795E-01 5.96875E-29
8.40999E-01 5.74390E-29
8.44177E-01 5.52716E-29
8.47329E-01 5.31823E-29
8.50455E-01 5.11682E-29
8.53553E-01 4.92264E-29
8.56625E-01 4.73544E-29
8.59670E-01 4.55495E-29
8.62687E-01 4.38092E-29
8.65677E-01 4.21313E-29
8.68639E-01 4.05133E-29
8.71572E-01 3.89532E-29
8.74478E-01 3.74487E-29
8.77355E-01 3.59980E-29
8.80203E-01 3.45989E-29
8.83022E-01 3.32496E-29
8.85812E-01 3.19484E-29
8.88573E-01 3.06934E-29
8.91304E-01 2.94830E-29
8.94005E-01 2.83156E-29
8.96677E-01 2.71897E-29
8.99318E-01 2.61038E-29
9.01928E-01 2.50563E-29
9.04508E-01 2.40460E-29
9.07058E-01 2.30716E-29
9.09576E-01 2.21317E-29
9.12063E-01 2.12251E-29
9.14519E-01 2.03507E-29
9.16943E-01 1.95072E-29
9.19335E-01 1.86937E-29
9.21696E-01 1.79091E-29
9.24024E-01 1.71523E-29
9.26320E-01 1.64224E-29
9.28584E-01 1.57184E-29
9.30815E-01 1.50395E-29
9.33013E-01 1.43847E-29
9.35178E-01 1.37533E-29
9.37310E-01 1.31444E-29
9.39409E-01 1.25573E-29
9.41474E-01 1.19913E-29
9.43505E-01 1.14455E-29
9.45503E-01 1.09193E-29
9.47467E-01 1.04121E-29
9.49397E-01 9.92329E-30
9.51293E-01 9.45214E-30
9.53154E-01 8.99811E-30
9.54981E-01 8.56065E-30
9.56773E-01 8.13920E-30
9.58530E-01 7.73324E-30
9.60252E-01 7.34227E-30
9.61940E-01 6.96580E-30
9.63592E-01 6.60337E-30
9.65209E-01 6.25454E-30
9.66790E-01 5.91887E-30
9.68336E-01 5.59596E-30
9.69846E-01 5.28540E-30
9.71321E-01 4.98682E-30
9.72759E-01 4.69985E-30
9.74162E-01 4.42415E-30
9.75528E-01 4.15937E-30
9.76858E-01 3.90521E-30
9.78152E-01 3.66134E-30
9.79410E-01 3.42747E-30
9.80631E-01 3.20332E-30
9.81815E-01 2.98862E-30
9.82963E-01 2.78311E-30
9.84074E-01 2.58655E-30
9.85148E-01 2.39869E-30
9.86185E-01 2.21932E-30
9.87185E-01 2.04821E-30
9.88148E-01 1.88516E-30
9.89074E-01 1.72998E-30
9.89962E-01 1.58248E-30
9.90814E-01 1.44248E-30
9.91627E-01 1.30983E-30
9.92404E-01 1.18435E-30
9.93143E-01 1.06591E-30
9.93844E-01 9.54350E-31
9.94508E-01 8.49554E-31
9.95134E-01 7.51390E-31
9.95722E-01 6.59745E-31
9.96273E-01 5.74508E-31
9.96786E-01 4.95579E-31
9.97261E-01 4.22864E-31
9.97698E-01 3.56278E-31
9.98097E-01 2.95742E-31
9.98459E-01 2.41184E-31
9.98782E-01 1.92541E-31
9.99067E-01 1.49754E-31
9.99315E-01 1.12773E-31
9.99524E-01 8.15556E-32
9.99695E-01 5.60639E-32
9.99829E-01 3.62680E-32
9.99924E-01 2.21447E-32
9.99981E-01 1.36773E-32
1.00000E+00 1.08560E-32
