 #
 # Subroutine ELSEPA. Elastic scattering of electrons and positrons
 #                    by neutral atoms and positive ions
 #
 # Projectile: positron
 # Kinetic energy = 3.50000E+06 eV = 1.28623E+05 a.u.
 #
 # WARNING: High-energy factorization with free-atom DF screening.
 #          Absorption, polarization and exchange corrections are
 #          switched off.
 #          Phase shifts are calculated for the bare nucleus.
 #          Scattering amplitudes are not evaluated.
 #
 # Element: Pb,  Z =  82,  atomic weight = 2.07200E+02 g/mol
 #
 # Nuclear model: Fermi distribution
 #                Average radius = 6.33160E-13 cm
 #                Skin thickness = 5.46000E-14 cm
 #
 # Number of electrons = 82
 #
 # Total elastic cross section = 8.73121E-18 cm**2 = 3.11797E-01 a0**2
 # 1st transport cross section = 4.73972E-22 cm**2 = 1.69258E-05 a0**2
 # 2nd transport cross section = 1.35695E-21 cm**2 = 4.84577E-05 a0**2
 #
 #
 # Differential cross section:                       MU=(1-COS(THETA))/2
 #
 #  THETA        MU          DCS          DCS        Sherman      error
 #  (deg)                 (cm**2/sr)   (a0**2/sr)    function
 #----------------------------------------------------------------------
0.00000E+00 9.95120E-13
7.61557E-13 9.95115E-13
1.18994E-12 9.95112E-13
1.71346E-12 9.95109E-13
2.33225E-12 9.95105E-13
3.04617E-12 9.95101E-13
3.85530E-12 9.95097E-13
4.75964E-12 9.95092E-13
5.75917E-12 9.95086E-13
6.85391E-12 9.95080E-13
8.04379E-12 9.95074E-13
9.32893E-12 9.95067E-13
1.07092E-11 9.95060E-13
1.21847E-11 9.95052E-13
1.37554E-11 9.95043E-13
1.54213E-11 9.95034E-13
1.71823E-11 9.95025E-13
1.90386E-11 9.95015E-13
2.09900E-11 9.95004E-13
2.30367E-11 9.94993E-13
2.51785E-11 9.94982E-13
2.74156E-11 9.94970E-13
2.97478E-11 9.94958E-13
3.21752E-11 9.94945E-13
3.46979E-11 9.94931E-13
3.73157E-11 9.94918E-13
4.00286E-11 9.94903E-13
4.28368E-11 9.94888E-13
4.57402E-11 9.94873E-13
4.87388E-11 9.94857E-13
5.18325E-11 9.94841E-13
5.50215E-11 9.94824E-13
5.83057E-11 9.94807E-13
6.16850E-11 9.94789E-13
6.51595E-11 9.94770E-13
6.87293E-11 9.94752E-13
7.23943E-11 9.94732E-13
7.61544E-11 9.94713E-13
1.18991E-10 9.94487E-13
1.71347E-10 9.94213E-13
2.33223E-10 9.93890E-13
3.04617E-10 9.93517E-13
3.85531E-10 9.93096E-13
4.75965E-10 9.92626E-13
5.75917E-10 9.92107E-13
6.85389E-10 9.91540E-13
8.04380E-10 9.90924E-13
9.32891E-10 9.90260E-13
1.07092E-09 9.89548E-13
1.21847E-09 9.88788E-13
1.37554E-09 9.87980E-13
1.54213E-09 9.87125E-13
1.71823E-09 9.86222E-13
1.90386E-09 9.85273E-13
2.09900E-09 9.84277E-13
2.30367E-09 9.83234E-13
2.51785E-09 9.82145E-13
2.74156E-09 9.81010E-13
2.97478E-09 9.79830E-13
3.21752E-09 9.78604E-13
3.46978E-09 9.77333E-13
3.73156E-09 9.76018E-13
4.00286E-09 9.74658E-13
4.28368E-09 9.73254E-13
4.57402E-09 9.71807E-13
4.87388E-09 9.70316E-13
5.18326E-09 9.68783E-13
5.50215E-09 9.67206E-13
5.83057E-09 9.65588E-13
6.16850E-09 9.63928E-13
6.51596E-09 9.62227E-13
6.87293E-09 9.60485E-13
7.23942E-09 9.58702E-13
7.61544E-09 9.56880E-13
1.18991E-08 9.36556E-13
1.71347E-08 9.12701E-13
2.33223E-08 8.86014E-13
3.04617E-08 8.56871E-13
3.85531E-08 8.25890E-13
4.75965E-08 7.93691E-13
5.75917E-08 7.60765E-13
6.85389E-08 7.27319E-13
8.04380E-08 6.94007E-13
9.32891E-08 6.61172E-13
1.07092E-07 6.28953E-13
1.21847E-07 5.97539E-13
1.37554E-07 5.67263E-13
1.54213E-07 5.38237E-13
1.71823E-07 5.10318E-13
1.90386E-07 4.83729E-13
2.09900E-07 4.58531E-13
2.30367E-07 4.34668E-13
2.51785E-07 4.11978E-13
2.74156E-07 3.90612E-13
2.97478E-07 3.70516E-13
3.21752E-07 3.51532E-13
3.46978E-07 3.33627E-13
3.73156E-07 3.16824E-13
4.00286E-07 3.01056E-13
4.28368E-07 2.86127E-13
4.57402E-07 2.72109E-13
4.87388E-07 2.58952E-13
5.18325E-07 2.46566E-13
5.50215E-07 2.34849E-13
5.83057E-07 2.23842E-13
6.16850E-07 2.13493E-13
6.51596E-07 2.03697E-13
6.87293E-07 1.94445E-13
7.23942E-07 1.85732E-13
7.61543E-07 1.77521E-13
1.18991E-06 1.15611E-13
1.71347E-06 7.72561E-14
2.33223E-06 5.43809E-14
3.04617E-06 3.87914E-14
3.85531E-06 2.84028E-14
4.75964E-06 2.13322E-14
5.75916E-06 1.63518E-14
6.85388E-06 1.27047E-14
8.04378E-06 1.00584E-14
9.32888E-06 8.08843E-15
1.07092E-05 6.57844E-15
1.21846E-05 5.40239E-15
1.37553E-05 4.48290E-15
1.54212E-05 3.75291E-15
1.71822E-05 3.15817E-15
1.90385E-05 2.67399E-15
2.09899E-05 2.28192E-15
2.30365E-05 1.95732E-15
2.51783E-05 1.68492E-15
2.74153E-05 1.45782E-15
2.97475E-05 1.26736E-15
3.21749E-05 1.10619E-15
3.46974E-05 9.69985E-16
3.73152E-05 8.54160E-16
4.00281E-05 7.54910E-16
4.28362E-05 6.69589E-16
4.57395E-05 5.96250E-16
4.87380E-05 5.32897E-16
5.18317E-05 4.77869E-16
5.50205E-05 4.29799E-16
5.83045E-05 3.87748E-16
6.16838E-05 3.50822E-16
6.51582E-05 3.18197E-16
6.87277E-05 2.89307E-16
7.23925E-05 2.63677E-16
7.61524E-05 2.40861E-16
9.21439E-05 1.70989E-16
1.09658E-04 1.24861E-16
1.28695E-04 9.33241E-17
1.49255E-04 7.11034E-17
1.71338E-04 5.51526E-17
1.94942E-04 4.34200E-17
2.20070E-04 3.46644E-17
2.46720E-04 2.80158E-17
2.74892E-04 2.28731E-17
3.04586E-04 1.88595E-17
3.35803E-04 1.56912E-17
3.68542E-04 1.31599E-17
4.02802E-04 1.11137E-17
4.38585E-04 9.45079E-18
4.75889E-04 8.08762E-18
5.14715E-04 6.95983E-18
5.55063E-04 6.02103E-18
5.96931E-04 5.23548E-18
6.40321E-04 4.57397E-18
6.85233E-04 4.01278E-18
7.31665E-04 3.53518E-18
7.79618E-04 3.12664E-18
8.29092E-04 2.77537E-18
8.80086E-04 2.47185E-18
9.32601E-04 2.20879E-18
9.86636E-04 1.97986E-18
1.04219E-03 1.77972E-18
1.09927E-03 1.60422E-18
1.15786E-03 1.44985E-18
1.21797E-03 1.31363E-18
1.27961E-03 1.19292E-18
1.34276E-03 1.08578E-18
1.40743E-03 9.90402E-19
1.47362E-03 9.05241E-19
1.54133E-03 8.28993E-19
1.61056E-03 7.60602E-19
1.68131E-03 6.99115E-19
1.75357E-03 6.43675E-19
1.82735E-03 5.93603E-19
1.90265E-03 5.48301E-19
1.97947E-03 5.07226E-19
2.05780E-03 4.69892E-19
2.13765E-03 4.35923E-19
2.21902E-03 4.04962E-19
2.30190E-03 3.76683E-19
2.38630E-03 3.50814E-19
2.47222E-03 3.27122E-19
2.55965E-03 3.05389E-19
2.64859E-03 2.85415E-19
2.73905E-03 2.67041E-19
2.83103E-03 2.50117E-19
2.92452E-03 2.34505E-19
3.01952E-03 2.20082E-19
3.11604E-03 2.06747E-19
3.21407E-03 1.94403E-19
3.31362E-03 1.82959E-19
3.41468E-03 1.72340E-19
3.51725E-03 1.62478E-19
3.62133E-03 1.53307E-19
3.72692E-03 1.44769E-19
3.83403E-03 1.36815E-19
3.94265E-03 1.29397E-19
4.05278E-03 1.22472E-19
4.16442E-03 1.16000E-19
4.27757E-03 1.09949E-19
4.39223E-03 1.04285E-19
4.50840E-03 9.89791E-20
4.62608E-03 9.40041E-20
4.74527E-03 8.93364E-20
4.86597E-03 8.49535E-20
4.98817E-03 8.08338E-20
5.11188E-03 7.69598E-20
5.23711E-03 7.33141E-20
5.36383E-03 6.98803E-20
5.49207E-03 6.66439E-20
5.62181E-03 6.35919E-20
5.75306E-03 6.07117E-20
5.88581E-03 5.79916E-20
6.02007E-03 5.54213E-20
6.15583E-03 5.29911E-20
6.29310E-03 5.06920E-20
6.43187E-03 4.85153E-20
6.57214E-03 4.64537E-20
6.71392E-03 4.44998E-20
6.85720E-03 4.26469E-20
7.00198E-03 4.08889E-20
7.14827E-03 3.92201E-20
7.29605E-03 3.76351E-20
7.44534E-03 3.61287E-20
7.59612E-03 3.46966E-20
7.97965E-03 3.14132E-20
8.37255E-03 2.85069E-20
8.77480E-03 2.59272E-20
9.18641E-03 2.36312E-20
9.60736E-03 2.15822E-20
1.00376E-02 1.97493E-20
1.04773E-02 1.81057E-20
1.09262E-02 1.66285E-20
1.13844E-02 1.52980E-20
1.18520E-02 1.40970E-20
1.23288E-02 1.30109E-20
1.28150E-02 1.20266E-20
1.33104E-02 1.11330E-20
1.38150E-02 1.03203E-20
1.43290E-02 9.57990E-21
1.48521E-02 8.90416E-21
1.53845E-02 8.28657E-21
1.59262E-02 7.72123E-21
1.64770E-02 7.20283E-21
1.70371E-02 6.72689E-21
1.76063E-02 6.28932E-21
1.81848E-02 5.88645E-21
1.87724E-02 5.51503E-21
1.93692E-02 5.17221E-21
1.99751E-02 4.85540E-21
2.05901E-02 4.56224E-21
2.12143E-02 4.29067E-21
2.18476E-02 4.03884E-21
2.24900E-02 3.80504E-21
2.31415E-02 3.58775E-21
2.38021E-02 3.38560E-21
2.44717E-02 3.19736E-21
2.51504E-02 3.02188E-21
2.58382E-02 2.85815E-21
2.65349E-02 2.70526E-21
2.72407E-02 2.56235E-21
2.79555E-02 2.42865E-21
2.86793E-02 2.30346E-21
2.94120E-02 2.18615E-21
3.01537E-02 2.07614E-21
3.09043E-02 1.97288E-21
3.16639E-02 1.87589E-21
3.24324E-02 1.78472E-21
3.32098E-02 1.69895E-21
3.39961E-02 1.61822E-21
3.47912E-02 1.54217E-21
3.55952E-02 1.47049E-21
3.64081E-02 1.40287E-21
3.72297E-02 1.33904E-21
3.80602E-02 1.27877E-21
3.88995E-02 1.22180E-21
3.97476E-02 1.16793E-21
4.06044E-02 1.11696E-21
4.14700E-02 1.06870E-21
4.23443E-02 1.02299E-21
4.32273E-02 9.79668E-22
4.41190E-02 9.38584E-22
4.50194E-02 8.99600E-22
4.59284E-02 8.62594E-22
4.68461E-02 8.27445E-22
4.87074E-02 7.62288E-22
5.06030E-02 7.03337E-22
5.25328E-02 6.49899E-22
5.44967E-02 6.01373E-22
5.64946E-02 5.57230E-22
5.85262E-02 5.17007E-22
6.05914E-02 4.80297E-22
6.26901E-02 4.46741E-22
6.48222E-02 4.16021E-22
6.69873E-02 3.87857E-22
6.91854E-02 3.62001E-22
7.14163E-02 3.38229E-22
7.36799E-02 3.16347E-22
7.59760E-02 2.96177E-22
7.83043E-02 2.77563E-22
8.06647E-02 2.60365E-22
8.30571E-02 2.44456E-22
8.54812E-02 2.29723E-22
8.79369E-02 2.16063E-22
9.04240E-02 2.03386E-22
9.29422E-02 1.91609E-22
9.54915E-02 1.80657E-22
9.80716E-02 1.70461E-22
1.00682E-01 1.60962E-22
1.03323E-01 1.52102E-22
1.05995E-01 1.43832E-22
1.08696E-01 1.36105E-22
1.11427E-01 1.28880E-22
1.14188E-01 1.22118E-22
1.16978E-01 1.15785E-22
1.19797E-01 1.09849E-22
1.22645E-01 1.04280E-22
1.25522E-01 9.90526E-23
1.28428E-01 9.41413E-23
1.31361E-01 8.95240E-23
1.34323E-01 8.51798E-23
1.37313E-01 8.10901E-23
1.40330E-01 7.72373E-23
1.43375E-01 7.36052E-23
1.46447E-01 7.01792E-23
1.49545E-01 6.69454E-23
1.52671E-01 6.38911E-23
1.55823E-01 6.10048E-23
1.59001E-01 5.82756E-23
1.62205E-01 5.56935E-23
1.65435E-01 5.32490E-23
1.68690E-01 5.09337E-23
1.71970E-01 4.87397E-23
1.75276E-01 4.66592E-23
1.78606E-01 4.46856E-23
1.81961E-01 4.28124E-23
1.85340E-01 4.10335E-23
1.88743E-01 3.93434E-23
1.92169E-01 3.77370E-23
1.95619E-01 3.62093E-23
1.99092E-01 3.47558E-23
2.02589E-01 3.33723E-23
2.06107E-01 3.20549E-23
2.09649E-01 3.07998E-23
2.13212E-01 2.96037E-23
2.16797E-01 2.84632E-23
2.20404E-01 2.73753E-23
2.24032E-01 2.63371E-23
2.27680E-01 2.53461E-23
2.31350E-01 2.43997E-23
2.35040E-01 2.34955E-23
2.38751E-01 2.26314E-23
2.42481E-01 2.18052E-23
2.46231E-01 2.10150E-23
2.50000E-01 2.02590E-23
2.53788E-01 1.95354E-23
2.57595E-01 1.88426E-23
2.61421E-01 1.81791E-23
2.65264E-01 1.75434E-23
2.69126E-01 1.69342E-23
2.73005E-01 1.63501E-23
2.76901E-01 1.57900E-23
2.80814E-01 1.52526E-23
2.84744E-01 1.47370E-23
2.88691E-01 1.42421E-23
2.92653E-01 1.37669E-23
2.96632E-01 1.33104E-23
3.00625E-01 1.28719E-23
3.04634E-01 1.24505E-23
3.08658E-01 1.20455E-23
3.12697E-01 1.16560E-23
3.16749E-01 1.12813E-23
3.20816E-01 1.09209E-23
3.24896E-01 1.05741E-23
3.28990E-01 1.02402E-23
3.33097E-01 9.91879E-24
3.37216E-01 9.60924E-24
3.41348E-01 9.31104E-24
3.45492E-01 9.02373E-24
3.49647E-01 8.74682E-24
3.53814E-01 8.47988E-24
3.57992E-01 8.22250E-24
3.62181E-01 7.97426E-24
3.66381E-01 7.73479E-24
3.70590E-01 7.50373E-24
3.74810E-01 7.28074E-24
3.79039E-01 7.06548E-24
3.83277E-01 6.85764E-24
3.87524E-01 6.65693E-24
3.91780E-01 6.46306E-24
3.96044E-01 6.27575E-24
4.00316E-01 6.09475E-24
4.04596E-01 5.91981E-24
4.08882E-01 5.75069E-24
4.13176E-01 5.58716E-24
4.17476E-01 5.42902E-24
4.21783E-01 5.27604E-24
4.26095E-01 5.12805E-24
4.30413E-01 4.98484E-24
4.34737E-01 4.84625E-24
4.39065E-01 4.71208E-24
4.43398E-01 4.58219E-24
4.47736E-01 4.45640E-24
4.52077E-01 4.33458E-24
4.56422E-01 4.21657E-24
4.60770E-01 4.10223E-24
4.65122E-01 3.99144E-24
4.69476E-01 3.88405E-24
4.73832E-01 3.77997E-24
4.78190E-01 3.67905E-24
4.82550E-01 3.58120E-24
4.86912E-01 3.48631E-24
4.91274E-01 3.39426E-24
4.95637E-01 3.30497E-24
5.00000E-01 3.21833E-24
5.04363E-01 3.13425E-24
5.08726E-01 3.05265E-24
5.13088E-01 2.97344E-24
5.17450E-01 2.89654E-24
5.21810E-01 2.82187E-24
5.26168E-01 2.74936E-24
5.30524E-01 2.67893E-24
5.34878E-01 2.61052E-24
5.39230E-01 2.54405E-24
5.43578E-01 2.47947E-24
5.47923E-01 2.41672E-24
5.52264E-01 2.35572E-24
5.56602E-01 2.29643E-24
5.60935E-01 2.23879E-24
5.65263E-01 2.18275E-24
5.69587E-01 2.12825E-24
5.73905E-01 2.07525E-24
5.78217E-01 2.02370E-24
5.82524E-01 1.97355E-24
5.86824E-01 1.92476E-24
5.91118E-01 1.87729E-24
5.95404E-01 1.83110E-24
5.99684E-01 1.78614E-24
6.03956E-01 1.74238E-24
6.08220E-01 1.69979E-24
6.12476E-01 1.65832E-24
6.16723E-01 1.61794E-24
6.20961E-01 1.57861E-24
6.25190E-01 1.54032E-24
6.29410E-01 1.50302E-24
6.33619E-01 1.46669E-24
6.37819E-01 1.43130E-24
6.42008E-01 1.39682E-24
6.46186E-01 1.36322E-24
6.50353E-01 1.33048E-24
6.54508E-01 1.29858E-24
6.58652E-01 1.26748E-24
6.62784E-01 1.23716E-24
6.66903E-01 1.20761E-24
6.71010E-01 1.17880E-24
6.75104E-01 1.15070E-24
6.79184E-01 1.12331E-24
6.83251E-01 1.09660E-24
6.87303E-01 1.07054E-24
6.91342E-01 1.04513E-24
6.95366E-01 1.02035E-24
6.99375E-01 9.96169E-25
7.03368E-01 9.72579E-25
7.07347E-01 9.49562E-25
7.11309E-01 9.27102E-25
7.15256E-01 9.05185E-25
7.19186E-01 8.83796E-25
7.23099E-01 8.62921E-25
7.26995E-01 8.42545E-25
7.30874E-01 8.22656E-25
7.34736E-01 8.03241E-25
7.38579E-01 7.84287E-25
7.42405E-01 7.65781E-25
7.46212E-01 7.47713E-25
7.50000E-01 7.30070E-25
7.53769E-01 7.12841E-25
7.57519E-01 6.96016E-25
7.61249E-01 6.79583E-25
7.64960E-01 6.63534E-25
7.68650E-01 6.47858E-25
7.72320E-01 6.32545E-25
7.75968E-01 6.17587E-25
7.79596E-01 6.02974E-25
7.83203E-01 5.88698E-25
7.86788E-01 5.74750E-25
7.90351E-01 5.61122E-25
7.93893E-01 5.47807E-25
7.97411E-01 5.34796E-25
8.00908E-01 5.22082E-25
8.04381E-01 5.09658E-25
8.07831E-01 4.97516E-25
8.11257E-01 4.85650E-25
8.14660E-01 4.74054E-25
8.18039E-01 4.62719E-25
8.21394E-01 4.51641E-25
8.24724E-01 4.40814E-25
8.28030E-01 4.30230E-25
8.31310E-01 4.19885E-25
8.34565E-01 4.09773E-25
8.37795E-01 3.99889E-25
8.40999E-01 3.90226E-25
8.44177E-01 3.80781E-25
8.47329E-01 3.71548E-25
8.50455E-01 3.62522E-25
8.53553E-01 3.53699E-25
8.56625E-01 3.45074E-25
8.59670E-01 3.36642E-25
8.62687E-01 3.28400E-25
8.65677E-01 3.20342E-25
8.68639E-01 3.12465E-25
8.71572E-01 3.04765E-25
8.74478E-01 2.97239E-25
8.77355E-01 2.89881E-25
8.80203E-01 2.82689E-25
8.83022E-01 2.75659E-25
8.85812E-01 2.68788E-25
8.88573E-01 2.62072E-25
8.91304E-01 2.55508E-25
8.94005E-01 2.49092E-25
8.96677E-01 2.42823E-25
8.99318E-01 2.36696E-25
9.01928E-01 2.30709E-25
9.04508E-01 2.24858E-25
9.07058E-01 2.19142E-25
9.09576E-01 2.13558E-25
9.12063E-01 2.08102E-25
9.14519E-01 2.02772E-25
9.16943E-01 1.97567E-25
9.19335E-01 1.92482E-25
9.21696E-01 1.87517E-25
9.24024E-01 1.82669E-25
9.26320E-01 1.77935E-25
9.28584E-01 1.73314E-25
9.30815E-01 1.68803E-25
9.33013E-01 1.64401E-25
9.35178E-01 1.60105E-25
9.37310E-01 1.55913E-25
9.39409E-01 1.51824E-25
9.41474E-01 1.47835E-25
9.43505E-01 1.43946E-25
9.45503E-01 1.40154E-25
9.47467E-01 1.36458E-25
9.49397E-01 1.32855E-25
9.51293E-01 1.29345E-25
9.53154E-01 1.25926E-25
9.54981E-01 1.22597E-25
9.56773E-01 1.19355E-25
9.58530E-01 1.16200E-25
9.60252E-01 1.13131E-25
9.61940E-01 1.10145E-25
9.63592E-01 1.07242E-25
9.65209E-01 1.04421E-25
9.66790E-01 1.01680E-25
9.68336E-01 9.90176E-26
9.69846E-01 9.64337E-26
9.71321E-01 9.39266E-26
9.72759E-01 9.14955E-26
9.74162E-01 8.91393E-26
9.75528E-01 8.68569E-26
9.76858E-01 8.46476E-26
9.78152E-01 8.25102E-26
9.79410E-01 8.04441E-26
9.80631E-01 7.84482E-26
9.81815E-01 7.65219E-26
9.82963E-01 7.46643E-26
9.84074E-01 7.28746E-26
9.85148E-01 7.11522E-26
9.86185E-01 6.94963E-26
9.87185E-01 6.79062E-26
9.88148E-01 6.63814E-26
9.89074E-01 6.49211E-26
9.89962E-01 6.35249E-26
9.90814E-01 6.21921E-26
9.91627E-01 6.09222E-26
9.92404E-01 5.97147E-26
9.93143E-01 5.85691E-26
9.93844E-01 5.74850E-26
9.94508E-01 5.64619E-26
9.95134E-01 5.54994E-26
9.95722E-01 5.45971E-26
9.96273E-01 5.37547E-26
9.96786E-01 5.29719E-26
9.97261E-01 5.22483E-26
9.97698E-01 5.15836E-26
9.98097E-01 5.09776E-26
9.98459E-01 5.04300E-26
9.98782E-01 4.99407E-26
9.99067E-01 4.95094E-26
9.99315E-01 4.91359E-26
9.99524E-01 4.88201E-26
9.99695E-01 4.85619E-26
9.99829E-01 4.83612E-26
9.99924E-01 4.82179E-26
9.99981E-01 4.81320E-26
1.00000E+00 4.81033E-26
