 #
 # Subroutine ELSEPA. Elastic scattering of electrons and positrons
 #                    by neutral atoms and positive ions
 #
 # Projectile: positron
 # Kinetic energy = 3.00000E+07 eV = 1.10248E+06 a.u.
 #
 # WARNING: High-energy factorization with free-atom DF screening.
 #          Absorption, polarization and exchange corrections are
 #          switched off.
 #          Phase shifts are calculated for the bare nucleus.
 #          Scattering amplitudes are not evaluated.
 #
 # Element: Pb,  Z =  82,  atomic weight = 2.07200E+02 g/mol
 #
 # Nuclear model: Fermi distribution
 #                Average radius = 6.33160E-13 cm
 #                Skin thickness = 5.46000E-14 cm
 #
 # Number of electrons = 82
 #
 # Total elastic cross section = 8.60672E-18 cm**2 = 3.07352E-01 a0**2
 # 1st transport cross section = 1.16258E-23 cm**2 = 4.15166E-07 a0**2
 # 2nd transport cross section = 3.39157E-23 cm**2 = 1.21115E-06 a0**2
 #
 #
 # Differential cross section:                       MU=(1-COS(THETA))/2
 #
 #  THETA        MU          DCS          DCS        Sherman      error
 #  (deg)                 (cm**2/sr)   (a0**2/sr)    function
 #----------------------------------------------------------------------
0.00000E+00 5.75815E-11
7.61557E-13 5.75678E-11
1.18994E-12 5.75602E-11
1.71346E-12 5.75509E-11
2.33225E-12 5.75399E-11
3.04617E-12 5.75273E-11
3.85530E-12 5.75129E-11
4.75964E-12 5.74970E-11
5.75917E-12 5.74793E-11
6.85391E-12 5.74600E-11
8.04379E-12 5.74390E-11
9.32893E-12 5.74164E-11
1.07092E-11 5.73921E-11
1.21847E-11 5.73661E-11
1.37554E-11 5.73386E-11
1.54213E-11 5.73093E-11
1.71823E-11 5.72785E-11
1.90386E-11 5.72460E-11
2.09900E-11 5.72119E-11
2.30367E-11 5.71761E-11
2.51785E-11 5.71388E-11
2.74156E-11 5.70998E-11
2.97478E-11 5.70592E-11
3.21752E-11 5.70170E-11
3.46979E-11 5.69733E-11
3.73157E-11 5.69279E-11
4.00286E-11 5.68810E-11
4.28368E-11 5.68325E-11
4.57402E-11 5.67824E-11
4.87388E-11 5.67308E-11
5.18325E-11 5.66777E-11
5.50215E-11 5.66230E-11
5.83057E-11 5.65667E-11
6.16850E-11 5.65090E-11
6.51595E-11 5.64497E-11
6.87293E-11 5.63889E-11
7.23943E-11 5.63267E-11
7.61544E-11 5.62629E-11
1.18991E-10 5.55458E-11
1.71347E-10 5.46917E-11
2.33223E-10 5.37128E-11
3.04617E-10 5.26182E-11
3.85531E-10 5.14343E-11
4.75965E-10 5.01581E-11
5.75917E-10 4.88218E-11
6.85389E-10 4.74254E-11
8.04380E-10 4.59927E-11
9.32891E-10 4.45321E-11
1.07092E-09 4.30540E-11
1.21847E-09 4.15774E-11
1.37554E-09 4.00970E-11
1.54213E-09 3.86430E-11
1.71823E-09 3.71947E-11
1.90386E-09 3.57858E-11
2.09900E-09 3.44013E-11
2.30367E-09 3.30579E-11
2.51785E-09 3.17532E-11
2.74156E-09 3.04884E-11
2.97478E-09 2.92725E-11
3.21752E-09 2.80932E-11
3.46978E-09 2.69692E-11
3.73156E-09 2.58780E-11
4.00286E-09 2.48407E-11
4.28368E-09 2.38413E-11
4.57402E-09 2.28882E-11
4.87388E-09 2.19763E-11
5.18326E-09 2.11034E-11
5.50215E-09 2.02734E-11
5.83057E-09 1.94755E-11
6.16850E-09 1.87208E-11
6.51596E-09 1.79926E-11
6.87293E-09 1.73036E-11
7.23942E-09 1.66424E-11
7.61544E-09 1.60135E-11
1.18991E-08 1.10834E-11
1.71347E-08 7.90272E-12
2.33223E-08 5.77681E-12
3.04617E-08 4.25177E-12
3.85531E-08 3.26868E-12
4.75965E-08 2.49616E-12
5.75917E-08 1.96334E-12
6.85389E-08 1.55113E-12
8.04380E-08 1.24738E-12
9.32891E-08 1.01325E-12
1.07092E-07 8.32084E-13
1.21847E-07 6.91568E-13
1.37554E-07 5.78465E-13
1.54213E-07 4.89747E-13
1.71823E-07 4.15977E-13
1.90386E-07 3.56846E-13
2.09900E-07 3.07323E-13
2.30367E-07 2.66418E-13
2.51785E-07 2.31986E-13
2.74156E-07 2.02820E-13
2.97478E-07 1.78196E-13
3.21752E-07 1.56902E-13
3.46978E-07 1.38879E-13
3.73156E-07 1.23062E-13
4.00286E-07 1.09549E-13
4.28368E-07 9.77097E-14
4.57402E-07 8.74454E-14
4.87388E-07 7.84589E-14
5.18325E-07 7.05743E-14
5.50215E-07 6.36685E-14
5.83057E-07 5.75663E-14
6.16850E-07 5.22121E-14
6.51596E-07 4.73979E-14
6.87293E-07 4.31504E-14
7.23942E-07 3.93622E-14
7.61543E-07 3.59933E-14
1.18991E-06 1.63141E-14
1.71347E-06 8.48206E-15
2.33223E-06 4.84871E-15
3.04617E-06 2.96869E-15
3.85531E-06 1.91854E-15
4.75964E-06 1.29546E-15
5.75916E-06 9.05557E-16
6.85388E-06 6.51860E-16
8.04378E-06 4.81051E-16
9.32888E-06 3.62510E-16
1.07092E-05 2.78353E-16
1.21846E-05 2.17230E-16
1.37553E-05 1.72004E-16
1.54212E-05 1.37979E-16
1.71822E-05 1.11961E-16
1.90385E-05 9.17513E-17
2.09899E-05 7.60065E-17
2.30365E-05 6.34874E-17
2.51783E-05 5.34294E-17
2.74153E-05 4.52701E-17
2.97475E-05 3.86050E-17
3.21749E-05 3.31213E-17
3.46974E-05 2.85789E-17
3.73152E-05 2.47926E-17
4.00281E-05 2.16141E-17
4.28362E-05 1.89296E-17
4.57395E-05 1.66484E-17
4.87380E-05 1.46989E-17
5.18317E-05 1.30253E-17
5.50205E-05 1.15819E-17
5.83045E-05 1.03324E-17
6.16838E-05 9.24678E-18
6.51582E-05 8.29999E-18
6.87277E-05 7.47149E-18
7.23925E-05 6.74383E-18
7.61524E-05 6.10254E-18
9.21439E-05 4.18687E-18
1.09658E-04 2.96658E-18
1.28695E-04 2.16008E-18
1.49255E-04 1.60975E-18
1.71338E-04 1.22398E-18
1.94942E-04 9.47097E-19
2.20070E-04 7.44217E-19
2.46720E-04 5.92832E-19
2.74892E-04 4.78026E-19
3.04586E-04 3.89689E-19
3.35803E-04 3.20829E-19
3.68542E-04 2.66511E-19
4.02802E-04 2.23202E-19
4.38585E-04 1.88333E-19
4.75889E-04 1.60004E-19
5.14715E-04 1.36800E-19
5.55063E-04 1.17646E-19
5.96931E-04 1.01724E-19
6.40321E-04 8.84026E-20
6.85233E-04 7.71877E-20
7.31665E-04 6.76928E-20
7.79618E-04 5.96106E-20
8.29092E-04 5.26971E-20
8.80086E-04 4.67551E-20
9.32601E-04 4.16256E-20
9.86636E-04 3.71790E-20
1.04219E-03 3.33091E-20
1.09927E-03 2.99288E-20
1.15786E-03 2.69654E-20
1.21797E-03 2.43589E-20
1.27961E-03 2.20590E-20
1.34276E-03 2.00235E-20
1.40743E-03 1.82169E-20
1.47362E-03 1.66088E-20
1.54133E-03 1.51739E-20
1.61056E-03 1.38901E-20
1.68131E-03 1.27389E-20
1.75357E-03 1.17041E-20
1.82735E-03 1.07720E-20
1.90265E-03 9.93053E-21
1.97947E-03 9.16937E-21
2.05780E-03 8.47953E-21
2.13765E-03 7.85313E-21
2.21902E-03 7.28332E-21
2.30190E-03 6.76408E-21
2.38630E-03 6.29013E-21
2.47222E-03 5.85682E-21
2.55965E-03 5.46005E-21
2.64859E-03 5.09619E-21
2.73905E-03 4.76203E-21
2.83103E-03 4.45470E-21
2.92452E-03 4.17168E-21
3.01952E-03 3.91067E-21
3.11604E-03 3.66969E-21
3.21407E-03 3.44691E-21
3.31362E-03 3.24071E-21
3.41468E-03 3.04963E-21
3.51725E-03 2.87237E-21
3.62133E-03 2.70775E-21
3.72692E-03 2.55470E-21
3.83403E-03 2.41226E-21
3.94265E-03 2.27957E-21
4.05278E-03 2.15584E-21
4.16442E-03 2.04034E-21
4.27757E-03 1.93244E-21
4.39223E-03 1.83155E-21
4.50840E-03 1.73712E-21
4.62608E-03 1.64867E-21
4.74527E-03 1.56575E-21
4.86597E-03 1.48795E-21
4.98817E-03 1.41490E-21
5.11188E-03 1.34626E-21
5.23711E-03 1.28170E-21
5.36383E-03 1.22095E-21
5.49207E-03 1.16373E-21
5.62181E-03 1.10981E-21
5.75306E-03 1.05896E-21
5.88581E-03 1.01097E-21
6.02007E-03 9.65654E-22
6.15583E-03 9.22833E-22
6.29310E-03 8.82346E-22
6.43187E-03 8.44042E-22
6.57214E-03 8.07782E-22
6.71392E-03 7.73436E-22
6.85720E-03 7.40886E-22
7.00198E-03 7.10019E-22
7.14827E-03 6.80732E-22
7.29605E-03 6.52931E-22
7.44534E-03 6.26526E-22
7.59612E-03 6.01433E-22
7.97965E-03 5.43950E-22
8.37255E-03 4.93132E-22
8.77480E-03 4.48074E-22
9.18641E-03 4.08013E-22
9.60736E-03 3.72302E-22
1.00376E-02 3.40385E-22
1.04773E-02 3.11794E-22
1.09262E-02 2.86120E-22
1.13844E-02 2.63016E-22
1.18520E-02 2.42180E-22
1.23288E-02 2.23351E-22
1.28150E-02 2.06302E-22
1.33104E-02 1.90836E-22
1.38150E-02 1.76781E-22
1.43290E-02 1.63985E-22
1.48521E-02 1.52316E-22
1.53845E-02 1.41658E-22
1.59262E-02 1.31908E-22
1.64770E-02 1.22974E-22
1.70371E-02 1.14777E-22
1.76063E-02 1.07245E-22
1.81848E-02 1.00315E-22
1.87724E-02 9.39302E-23
1.93692E-02 8.80402E-23
1.99751E-02 8.26000E-23
2.05901E-02 7.75692E-23
2.12143E-02 7.29115E-23
2.18476E-02 6.85944E-23
2.24900E-02 6.45887E-23
2.31415E-02 6.08679E-23
2.38021E-02 5.74081E-23
2.44717E-02 5.41879E-23
2.51504E-02 5.11878E-23
2.58382E-02 4.83900E-23
2.65349E-02 4.57786E-23
2.72407E-02 4.33390E-23
2.79555E-02 4.10579E-23
2.86793E-02 3.89234E-23
2.94120E-02 3.69239E-23
3.01537E-02 3.50482E-23
3.09043E-02 3.32885E-23
3.16639E-02 3.16364E-23
3.24324E-02 3.00841E-23
3.32098E-02 2.86244E-23
3.39961E-02 2.72510E-23
3.47912E-02 2.59578E-23
3.55952E-02 2.47392E-23
3.64081E-02 2.35903E-23
3.72297E-02 2.25063E-23
3.80602E-02 2.14828E-23
3.88995E-02 2.05160E-23
3.97476E-02 1.96021E-23
4.06044E-02 1.87377E-23
4.14700E-02 1.79197E-23
4.23443E-02 1.71451E-23
4.32273E-02 1.64112E-23
4.41190E-02 1.57155E-23
4.50194E-02 1.50556E-23
4.59284E-02 1.44294E-23
4.68461E-02 1.38349E-23
4.87074E-02 1.27333E-23
5.06030E-02 1.17374E-23
5.25328E-02 1.08352E-23
5.44967E-02 1.00166E-23
5.64946E-02 9.27235E-24
5.85262E-02 8.59469E-24
6.05914E-02 7.97662E-24
6.26901E-02 7.41204E-24
6.48222E-02 6.89552E-24
6.69873E-02 6.42229E-24
6.91854E-02 5.98812E-24
7.14163E-02 5.58924E-24
7.36799E-02 5.22229E-24
7.59760E-02 4.88429E-24
7.83043E-02 4.57258E-24
8.06647E-02 4.28476E-24
8.30571E-02 4.01869E-24
8.54812E-02 3.77246E-24
8.79369E-02 3.54433E-24
9.04240E-02 3.33275E-24
9.29422E-02 3.13633E-24
9.54915E-02 2.95378E-24
9.80716E-02 2.78397E-24
1.00682E-01 2.62586E-24
1.03323E-01 2.47850E-24
1.05995E-01 2.34105E-24
1.08696E-01 2.21272E-24
1.11427E-01 2.09281E-24
1.14188E-01 1.98067E-24
1.16978E-01 1.87572E-24
1.19797E-01 1.77742E-24
1.22645E-01 1.68527E-24
1.25522E-01 1.59883E-24
1.28428E-01 1.51768E-24
1.31361E-01 1.44144E-24
1.34323E-01 1.36978E-24
1.37313E-01 1.30236E-24
1.40330E-01 1.23890E-24
1.43375E-01 1.17912E-24
1.46447E-01 1.12278E-24
1.49545E-01 1.06964E-24
1.52671E-01 1.01950E-24
1.55823E-01 9.72151E-25
1.59001E-01 9.27416E-25
1.62205E-01 8.85127E-25
1.65435E-01 8.45128E-25
1.68690E-01 8.07275E-25
1.71970E-01 7.71433E-25
1.75276E-01 7.37479E-25
1.78606E-01 7.05296E-25
1.81961E-01 6.74777E-25
1.85340E-01 6.45822E-25
1.88743E-01 6.18337E-25
1.92169E-01 5.92236E-25
1.95619E-01 5.67437E-25
1.99092E-01 5.43865E-25
2.02589E-01 5.21450E-25
2.06107E-01 5.00125E-25
2.09649E-01 4.79829E-25
2.13212E-01 4.60503E-25
2.16797E-01 4.42095E-25
2.20404E-01 4.24553E-25
2.24032E-01 4.07831E-25
2.27680E-01 3.91883E-25
2.31350E-01 3.76668E-25
2.35040E-01 3.62147E-25
2.38751E-01 3.48284E-25
2.42481E-01 3.35042E-25
2.46231E-01 3.22392E-25
2.50000E-01 3.10301E-25
2.53788E-01 2.98740E-25
2.57595E-01 2.87684E-25
2.61421E-01 2.77107E-25
2.65264E-01 2.66983E-25
2.69126E-01 2.57292E-25
2.73005E-01 2.48011E-25
2.76901E-01 2.39121E-25
2.80814E-01 2.30602E-25
2.84744E-01 2.22436E-25
2.88691E-01 2.14607E-25
2.92653E-01 2.07098E-25
2.96632E-01 1.99895E-25
3.00625E-01 1.92982E-25
3.04634E-01 1.86347E-25
3.08658E-01 1.79976E-25
3.12697E-01 1.73857E-25
3.16749E-01 1.67979E-25
3.20816E-01 1.62331E-25
3.24896E-01 1.56903E-25
3.28990E-01 1.51683E-25
3.33097E-01 1.46665E-25
3.37216E-01 1.41837E-25
3.41348E-01 1.37193E-25
3.45492E-01 1.32723E-25
3.49647E-01 1.28421E-25
3.53814E-01 1.24279E-25
3.57992E-01 1.20290E-25
3.62181E-01 1.16448E-25
3.66381E-01 1.12747E-25
3.70590E-01 1.09180E-25
3.74810E-01 1.05742E-25
3.79039E-01 1.02428E-25
3.83277E-01 9.92317E-26
3.87524E-01 9.61495E-26
3.91780E-01 9.31763E-26
3.96044E-01 9.03076E-26
4.00316E-01 8.75393E-26
4.04596E-01 8.48673E-26
4.08882E-01 8.22877E-26
4.13176E-01 7.97968E-26
4.17476E-01 7.73913E-26
4.21783E-01 7.50677E-26
4.26095E-01 7.28228E-26
4.30413E-01 7.06535E-26
4.34737E-01 6.85570E-26
4.39065E-01 6.65305E-26
4.43398E-01 6.45712E-26
4.47736E-01 6.26766E-26
4.52077E-01 6.08443E-26
4.56422E-01 5.90720E-26
4.60770E-01 5.73573E-26
4.65122E-01 5.56982E-26
4.69476E-01 5.40925E-26
4.73832E-01 5.25383E-26
4.78190E-01 5.10338E-26
4.82550E-01 4.95771E-26
4.86912E-01 4.81665E-26
4.91274E-01 4.68003E-26
4.95637E-01 4.54769E-26
5.00000E-01 4.41948E-26
5.04363E-01 4.29525E-26
5.08726E-01 4.17486E-26
5.13088E-01 4.05818E-26
5.17450E-01 3.94508E-26
5.21810E-01 3.83542E-26
5.26168E-01 3.72910E-26
5.30524E-01 3.62599E-26
5.34878E-01 3.52599E-26
5.39230E-01 3.42899E-26
5.43578E-01 3.33489E-26
5.47923E-01 3.24359E-26
5.52264E-01 3.15499E-26
5.56602E-01 3.06900E-26
5.60935E-01 2.98554E-26
5.65263E-01 2.90452E-26
5.69587E-01 2.82586E-26
5.73905E-01 2.74949E-26
5.78217E-01 2.67533E-26
5.82524E-01 2.60330E-26
5.86824E-01 2.53333E-26
5.91118E-01 2.46537E-26
5.95404E-01 2.39934E-26
5.99684E-01 2.33518E-26
6.03956E-01 2.27284E-26
6.08220E-01 2.21225E-26
6.12476E-01 2.15336E-26
6.16723E-01 2.09612E-26
6.20961E-01 2.04047E-26
6.25190E-01 1.98636E-26
6.29410E-01 1.93375E-26
6.33619E-01 1.88259E-26
6.37819E-01 1.83283E-26
6.42008E-01 1.78443E-26
6.46186E-01 1.73736E-26
6.50353E-01 1.69156E-26
6.54508E-01 1.64700E-26
6.58652E-01 1.60364E-26
6.62784E-01 1.56145E-26
6.66903E-01 1.52040E-26
6.71010E-01 1.48043E-26
6.75104E-01 1.44154E-26
6.79184E-01 1.40367E-26
6.83251E-01 1.36681E-26
6.87303E-01 1.33092E-26
6.91342E-01 1.29597E-26
6.95366E-01 1.26194E-26
6.99375E-01 1.22880E-26
7.03368E-01 1.19653E-26
7.07347E-01 1.16509E-26
7.11309E-01 1.13447E-26
7.15256E-01 1.10464E-26
7.19186E-01 1.07558E-26
7.23099E-01 1.04726E-26
7.26995E-01 1.01967E-26
7.30874E-01 9.92789E-27
7.34736E-01 9.66590E-27
7.38579E-01 9.41058E-27
7.42405E-01 9.16173E-27
7.46212E-01 8.91917E-27
7.50000E-01 8.68273E-27
7.53769E-01 8.45225E-27
7.57519E-01 8.22755E-27
7.61249E-01 8.00849E-27
7.64960E-01 7.79489E-27
7.68650E-01 7.58663E-27
7.72320E-01 7.38355E-27
7.75968E-01 7.18551E-27
7.79596E-01 6.99238E-27
7.83203E-01 6.80402E-27
7.86788E-01 6.62031E-27
7.90351E-01 6.44113E-27
7.93893E-01 6.26635E-27
7.97411E-01 6.09586E-27
8.00908E-01 5.92954E-27
8.04381E-01 5.76730E-27
8.07831E-01 5.60901E-27
8.11257E-01 5.45458E-27
8.14660E-01 5.30391E-27
8.18039E-01 5.15691E-27
8.21394E-01 5.01347E-27
8.24724E-01 4.87350E-27
8.28030E-01 4.73693E-27
8.31310E-01 4.60366E-27
8.34565E-01 4.47360E-27
8.37795E-01 4.34669E-27
8.40999E-01 4.22283E-27
8.44177E-01 4.10196E-27
8.47329E-01 3.98400E-27
8.50455E-01 3.86888E-27
8.53553E-01 3.75652E-27
8.56625E-01 3.64687E-27
8.59670E-01 3.53985E-27
8.62687E-01 3.43540E-27
8.65677E-01 3.33346E-27
8.68639E-01 3.23397E-27
8.71572E-01 3.13687E-27
8.74478E-01 3.04210E-27
8.77355E-01 2.94961E-27
8.80203E-01 2.85934E-27
8.83022E-01 2.77125E-27
8.85812E-01 2.68527E-27
8.88573E-01 2.60137E-27
8.91304E-01 2.51950E-27
8.94005E-01 2.43960E-27
8.96677E-01 2.36164E-27
8.99318E-01 2.28556E-27
9.01928E-01 2.21133E-27
9.04508E-01 2.13891E-27
9.07058E-01 2.06825E-27
9.09576E-01 1.99932E-27
9.12063E-01 1.93208E-27
9.14519E-01 1.86649E-27
9.16943E-01 1.80251E-27
9.19335E-01 1.74012E-27
9.21696E-01 1.67927E-27
9.24024E-01 1.61993E-27
9.26320E-01 1.56208E-27
9.28584E-01 1.50568E-27
9.30815E-01 1.45070E-27
9.33013E-01 1.39711E-27
9.35178E-01 1.34489E-27
9.37310E-01 1.29400E-27
9.39409E-01 1.24442E-27
9.41474E-01 1.19613E-27
9.43505E-01 1.14909E-27
9.45503E-01 1.10329E-27
9.47467E-01 1.05869E-27
9.49397E-01 1.01529E-27
9.51293E-01 9.73045E-28
9.53154E-01 9.31945E-28
9.54981E-01 8.91967E-28
9.56773E-01 8.53091E-28
9.58530E-01 8.15295E-28
9.60252E-01 7.78562E-28
9.61940E-01 7.42873E-28
9.63592E-01 7.08209E-28
9.65209E-01 6.74553E-28
9.66790E-01 6.41889E-28
9.68336E-01 6.10200E-28
9.69846E-01 5.79469E-28
9.71321E-01 5.49683E-28
9.72759E-01 5.20826E-28
9.74162E-01 4.92883E-28
9.75528E-01 4.65841E-28
9.76858E-01 4.39687E-28
9.78152E-01 4.14407E-28
9.79410E-01 3.89990E-28
9.80631E-01 3.66422E-28
9.81815E-01 3.43694E-28
9.82963E-01 3.21793E-28
9.84074E-01 3.00709E-28
9.85148E-01 2.80432E-28
9.86185E-01 2.60952E-28
9.87185E-01 2.42259E-28
9.88148E-01 2.24345E-28
9.89074E-01 2.07200E-28
9.89962E-01 1.90817E-28
9.90814E-01 1.75187E-28
9.91627E-01 1.60304E-28
9.92404E-01 1.46159E-28
9.93143E-01 1.32747E-28
9.93844E-01 1.20060E-28
9.94508E-01 1.08093E-28
9.95134E-01 9.68396E-29
9.95722E-01 8.62949E-29
9.96273E-01 7.64538E-29
9.96786E-01 6.73116E-29
9.97261E-01 5.88639E-29
9.97698E-01 5.11066E-29
9.98097E-01 4.40362E-29
9.98459E-01 3.76492E-29
9.98782E-01 3.19426E-29
9.99067E-01 2.69137E-29
9.99315E-01 2.25601E-29
9.99524E-01 1.88798E-29
9.99695E-01 1.58710E-29
9.99829E-01 1.35323E-29
9.99924E-01 1.18626E-29
9.99981E-01 1.08611E-29
1.00000E+00 1.05273E-29
