 #
 # Subroutine ELSEPA. Elastic scattering of electrons and positrons
 #                    by neutral atoms and positive ions
 #
 # Projectile: positron
 # Kinetic energy = 7.00000E+07 eV = 2.57245E+06 a.u.
 #
 # WARNING: High-energy factorization with free-atom DF screening.
 #          Absorption, polarization and exchange corrections are
 #          switched off.
 #          Phase shifts are calculated for the bare nucleus.
 #          Scattering amplitudes are not evaluated.
 #
 # Element: Pb,  Z =  82,  atomic weight = 2.07200E+02 g/mol
 #
 # Nuclear model: Fermi distribution
 #                Average radius = 6.33160E-13 cm
 #                Skin thickness = 5.46000E-14 cm
 #
 # Number of electrons = 82
 #
 # Total elastic cross section = 8.60575E-18 cm**2 = 3.07317E-01 a0**2
 # 1st transport cross section = 2.39858E-24 cm**2 = 8.56549E-08 a0**2
 # 2nd transport cross section = 7.08136E-24 cm**2 = 2.52880E-07 a0**2
 #
 #
 # Differential cross section:                       MU=(1-COS(THETA))/2
 #
 #  THETA        MU          DCS          DCS        Sherman      error
 #  (deg)                 (cm**2/sr)   (a0**2/sr)    function
 #----------------------------------------------------------------------
0.00000E+00 3.07528E-10
7.61557E-13 3.07141E-10
1.18994E-12 3.06926E-10
1.71346E-12 3.06662E-10
2.33225E-12 3.06352E-10
3.04617E-12 3.05995E-10
3.85530E-12 3.05591E-10
4.75964E-12 3.05141E-10
5.75917E-12 3.04644E-10
6.85391E-12 3.04103E-10
8.04379E-12 3.03516E-10
9.32893E-12 3.02885E-10
1.07092E-11 3.02209E-10
1.21847E-11 3.01490E-10
1.37554E-11 3.00729E-10
1.54213E-11 2.99924E-10
1.71823E-11 2.99078E-10
1.90386E-11 2.98192E-10
2.09900E-11 2.97265E-10
2.30367E-11 2.96298E-10
2.51785E-11 2.95292E-10
2.74156E-11 2.94248E-10
2.97478E-11 2.93168E-10
3.21752E-11 2.92050E-10
3.46979E-11 2.90897E-10
3.73157E-11 2.89709E-10
4.00286E-11 2.88488E-10
4.28368E-11 2.87233E-10
4.57402E-11 2.85946E-10
4.87388E-11 2.84620E-10
5.18325E-11 2.83264E-10
5.50215E-11 2.81882E-10
5.83057E-11 2.80474E-10
6.16850E-11 2.79042E-10
6.51595E-11 2.77586E-10
6.87293E-11 2.76108E-10
7.23943E-11 2.74607E-10
7.61544E-11 2.73061E-10
1.18991E-10 2.56619E-10
1.71347E-10 2.38871E-10
2.33223E-10 2.20659E-10
3.04617E-10 2.02565E-10
3.85531E-10 1.85177E-10
4.75965E-10 1.68824E-10
5.75917E-10 1.53647E-10
6.85389E-10 1.39723E-10
8.04380E-10 1.27093E-10
9.32891E-10 1.15701E-10
1.07092E-09 1.05406E-10
1.21847E-09 9.61716E-11
1.37554E-09 8.78968E-11
1.54213E-09 8.04607E-11
1.71823E-09 7.37701E-11
1.90386E-09 6.77618E-11
2.09900E-09 6.23567E-11
2.30367E-09 5.74587E-11
2.51785E-09 5.30353E-11
2.74156E-09 4.90333E-11
2.97478E-09 4.53959E-11
3.21752E-09 4.20813E-11
3.46978E-09 3.90649E-11
3.73156E-09 3.63141E-11
4.00286E-09 3.37886E-11
4.28368E-09 3.14771E-11
4.57402E-09 2.93588E-11
4.87388E-09 2.72593E-11
5.18326E-09 2.53603E-11
5.50215E-09 2.36623E-11
5.83057E-09 2.21396E-11
6.16850E-09 2.07702E-11
6.51596E-09 1.95352E-11
6.87293E-09 1.84184E-11
7.23942E-09 1.73884E-11
7.61544E-09 1.62816E-11
1.18991E-08 9.16541E-12
1.71347E-08 5.55639E-12
2.33223E-08 3.58020E-12
3.04617E-08 2.41120E-12
3.85531E-08 1.68977E-12
4.75965E-08 1.22074E-12
5.75917E-08 9.01770E-13
6.85389E-08 6.78446E-13
8.04380E-08 5.19300E-13
9.32891E-08 4.03639E-13
1.07092E-07 3.17894E-13
1.21847E-07 2.53714E-13
1.37554E-07 2.04860E-13
1.54213E-07 1.67367E-13
1.71823E-07 1.38209E-13
1.90386E-07 1.15242E-13
2.09900E-07 9.69155E-14
2.30367E-07 8.20959E-14
2.51785E-07 7.00270E-14
2.74156E-07 6.01187E-14
2.97478E-07 5.19166E-14
3.21752E-07 4.50764E-14
3.46978E-07 3.93361E-14
3.73156E-07 3.44860E-14
4.00286E-07 3.03568E-14
4.28368E-07 2.68282E-14
4.57402E-07 2.37988E-14
4.87388E-07 2.11698E-14
5.18325E-07 1.89055E-14
5.50215E-07 1.69496E-14
5.83057E-07 1.52269E-14
6.16850E-07 1.37193E-14
6.51596E-07 1.24016E-14
6.87293E-07 1.12326E-14
7.23942E-07 1.01972E-14
7.61543E-07 9.28308E-15
1.18991E-06 4.02047E-15
1.71347E-06 2.01066E-15
2.33223E-06 1.11344E-15
3.04617E-06 6.65524E-16
3.85531E-06 4.22032E-16
4.75964E-06 2.80454E-16
5.75916E-06 1.93573E-16
6.85388E-06 1.37862E-16
8.04378E-06 1.00807E-16
9.32888E-06 7.53911E-17
1.07092E-05 5.74917E-17
1.21846E-05 4.45962E-17
1.37553E-05 3.51179E-17
1.54212E-05 2.80268E-17
1.71822E-05 2.26371E-17
1.90385E-05 1.84703E-17
2.09899E-05 1.52393E-17
2.30365E-05 1.26823E-17
2.51783E-05 1.06362E-17
2.74153E-05 8.98389E-18
2.97475E-05 7.63904E-18
3.21749E-05 6.53659E-18
3.46974E-05 5.62660E-18
3.73152E-05 4.87032E-18
4.00281E-05 4.23746E-18
4.28362E-05 3.70436E-18
4.57395E-05 3.25247E-18
4.87380E-05 2.86724E-18
5.18317E-05 2.53718E-18
5.50205E-05 2.25314E-18
5.83045E-05 2.00769E-18
6.16838E-05 1.79476E-18
6.51582E-05 1.60937E-18
6.87277E-05 1.44736E-18
7.23925E-05 1.30525E-18
7.61524E-05 1.18019E-18
9.21439E-05 8.07420E-19
1.09658E-04 5.70769E-19
1.28695E-04 4.14777E-19
1.49255E-04 3.08563E-19
1.71338E-04 2.34250E-19
1.94942E-04 1.81000E-19
2.20070E-04 1.42043E-19
2.46720E-04 1.13014E-19
2.74892E-04 9.10291E-20
3.04586E-04 7.41328E-20
3.35803E-04 6.09769E-20
3.68542E-04 5.06104E-20
4.02802E-04 4.23534E-20
4.38585E-04 3.57116E-20
4.75889E-04 3.03203E-20
5.14715E-04 2.59077E-20
5.55063E-04 2.22682E-20
5.96931E-04 1.92450E-20
6.40321E-04 1.67171E-20
6.85233E-04 1.45902E-20
7.31665E-04 1.27906E-20
7.79618E-04 1.12595E-20
8.29092E-04 9.95053E-21
8.80086E-04 8.82596E-21
9.32601E-04 7.85556E-21
9.86636E-04 7.01471E-21
1.04219E-03 6.28316E-21
1.09927E-03 5.64436E-21
1.15786E-03 5.08454E-21
1.21797E-03 4.59228E-21
1.27961E-03 4.15806E-21
1.34276E-03 3.77383E-21
1.40743E-03 3.43289E-21
1.47362E-03 3.12949E-21
1.54133E-03 2.85880E-21
1.61056E-03 2.61668E-21
1.68131E-03 2.39959E-21
1.75357E-03 2.20450E-21
1.82735E-03 2.02877E-21
1.90265E-03 1.87017E-21
1.97947E-03 1.72671E-21
2.05780E-03 1.59671E-21
2.13765E-03 1.47868E-21
2.21902E-03 1.37133E-21
2.30190E-03 1.27351E-21
2.38630E-03 1.18422E-21
2.47222E-03 1.10261E-21
2.55965E-03 1.02787E-21
2.64859E-03 9.59343E-22
2.73905E-03 8.96409E-22
2.83103E-03 8.38533E-22
2.92452E-03 7.85235E-22
3.01952E-03 7.36089E-22
3.11604E-03 6.90711E-22
3.21407E-03 6.48763E-22
3.31362E-03 6.09938E-22
3.41468E-03 5.73962E-22
3.51725E-03 5.40587E-22
3.62133E-03 5.09592E-22
3.72692E-03 4.80777E-22
3.83403E-03 4.53960E-22
3.94265E-03 4.28978E-22
4.05278E-03 4.05683E-22
4.16442E-03 3.83940E-22
4.27757E-03 3.63626E-22
4.39223E-03 3.44632E-22
4.50840E-03 3.26855E-22
4.62608E-03 3.10203E-22
4.74527E-03 2.94593E-22
4.86597E-03 2.79948E-22
4.98817E-03 2.66196E-22
5.11188E-03 2.53275E-22
5.23711E-03 2.41124E-22
5.36383E-03 2.29691E-22
5.49207E-03 2.18924E-22
5.62181E-03 2.08768E-22
5.75306E-03 1.99191E-22
5.88581E-03 1.90152E-22
6.02007E-03 1.81617E-22
6.15583E-03 1.73552E-22
6.29310E-03 1.65926E-22
6.43187E-03 1.58712E-22
6.57214E-03 1.51882E-22
6.71392E-03 1.45413E-22
6.85720E-03 1.39282E-22
7.00198E-03 1.33469E-22
7.14827E-03 1.27953E-22
7.29605E-03 1.22716E-22
7.44534E-03 1.17743E-22
7.59612E-03 1.13016E-22
7.97965E-03 1.02189E-22
8.37255E-03 9.26173E-23
8.77480E-03 8.41305E-23
9.18641E-03 7.65849E-23
9.60736E-03 6.98585E-23
1.00376E-02 6.38473E-23
1.04773E-02 5.84622E-23
1.09262E-02 5.36270E-23
1.13844E-02 4.92759E-23
1.18520E-02 4.53521E-23
1.23288E-02 4.18064E-23
1.28150E-02 3.85963E-23
1.33104E-02 3.56845E-23
1.38150E-02 3.30384E-23
1.43290E-02 3.06297E-23
1.48521E-02 2.84335E-23
1.53845E-02 2.64276E-23
1.59262E-02 2.45929E-23
1.64770E-02 2.29122E-23
1.70371E-02 2.13702E-23
1.76063E-02 1.99537E-23
1.81848E-02 1.86506E-23
1.87724E-02 1.74502E-23
1.93692E-02 1.63431E-23
1.99751E-02 1.53208E-23
2.05901E-02 1.43757E-23
2.12143E-02 1.35009E-23
2.18476E-02 1.26902E-23
2.24900E-02 1.19383E-23
2.31415E-02 1.12400E-23
2.38021E-02 1.05909E-23
2.44717E-02 9.98695E-24
2.51504E-02 9.42446E-24
2.58382E-02 8.90008E-24
2.65349E-02 8.41079E-24
2.72407E-02 7.95384E-24
2.79555E-02 7.52672E-24
2.86793E-02 7.12716E-24
2.94120E-02 6.75306E-24
3.01537E-02 6.40252E-24
3.09043E-02 6.07382E-24
3.16639E-02 5.76535E-24
3.24324E-02 5.47566E-24
3.32098E-02 5.20340E-24
3.39961E-02 4.94736E-24
3.47912E-02 4.70639E-24
3.55952E-02 4.47947E-24
3.64081E-02 4.26563E-24
3.72297E-02 4.06398E-24
3.80602E-02 3.87373E-24
3.88995E-02 3.69411E-24
3.97476E-02 3.52443E-24
4.06044E-02 3.36405E-24
4.14700E-02 3.21237E-24
4.23443E-02 3.06883E-24
4.32273E-02 2.93294E-24
4.41190E-02 2.80421E-24
4.50194E-02 2.68220E-24
4.59284E-02 2.56650E-24
4.68461E-02 2.45674E-24
4.87074E-02 2.25360E-24
5.06030E-02 2.07024E-24
5.25328E-02 1.90443E-24
5.44967E-02 1.75422E-24
5.64946E-02 1.61792E-24
5.85262E-02 1.49405E-24
6.05914E-02 1.38128E-24
6.26901E-02 1.27848E-24
6.48222E-02 1.18463E-24
6.69873E-02 1.09883E-24
6.91854E-02 1.02028E-24
7.14163E-02 9.48275E-25
7.36799E-02 8.82192E-25
7.59760E-02 8.21468E-25
7.83043E-02 7.65603E-25
8.06647E-02 7.14151E-25
8.30571E-02 6.66709E-25
8.54812E-02 6.22921E-25
8.79369E-02 5.82462E-25
9.04240E-02 5.45042E-25
9.29422E-02 5.10399E-25
9.54915E-02 4.78298E-25
9.80716E-02 4.48525E-25
1.00682E-01 4.20886E-25
1.03323E-01 3.95207E-25
1.05995E-01 3.71329E-25
1.08696E-01 3.49107E-25
1.11427E-01 3.28410E-25
1.14188E-01 3.09120E-25
1.16978E-01 2.91126E-25
1.19797E-01 2.74330E-25
1.22645E-01 2.58641E-25
1.25522E-01 2.43976E-25
1.28428E-01 2.30259E-25
1.31361E-01 2.17420E-25
1.34323E-01 2.05396E-25
1.37313E-01 1.94127E-25
1.40330E-01 1.83561E-25
1.43375E-01 1.73647E-25
1.46447E-01 1.64339E-25
1.49545E-01 1.55597E-25
1.52671E-01 1.47380E-25
1.55823E-01 1.39654E-25
1.59001E-01 1.32385E-25
1.62205E-01 1.25542E-25
1.65435E-01 1.19098E-25
1.68690E-01 1.13027E-25
1.71970E-01 1.07303E-25
1.75276E-01 1.01905E-25
1.78606E-01 9.68122E-26
1.81961E-01 9.20046E-26
1.85340E-01 8.74645E-26
1.88743E-01 8.31751E-26
1.92169E-01 7.91211E-26
1.95619E-01 7.52879E-26
1.99092E-01 7.16620E-26
2.02589E-01 6.82309E-26
2.06107E-01 6.49829E-26
2.09649E-01 6.19071E-26
2.13212E-01 5.89932E-26
2.16797E-01 5.62319E-26
2.20404E-01 5.36141E-26
2.24032E-01 5.11316E-26
2.27680E-01 4.87766E-26
2.31350E-01 4.65417E-26
2.35040E-01 4.44203E-26
2.38751E-01 4.24058E-26
2.42481E-01 4.04923E-26
2.46231E-01 3.86742E-26
2.50000E-01 3.69462E-26
2.53788E-01 3.53034E-26
2.57595E-01 3.37410E-26
2.61421E-01 3.22548E-26
2.65264E-01 3.08407E-26
2.69126E-01 2.94947E-26
2.73005E-01 2.82133E-26
2.76901E-01 2.69930E-26
2.80814E-01 2.58306E-26
2.84744E-01 2.47231E-26
2.88691E-01 2.36677E-26
2.92653E-01 2.26616E-26
2.96632E-01 2.17022E-26
3.00625E-01 2.07873E-26
3.04634E-01 1.99146E-26
3.08658E-01 1.90818E-26
3.12697E-01 1.82871E-26
3.16749E-01 1.75284E-26
3.20816E-01 1.68041E-26
3.24896E-01 1.61124E-26
3.28990E-01 1.54516E-26
3.33097E-01 1.48203E-26
3.37216E-01 1.42171E-26
3.41348E-01 1.36406E-26
3.45492E-01 1.30894E-26
3.49647E-01 1.25624E-26
3.53814E-01 1.20584E-26
3.57992E-01 1.15763E-26
3.62181E-01 1.11151E-26
3.66381E-01 1.06738E-26
3.70590E-01 1.02514E-26
3.74810E-01 9.84716E-27
3.79039E-01 9.46011E-27
3.83277E-01 9.08948E-27
3.87524E-01 8.73452E-27
3.91780E-01 8.39452E-27
3.96044E-01 8.06879E-27
4.00316E-01 7.75667E-27
4.04596E-01 7.45755E-27
4.08882E-01 7.17085E-27
4.13176E-01 6.89601E-27
4.17476E-01 6.63249E-27
4.21783E-01 6.37978E-27
4.26095E-01 6.13742E-27
4.30413E-01 5.90494E-27
4.34737E-01 5.68190E-27
4.39065E-01 5.46789E-27
4.43398E-01 5.26252E-27
4.47736E-01 5.06541E-27
4.52077E-01 4.87620E-27
4.56422E-01 4.69455E-27
4.60770E-01 4.52013E-27
4.65122E-01 4.35263E-27
4.69476E-01 4.19176E-27
4.73832E-01 4.03724E-27
4.78190E-01 3.88879E-27
4.82550E-01 3.74616E-27
4.86912E-01 3.60910E-27
4.91274E-01 3.47738E-27
4.95637E-01 3.35077E-27
5.00000E-01 3.22907E-27
5.04363E-01 3.11206E-27
5.08726E-01 2.99955E-27
5.13088E-01 2.89137E-27
5.17450E-01 2.78732E-27
5.21810E-01 2.68724E-27
5.26168E-01 2.59097E-27
5.30524E-01 2.49835E-27
5.34878E-01 2.40923E-27
5.39230E-01 2.32347E-27
5.43578E-01 2.24094E-27
5.47923E-01 2.16150E-27
5.52264E-01 2.08504E-27
5.56602E-01 2.01143E-27
5.60935E-01 1.94056E-27
5.65263E-01 1.87231E-27
5.69587E-01 1.80659E-27
5.73905E-01 1.74330E-27
5.78217E-01 1.68234E-27
5.82524E-01 1.62361E-27
5.86824E-01 1.56704E-27
5.91118E-01 1.51253E-27
5.95404E-01 1.46001E-27
5.99684E-01 1.40940E-27
6.03956E-01 1.36062E-27
6.08220E-01 1.31361E-27
6.12476E-01 1.26829E-27
6.16723E-01 1.22461E-27
6.20961E-01 1.18249E-27
6.25190E-01 1.14188E-27
6.29410E-01 1.10272E-27
6.33619E-01 1.06496E-27
6.37819E-01 1.02854E-27
6.42008E-01 9.93408E-28
6.46186E-01 9.59523E-28
6.50353E-01 9.26835E-28
6.54508E-01 8.95299E-28
6.58652E-01 8.64871E-28
6.62784E-01 8.35510E-28
6.66903E-01 8.07177E-28
6.71010E-01 7.79834E-28
6.75104E-01 7.53443E-28
6.79184E-01 7.27969E-28
6.83251E-01 7.03379E-28
6.87303E-01 6.79641E-28
6.91342E-01 6.56722E-28
6.95366E-01 6.34593E-28
6.99375E-01 6.13226E-28
7.03368E-01 5.92592E-28
7.07347E-01 5.72664E-28
7.11309E-01 5.53418E-28
7.15256E-01 5.34829E-28
7.19186E-01 5.16872E-28
7.23099E-01 4.99525E-28
7.26995E-01 4.82767E-28
7.30874E-01 4.66576E-28
7.34736E-01 4.50932E-28
7.38579E-01 4.35815E-28
7.42405E-01 4.21207E-28
7.46212E-01 4.07089E-28
7.50000E-01 3.93444E-28
7.53769E-01 3.80257E-28
7.57519E-01 3.67509E-28
7.61249E-01 3.55187E-28
7.64960E-01 3.43274E-28
7.68650E-01 3.31757E-28
7.72320E-01 3.20622E-28
7.75968E-01 3.09856E-28
7.79596E-01 2.99445E-28
7.83203E-01 2.89378E-28
7.86788E-01 2.79642E-28
7.90351E-01 2.70227E-28
7.93893E-01 2.61120E-28
7.97411E-01 2.52312E-28
8.00908E-01 2.43792E-28
8.04381E-01 2.35550E-28
8.07831E-01 2.27577E-28
8.11257E-01 2.19864E-28
8.14660E-01 2.12401E-28
8.18039E-01 2.05181E-28
8.21394E-01 1.98195E-28
8.24724E-01 1.91435E-28
8.28030E-01 1.84893E-28
8.31310E-01 1.78563E-28
8.34565E-01 1.72437E-28
8.37795E-01 1.66508E-28
8.40999E-01 1.60770E-28
8.44177E-01 1.55216E-28
8.47329E-01 1.49841E-28
8.50455E-01 1.44638E-28
8.53553E-01 1.39601E-28
8.56625E-01 1.34725E-28
8.59670E-01 1.30005E-28
8.62687E-01 1.25436E-28
8.65677E-01 1.21013E-28
8.68639E-01 1.16730E-28
8.71572E-01 1.12584E-28
8.74478E-01 1.08569E-28
8.77355E-01 1.04683E-28
8.80203E-01 1.00920E-28
8.83022E-01 9.72758E-29
8.85812E-01 9.37477E-29
8.88573E-01 9.03316E-29
8.91304E-01 8.70237E-29
8.94005E-01 8.38208E-29
8.96677E-01 8.07194E-29
8.99318E-01 7.77163E-29
9.01928E-01 7.48084E-29
9.04508E-01 7.19926E-29
9.07058E-01 6.92662E-29
9.09576E-01 6.66262E-29
9.12063E-01 6.40700E-29
9.14519E-01 6.15950E-29
9.16943E-01 5.91986E-29
9.19335E-01 5.68784E-29
9.21696E-01 5.46320E-29
9.24024E-01 5.24572E-29
9.26320E-01 5.03518E-29
9.28584E-01 4.83137E-29
9.30815E-01 4.63408E-29
9.33013E-01 4.44311E-29
9.35178E-01 4.25828E-29
9.37310E-01 4.07940E-29
9.39409E-01 3.90629E-29
9.41474E-01 3.73879E-29
9.43505E-01 3.57672E-29
9.45503E-01 3.41993E-29
9.47467E-01 3.26827E-29
9.49397E-01 3.12158E-29
9.51293E-01 2.97972E-29
9.53154E-01 2.84255E-29
9.54981E-01 2.70995E-29
9.56773E-01 2.58177E-29
9.58530E-01 2.45791E-29
9.60252E-01 2.33822E-29
9.61940E-01 2.22262E-29
9.63592E-01 2.11097E-29
9.65209E-01 2.00317E-29
9.66790E-01 1.89913E-29
9.68336E-01 1.79873E-29
9.69846E-01 1.70189E-29
9.71321E-01 1.60852E-29
9.72759E-01 1.51851E-29
9.74162E-01 1.43180E-29
9.75528E-01 1.34829E-29
9.76858E-01 1.26791E-29
9.78152E-01 1.19058E-29
9.79410E-01 1.11623E-29
9.80631E-01 1.04479E-29
9.81815E-01 9.76187E-30
9.82963E-01 9.10363E-30
9.84074E-01 8.47255E-30
9.85148E-01 7.86804E-30
9.86185E-01 7.28953E-30
9.87185E-01 6.73648E-30
9.88148E-01 6.20838E-30
9.89074E-01 5.70474E-30
9.89962E-01 5.22509E-30
9.90814E-01 4.76898E-30
9.91627E-01 4.33599E-30
9.92404E-01 3.92573E-30
9.93143E-01 3.53781E-30
9.93844E-01 3.17187E-30
9.94508E-01 2.82758E-30
9.95134E-01 2.50461E-30
9.95722E-01 2.20269E-30
9.96273E-01 1.92151E-30
9.96786E-01 1.66083E-30
9.97261E-01 1.42041E-30
9.97698E-01 1.20002E-30
9.98097E-01 9.99469E-31
9.98459E-01 8.18565E-31
9.98782E-01 6.57146E-31
9.99067E-01 5.15063E-31
9.99315E-01 3.92187E-31
9.99524E-01 2.88403E-31
9.99695E-01 2.03619E-31
9.99829E-01 1.37756E-31
9.99924E-01 9.07543E-32
9.99981E-01 6.25700E-32
1.00000E+00 5.31784E-32
