 #
 # Subroutine ELSEPA. Elastic scattering of electrons and positrons
 #                    by neutral atoms and positive ions
 #
 # Projectile: positron
 # Kinetic energy = 9.00000E+07 eV = 3.30744E+06 a.u.
 #
 # WARNING: High-energy factorization with free-atom DF screening.
 #          Absorption, polarization and exchange corrections are
 #          switched off.
 #          Phase shifts are calculated for the bare nucleus.
 #          Scattering amplitudes are not evaluated.
 #
 # Element: Pb,  Z =  82,  atomic weight = 2.07200E+02 g/mol
 #
 # Nuclear model: Fermi distribution
 #                Average radius = 6.33160E-13 cm
 #                Skin thickness = 5.46000E-14 cm
 #
 # Number of electrons = 82
 #
 # Total elastic cross section = 8.60558E-18 cm**2 = 3.07311E-01 a0**2
 # 1st transport cross section = 1.47947E-24 cm**2 = 5.28328E-08 a0**2
 # 2nd transport cross section = 4.38869E-24 cm**2 = 1.56723E-07 a0**2
 #
 #
 # Differential cross section:                       MU=(1-COS(THETA))/2
 #
 #  THETA        MU          DCS          DCS        Sherman      error
 #  (deg)                 (cm**2/sr)   (a0**2/sr)    function
 #----------------------------------------------------------------------
0.00000E+00 5.06726E-10
7.61557E-13 5.05680E-10
1.18994E-12 5.05096E-10
1.71346E-12 5.04384E-10
2.33225E-12 5.03545E-10
3.04617E-12 5.02580E-10
3.85530E-12 5.01491E-10
4.75964E-12 5.00279E-10
5.75917E-12 4.98946E-10
6.85391E-12 4.97493E-10
8.04379E-12 4.95923E-10
9.32893E-12 4.94237E-10
1.07092E-11 4.92438E-10
1.21847E-11 4.90528E-10
1.37554E-11 4.88510E-10
1.54213E-11 4.86386E-10
1.71823E-11 4.84159E-10
1.90386E-11 4.81832E-10
2.09900E-11 4.79407E-10
2.30367E-11 4.76887E-10
2.51785E-11 4.74277E-10
2.74156E-11 4.71577E-10
2.97478E-11 4.68778E-10
3.21752E-11 4.65898E-10
3.46979E-11 4.62946E-10
3.73157E-11 4.59927E-10
4.00286E-11 4.56844E-10
4.28368E-11 4.53701E-10
4.57402E-11 4.50463E-10
4.87388E-11 4.47156E-10
5.18325E-11 4.43799E-10
5.50215E-11 4.40398E-10
5.83057E-11 4.36956E-10
6.16850E-11 4.33476E-10
6.51595E-11 4.29919E-10
6.87293E-11 4.26305E-10
7.23943E-11 4.22664E-10
7.61544E-11 4.19000E-10
1.18991E-10 3.81055E-10
1.71347E-10 3.42591E-10
2.33223E-10 3.05527E-10
3.04617E-10 2.71236E-10
3.85531E-10 2.40237E-10
4.75965E-10 2.12671E-10
5.75917E-10 1.88493E-10
6.85389E-10 1.67347E-10
8.04380E-10 1.48925E-10
9.32891E-10 1.32918E-10
1.07092E-09 1.18937E-10
1.21847E-09 1.06733E-10
1.37554E-09 9.60640E-11
1.54213E-09 8.66621E-11
1.71823E-09 7.83863E-11
1.90386E-09 7.10792E-11
2.09900E-09 6.45742E-11
2.30367E-09 5.87966E-11
2.51785E-09 5.36441E-11
2.74156E-09 4.90219E-11
2.97478E-09 4.46157E-11
3.21752E-09 4.07019E-11
3.46978E-09 3.73070E-11
3.73156E-09 3.43481E-11
4.00286E-09 3.17573E-11
4.28368E-09 2.94789E-11
4.57402E-09 2.71904E-11
4.87388E-09 2.50558E-11
5.18326E-09 2.31697E-11
5.50215E-09 2.14970E-11
5.83057E-09 2.00083E-11
6.16850E-09 1.86788E-11
6.51596E-09 1.73781E-11
6.87293E-09 1.61516E-11
7.23942E-09 1.50516E-11
7.61544E-09 1.40620E-11
1.18991E-08 7.56452E-12
1.71347E-08 4.45145E-12
2.33223E-08 2.79802E-12
3.04617E-08 1.84994E-12
3.85531E-08 1.26712E-12
4.75965E-08 8.92898E-13
5.75917E-08 6.45694E-13
6.85389E-08 4.77686E-13
8.04380E-08 3.60417E-13
9.32891E-08 2.77371E-13
1.07092E-07 2.17263E-13
1.21847E-07 1.72809E-13
1.37554E-07 1.39275E-13
1.54213E-07 1.13517E-13
1.71823E-07 9.35011E-14
1.90386E-07 7.77540E-14
2.09900E-07 6.51987E-14
2.30367E-07 5.50908E-14
2.51785E-07 4.68693E-14
2.74156E-07 4.01209E-14
2.97478E-07 3.45221E-14
3.21752E-07 2.98919E-14
3.46978E-07 2.60226E-14
3.73156E-07 2.27434E-14
4.00286E-07 1.99852E-14
4.28368E-07 1.76147E-14
4.57402E-07 1.55949E-14
4.87388E-07 1.38560E-14
5.18325E-07 1.23502E-14
5.50215E-07 1.10500E-14
5.83057E-07 9.90852E-15
6.16850E-07 8.91554E-15
6.51596E-07 8.04183E-15
6.87293E-07 7.27257E-15
7.23942E-07 6.59464E-15
7.61543E-07 5.99128E-15
1.18991E-06 2.56058E-15
1.71347E-06 1.27009E-15
2.33223E-06 6.99976E-16
3.04617E-06 4.16964E-16
3.85531E-06 2.63581E-16
4.75964E-06 1.74629E-16
5.75916E-06 1.20192E-16
6.85388E-06 8.53835E-17
8.04378E-06 6.22988E-17
9.32888E-06 4.65076E-17
1.07092E-05 3.54142E-17
1.21846E-05 2.74383E-17
1.37553E-05 2.15859E-17
1.54212E-05 1.72136E-17
1.71822E-05 1.38944E-17
1.90385E-05 1.13307E-17
2.09899E-05 9.34433E-18
2.30365E-05 7.77326E-18
2.51783E-05 6.51681E-18
2.74153E-05 5.50262E-18
2.97475E-05 4.67745E-18
3.21749E-05 4.00128E-18
3.46974E-05 3.44330E-18
3.73152E-05 2.97971E-18
4.00281E-05 2.59189E-18
4.28362E-05 2.26526E-18
4.57395E-05 1.98847E-18
4.87380E-05 1.75256E-18
5.18317E-05 1.55048E-18
5.50205E-05 1.37661E-18
5.83045E-05 1.22640E-18
6.16838E-05 1.09611E-18
6.51582E-05 9.82704E-19
6.87277E-05 8.83611E-19
7.23925E-05 7.96710E-19
7.61524E-05 7.20292E-19
9.21439E-05 4.92484E-19
1.09658E-04 3.47957E-19
1.28695E-04 2.52747E-19
1.49255E-04 1.87954E-19
1.71338E-04 1.42643E-19
1.94942E-04 1.10188E-19
2.20070E-04 8.64522E-20
2.46720E-04 6.87716E-20
2.74892E-04 5.53844E-20
3.04586E-04 4.50985E-20
3.35803E-04 3.70912E-20
3.68542E-04 3.07828E-20
4.02802E-04 2.57588E-20
4.38585E-04 2.17182E-20
4.75889E-04 1.84387E-20
5.14715E-04 1.57548E-20
5.55063E-04 1.35413E-20
5.96931E-04 1.17028E-20
6.40321E-04 1.01655E-20
6.85233E-04 8.87220E-21
7.31665E-04 7.77792E-21
7.79618E-04 6.84699E-21
8.29092E-04 6.05107E-21
8.80086E-04 5.36732E-21
9.32601E-04 4.77730E-21
9.86636E-04 4.26605E-21
1.04219E-03 3.82126E-21
1.09927E-03 3.43286E-21
1.15786E-03 3.09248E-21
1.21797E-03 2.79317E-21
1.27961E-03 2.52915E-21
1.34276E-03 2.29551E-21
1.40743E-03 2.08819E-21
1.47362E-03 1.90370E-21
1.54133E-03 1.73909E-21
1.61056E-03 1.59186E-21
1.68131E-03 1.45983E-21
1.75357E-03 1.34118E-21
1.82735E-03 1.23431E-21
1.90265E-03 1.13785E-21
1.97947E-03 1.05059E-21
2.05780E-03 9.71521E-22
2.13765E-03 8.99726E-22
2.21902E-03 8.34420E-22
2.30190E-03 7.74914E-22
2.38630E-03 7.20600E-22
2.47222E-03 6.70945E-22
2.55965E-03 6.25479E-22
2.64859E-03 5.83785E-22
2.73905E-03 5.45495E-22
2.83103E-03 5.10281E-22
2.92452E-03 4.77852E-22
3.01952E-03 4.47949E-22
3.11604E-03 4.20341E-22
3.21407E-03 3.94821E-22
3.31362E-03 3.71206E-22
3.41468E-03 3.49303E-22
3.51725E-03 3.28983E-22
3.62133E-03 3.10111E-22
3.72692E-03 2.92566E-22
3.83403E-03 2.76237E-22
3.94265E-03 2.61025E-22
4.05278E-03 2.46840E-22
4.16442E-03 2.33599E-22
4.27757E-03 2.21228E-22
4.39223E-03 2.09661E-22
4.50840E-03 1.98834E-22
4.62608E-03 1.88693E-22
4.74527E-03 1.79185E-22
4.86597E-03 1.70264E-22
4.98817E-03 1.61888E-22
5.11188E-03 1.54016E-22
5.23711E-03 1.46613E-22
5.36383E-03 1.39647E-22
5.49207E-03 1.33085E-22
5.62181E-03 1.26901E-22
5.75306E-03 1.21070E-22
5.88581E-03 1.15566E-22
6.02007E-03 1.10369E-22
6.15583E-03 1.05458E-22
6.29310E-03 1.00814E-22
6.43187E-03 9.64207E-23
6.57214E-03 9.22618E-23
6.71392E-03 8.83225E-23
6.85720E-03 8.45890E-23
7.00198E-03 8.10486E-23
7.14827E-03 7.76894E-23
7.29605E-03 7.45006E-23
7.44534E-03 7.14719E-23
7.59612E-03 6.85938E-23
7.97965E-03 6.20005E-23
8.37255E-03 5.61718E-23
8.77480E-03 5.10040E-23
9.18641E-03 4.64096E-23
9.60736E-03 4.23143E-23
1.00376E-02 3.86547E-23
1.04773E-02 3.53766E-23
1.09262E-02 3.24336E-23
1.13844E-02 2.97855E-23
1.18520E-02 2.73978E-23
1.23288E-02 2.52406E-23
1.28150E-02 2.32878E-23
1.33104E-02 2.15168E-23
1.38150E-02 1.99078E-23
1.43290E-02 1.84434E-23
1.48521E-02 1.71085E-23
1.53845E-02 1.58896E-23
1.59262E-02 1.47749E-23
1.64770E-02 1.37541E-23
1.70371E-02 1.28179E-23
1.76063E-02 1.19581E-23
1.81848E-02 1.11673E-23
1.87724E-02 1.04392E-23
1.93692E-02 9.76788E-24
1.99751E-02 9.14819E-24
2.05901E-02 8.57550E-24
2.12143E-02 8.04563E-24
2.18476E-02 7.55484E-24
2.24900E-02 7.09977E-24
2.31415E-02 6.67738E-24
2.38021E-02 6.28493E-24
2.44717E-02 5.91994E-24
2.51504E-02 5.58017E-24
2.58382E-02 5.26359E-24
2.65349E-02 4.96835E-24
2.72407E-02 4.69277E-24
2.79555E-02 4.43533E-24
2.86793E-02 4.19463E-24
2.94120E-02 3.96941E-24
3.01537E-02 3.75851E-24
3.09043E-02 3.56086E-24
3.16639E-02 3.37550E-24
3.24324E-02 3.20153E-24
3.32098E-02 3.03815E-24
3.39961E-02 2.88460E-24
3.47912E-02 2.74020E-24
3.55952E-02 2.60431E-24
3.64081E-02 2.47635E-24
3.72297E-02 2.35578E-24
3.80602E-02 2.24211E-24
3.88995E-02 2.13488E-24
3.97476E-02 2.03366E-24
4.06044E-02 1.93807E-24
4.14700E-02 1.84774E-24
4.23443E-02 1.76234E-24
4.32273E-02 1.68155E-24
4.41190E-02 1.60508E-24
4.50194E-02 1.53268E-24
4.59284E-02 1.46408E-24
4.68461E-02 1.39907E-24
4.87074E-02 1.27892E-24
5.06030E-02 1.17068E-24
5.25328E-02 1.07300E-24
5.44967E-02 9.84692E-25
5.64946E-02 9.04739E-25
5.85262E-02 8.32235E-25
6.05914E-02 7.66388E-25
6.26901E-02 7.06500E-25
6.48222E-02 6.51958E-25
6.69873E-02 6.02218E-25
6.91854E-02 5.56800E-25
7.14163E-02 5.15276E-25
7.36799E-02 4.77269E-25
7.59760E-02 4.42440E-25
7.83043E-02 4.10488E-25
8.06647E-02 3.81144E-25
8.30571E-02 3.54167E-25
8.54812E-02 3.29343E-25
8.79369E-02 3.06476E-25
9.04240E-02 2.85394E-25
9.29422E-02 2.65938E-25
9.54915E-02 2.47969E-25
9.80716E-02 2.31358E-25
1.00682E-01 2.15990E-25
1.03323E-01 2.01761E-25
1.05995E-01 1.88576E-25
1.08696E-01 1.76350E-25
1.11427E-01 1.65005E-25
1.14188E-01 1.54469E-25
1.16978E-01 1.44678E-25
1.19797E-01 1.35574E-25
1.22645E-01 1.27103E-25
1.25522E-01 1.19217E-25
1.28428E-01 1.11869E-25
1.31361E-01 1.05020E-25
1.34323E-01 9.86318E-26
1.37313E-01 9.26702E-26
1.40330E-01 8.71037E-26
1.43375E-01 8.19034E-26
1.46447E-01 7.70427E-26
1.49545E-01 7.24971E-26
1.52671E-01 6.82442E-26
1.55823E-01 6.42632E-26
1.59001E-01 6.05351E-26
1.62205E-01 5.70421E-26
1.65435E-01 5.37681E-26
1.68690E-01 5.06979E-26
1.71970E-01 4.78178E-26
1.75276E-01 4.51148E-26
1.78606E-01 4.25770E-26
1.81961E-01 4.01935E-26
1.85340E-01 3.79540E-26
1.88743E-01 3.58491E-26
1.92169E-01 3.38699E-26
1.95619E-01 3.20083E-26
1.99092E-01 3.02566E-26
2.02589E-01 2.86080E-26
2.06107E-01 2.70557E-26
2.09649E-01 2.55937E-26
2.13212E-01 2.42164E-26
2.16797E-01 2.29184E-26
2.20404E-01 2.16948E-26
2.24032E-01 2.05409E-26
2.27680E-01 1.94526E-26
2.31350E-01 1.84258E-26
2.35040E-01 1.74567E-26
2.38751E-01 1.65419E-26
2.42481E-01 1.56782E-26
2.46231E-01 1.48624E-26
2.50000E-01 1.40916E-26
2.53788E-01 1.33634E-26
2.57595E-01 1.26750E-26
2.61421E-01 1.20243E-26
2.65264E-01 1.14089E-26
2.69126E-01 1.08269E-26
2.73005E-01 1.02763E-26
2.76901E-01 9.75528E-27
2.80814E-01 9.26220E-27
2.84744E-01 8.79543E-27
2.88691E-01 8.35349E-27
2.92653E-01 7.93498E-27
2.96632E-01 7.53856E-27
3.00625E-01 7.16301E-27
3.04634E-01 6.80716E-27
3.08658E-01 6.46991E-27
3.12697E-01 6.15024E-27
3.16749E-01 5.84716E-27
3.20816E-01 5.55979E-27
3.24896E-01 5.28724E-27
3.28990E-01 5.02871E-27
3.33097E-01 4.78345E-27
3.37216E-01 4.55073E-27
3.41348E-01 4.32988E-27
3.45492E-01 4.12026E-27
3.49647E-01 3.92126E-27
3.53814E-01 3.73232E-27
3.57992E-01 3.55291E-27
3.62181E-01 3.38251E-27
3.66381E-01 3.22066E-27
3.70590E-01 3.06690E-27
3.74810E-01 2.92081E-27
3.79039E-01 2.78199E-27
3.83277E-01 2.65005E-27
3.87524E-01 2.52464E-27
3.91780E-01 2.40542E-27
3.96044E-01 2.29206E-27
4.00316E-01 2.18428E-27
4.04596E-01 2.08177E-27
4.08882E-01 1.98428E-27
4.13176E-01 1.89154E-27
4.17476E-01 1.80331E-27
4.21783E-01 1.71936E-27
4.26095E-01 1.63948E-27
4.30413E-01 1.56345E-27
4.34737E-01 1.49109E-27
4.39065E-01 1.42221E-27
4.43398E-01 1.35663E-27
4.47736E-01 1.29420E-27
4.52077E-01 1.23475E-27
4.56422E-01 1.17813E-27
4.60770E-01 1.12420E-27
4.65122E-01 1.07284E-27
4.69476E-01 1.02391E-27
4.73832E-01 9.77293E-28
4.78190E-01 9.32876E-28
4.82550E-01 8.90550E-28
4.86912E-01 8.50214E-28
4.91274E-01 8.11770E-28
4.95637E-01 7.75125E-28
5.00000E-01 7.40193E-28
5.04363E-01 7.06890E-28
5.08726E-01 6.75137E-28
5.13088E-01 6.44859E-28
5.17450E-01 6.15985E-28
5.21810E-01 5.88447E-28
5.26168E-01 5.62182E-28
5.30524E-01 5.37129E-28
5.34878E-01 5.13228E-28
5.39230E-01 4.90426E-28
5.43578E-01 4.68670E-28
5.47923E-01 4.47910E-28
5.52264E-01 4.28099E-28
5.56602E-01 4.09191E-28
5.60935E-01 3.91146E-28
5.65263E-01 3.73920E-28
5.69587E-01 3.57477E-28
5.73905E-01 3.41779E-28
5.78217E-01 3.26792E-28
5.82524E-01 3.12481E-28
5.86824E-01 2.98816E-28
5.91118E-01 2.85766E-28
5.95404E-01 2.73302E-28
5.99684E-01 2.61398E-28
6.03956E-01 2.50028E-28
6.08220E-01 2.39166E-28
6.12476E-01 2.28789E-28
6.16723E-01 2.18875E-28
6.20961E-01 2.09402E-28
6.25190E-01 2.00351E-28
6.29410E-01 1.91701E-28
6.33619E-01 1.83435E-28
6.37819E-01 1.75534E-28
6.42008E-01 1.67983E-28
6.46186E-01 1.60765E-28
6.50353E-01 1.53864E-28
6.54508E-01 1.47268E-28
6.58652E-01 1.40961E-28
6.62784E-01 1.34930E-28
6.66903E-01 1.29164E-28
6.71010E-01 1.23650E-28
6.75104E-01 1.18377E-28
6.79184E-01 1.13334E-28
6.83251E-01 1.08510E-28
6.87303E-01 1.03896E-28
6.91342E-01 9.94830E-29
6.95366E-01 9.52609E-29
6.99375E-01 9.12216E-29
7.03368E-01 8.73571E-29
7.07347E-01 8.36594E-29
7.11309E-01 8.01212E-29
7.15256E-01 7.67354E-29
7.19186E-01 7.34951E-29
7.23099E-01 7.03941E-29
7.26995E-01 6.74261E-29
7.30874E-01 6.45852E-29
7.34736E-01 6.18659E-29
7.38579E-01 5.92627E-29
7.42405E-01 5.67706E-29
7.46212E-01 5.43847E-29
7.50000E-01 5.21004E-29
7.53769E-01 4.99131E-29
7.57519E-01 4.78187E-29
7.61249E-01 4.58130E-29
7.64960E-01 4.38923E-29
7.68650E-01 4.20528E-29
7.72320E-01 4.02910E-29
7.75968E-01 3.86035E-29
7.79596E-01 3.69871E-29
7.83203E-01 3.54387E-29
7.86788E-01 3.39553E-29
7.90351E-01 3.25343E-29
7.93893E-01 3.11728E-29
7.97411E-01 2.98683E-29
8.00908E-01 2.86183E-29
8.04381E-01 2.74206E-29
8.07831E-01 2.62728E-29
8.11257E-01 2.51729E-29
8.14660E-01 2.41187E-29
8.18039E-01 2.31084E-29
8.21394E-01 2.21400E-29
8.24724E-01 2.12118E-29
8.28030E-01 2.03220E-29
8.31310E-01 1.94691E-29
8.34565E-01 1.86514E-29
8.37795E-01 1.78675E-29
8.40999E-01 1.71159E-29
8.44177E-01 1.63953E-29
8.47329E-01 1.57043E-29
8.50455E-01 1.50418E-29
8.53553E-01 1.44064E-29
8.56625E-01 1.37971E-29
8.59670E-01 1.32128E-29
8.62687E-01 1.26524E-29
8.65677E-01 1.21150E-29
8.68639E-01 1.15994E-29
8.71572E-01 1.11050E-29
8.74478E-01 1.06307E-29
8.77355E-01 1.01757E-29
8.80203E-01 9.73926E-30
8.83022E-01 9.32056E-30
8.85812E-01 8.91887E-30
8.88573E-01 8.53350E-30
8.91304E-01 8.16376E-30
8.94005E-01 7.80901E-30
8.96677E-01 7.46863E-30
8.99318E-01 7.14204E-30
9.01928E-01 6.82865E-30
9.04508E-01 6.52794E-30
9.07058E-01 6.23938E-30
9.09576E-01 5.96247E-30
9.12063E-01 5.69674E-30
9.14519E-01 5.44174E-30
9.16943E-01 5.19702E-30
9.19335E-01 4.96217E-30
9.21696E-01 4.73679E-30
9.24024E-01 4.52049E-30
9.26320E-01 4.31292E-30
9.28584E-01 4.11371E-30
9.30815E-01 3.92253E-30
9.33013E-01 3.73906E-30
9.35178E-01 3.56299E-30
9.37310E-01 3.39403E-30
9.39409E-01 3.23189E-30
9.41474E-01 3.07630E-30
9.43505E-01 2.92700E-30
9.45503E-01 2.78375E-30
9.47467E-01 2.64630E-30
9.49397E-01 2.51443E-30
9.51293E-01 2.38793E-30
9.53154E-01 2.26657E-30
9.54981E-01 2.15017E-30
9.56773E-01 2.03852E-30
9.58530E-01 1.93146E-30
9.60252E-01 1.82879E-30
9.61940E-01 1.73037E-30
9.63592E-01 1.63601E-30
9.65209E-01 1.54558E-30
9.66790E-01 1.45892E-30
9.68336E-01 1.37590E-30
9.69846E-01 1.29637E-30
9.71321E-01 1.22022E-30
9.72759E-01 1.14732E-30
9.74162E-01 1.07754E-30
9.75528E-01 1.01079E-30
9.76858E-01 9.46941E-31
9.78152E-01 8.85908E-31
9.79410E-01 8.27586E-31
9.80631E-01 7.71883E-31
9.81815E-01 7.18711E-31
9.82963E-01 6.67985E-31
9.84074E-01 6.19624E-31
9.85148E-01 5.73552E-31
9.86185E-01 5.29695E-31
9.87185E-01 4.87985E-31
9.88148E-01 4.48356E-31
9.89074E-01 4.10745E-31
9.89962E-01 3.75092E-31
9.90814E-01 3.41343E-31
9.91627E-01 3.09443E-31
9.92404E-01 2.79344E-31
9.93143E-01 2.50997E-31
9.93844E-01 2.24358E-31
9.94508E-01 1.99386E-31
9.95134E-01 1.76042E-31
9.95722E-01 1.54289E-31
9.96273E-01 1.34093E-31
9.96786E-01 1.15424E-31
9.97261E-01 9.82505E-32
9.97698E-01 8.25480E-32
9.98097E-01 6.82911E-32
9.98459E-01 5.54578E-32
9.98782E-01 4.40283E-32
9.99067E-01 3.39846E-32
9.99315E-01 2.53114E-32
9.99524E-01 1.79951E-32
9.99695E-01 1.20245E-32
9.99829E-01 7.39025E-33
9.99924E-01 4.08519E-33
9.99981E-01 2.10412E-33
1.00000E+00 1.44417E-33
