 #
 # Subroutine ELSEPA. Elastic scattering of electrons and positrons
 #                    by neutral atoms and positive ions
 #
 # Projectile: positron
 # Kinetic energy = 1.00000E+07 eV = 3.67493E+05 a.u.
 #
 # WARNING: High-energy factorization with free-atom DF screening.
 #          Absorption, polarization and exchange corrections are
 #          switched off.
 #          Phase shifts are calculated for the bare nucleus.
 #          Scattering amplitudes are not evaluated.
 #
 # Element: Pb,  Z =  82,  atomic weight = 2.07200E+02 g/mol
 #
 # Nuclear model: Fermi distribution
 #                Average radius = 6.33160E-13 cm
 #                Skin thickness = 5.46000E-14 cm
 #
 # Number of electrons = 82
 #
 # Total elastic cross section = 8.62023E-18 cm**2 = 3.07834E-01 a0**2
 # 1st transport cross section = 8.21242E-23 cm**2 = 2.93271E-06 a0**2
 # 2nd transport cross section = 2.37479E-22 cm**2 = 8.48051E-06 a0**2
 #
 #
 # Differential cross section:                       MU=(1-COS(THETA))/2
 #
 #  THETA        MU          DCS          DCS        Sherman      error
 #  (deg)                 (cm**2/sr)   (a0**2/sr)    function
 #----------------------------------------------------------------------
0.00000E+00 6.83374E-12
7.61557E-13 6.83353E-12
1.18994E-12 6.83342E-12
1.71346E-12 6.83329E-12
2.33225E-12 6.83313E-12
3.04617E-12 6.83295E-12
3.85530E-12 6.83275E-12
4.75964E-12 6.83252E-12
5.75917E-12 6.83227E-12
6.85391E-12 6.83199E-12
8.04379E-12 6.83169E-12
9.32893E-12 6.83137E-12
1.07092E-11 6.83103E-12
1.21847E-11 6.83066E-12
1.37554E-11 6.83026E-12
1.54213E-11 6.82985E-12
1.71823E-11 6.82941E-12
1.90386E-11 6.82894E-12
2.09900E-11 6.82846E-12
2.30367E-11 6.82795E-12
2.51785E-11 6.82741E-12
2.74156E-11 6.82686E-12
2.97478E-11 6.82628E-12
3.21752E-11 6.82567E-12
3.46979E-11 6.82504E-12
3.73157E-11 6.82439E-12
4.00286E-11 6.82372E-12
4.28368E-11 6.82302E-12
4.57402E-11 6.82230E-12
4.87388E-11 6.82155E-12
5.18325E-11 6.82078E-12
5.50215E-11 6.81999E-12
5.83057E-11 6.81918E-12
6.16850E-11 6.81834E-12
6.51595E-11 6.81748E-12
6.87293E-11 6.81659E-12
7.23943E-11 6.81568E-12
7.61544E-11 6.81475E-12
1.18991E-10 6.80416E-12
1.71347E-10 6.79126E-12
2.33223E-10 6.77608E-12
3.04617E-10 6.75865E-12
3.85531E-10 6.73900E-12
4.75965E-10 6.71716E-12
5.75917E-10 6.69317E-12
6.85389E-10 6.66708E-12
8.04380E-10 6.63893E-12
9.32891E-10 6.60877E-12
1.07092E-09 6.57666E-12
1.21847E-09 6.54265E-12
1.37554E-09 6.50679E-12
1.54213E-09 6.46915E-12
1.71823E-09 6.42979E-12
1.90386E-09 6.38878E-12
2.09900E-09 6.34614E-12
2.30367E-09 6.30173E-12
2.51785E-09 6.25598E-12
2.74156E-09 6.20899E-12
2.97478E-09 6.16083E-12
3.21752E-09 6.11159E-12
3.46978E-09 6.06059E-12
3.73156E-09 6.00853E-12
4.00286E-09 5.95562E-12
4.28368E-09 5.90194E-12
4.57402E-09 5.84756E-12
4.87388E-09 5.79187E-12
5.18326E-09 5.73525E-12
5.50215E-09 5.67815E-12
5.83057E-09 5.62067E-12
6.16850E-09 5.56286E-12
6.51596E-09 5.50427E-12
6.87293E-09 5.44476E-12
7.23942E-09 5.38513E-12
7.61544E-09 5.32544E-12
1.18991E-08 4.72234E-12
1.71347E-08 4.13947E-12
2.33223E-08 3.60479E-12
3.04617E-08 3.13070E-12
3.85531E-08 2.71912E-12
4.75965E-08 2.36610E-12
5.75917E-08 2.06506E-12
6.85389E-08 1.80862E-12
8.04380E-08 1.58991E-12
9.32891E-08 1.40296E-12
1.07092E-07 1.24256E-12
1.21847E-07 1.10433E-12
1.37554E-07 9.84675E-13
1.54213E-07 8.80647E-13
1.71823E-07 7.89826E-13
1.90386E-07 7.10225E-13
2.09900E-07 6.39626E-13
2.30367E-07 5.73157E-13
2.51785E-07 5.16955E-13
2.74156E-07 4.69121E-13
2.97478E-07 4.28156E-13
3.21752E-07 3.92864E-13
3.46978E-07 3.56973E-13
3.73156E-07 3.25202E-13
4.00286E-07 2.97624E-13
4.28368E-07 2.73568E-13
4.57402E-07 2.52487E-13
4.87388E-07 2.32192E-13
5.18325E-07 2.13422E-13
5.50215E-07 1.96861E-13
5.83057E-07 1.82194E-13
6.16850E-07 1.69157E-13
6.51596E-07 1.57017E-13
6.87293E-07 1.45495E-13
7.23942E-07 1.35191E-13
7.61543E-07 1.25950E-13
1.18991E-06 6.62128E-14
1.71347E-06 3.83682E-14
2.33223E-06 2.37654E-14
3.04617E-06 1.54310E-14
3.85531E-06 1.03983E-14
4.75964E-06 7.23695E-15
5.75916E-06 5.18397E-15
6.85388E-06 3.81065E-15
8.04378E-06 2.86997E-15
9.32888E-06 2.20588E-15
1.07092E-05 1.72449E-15
1.21846E-05 1.36833E-15
1.37553E-05 1.10026E-15
1.54212E-05 8.95219E-16
1.71822E-05 7.35940E-16
1.90385E-05 6.10158E-16
2.09899E-05 5.10740E-16
2.30365E-05 4.30426E-16
2.51783E-05 3.65811E-16
2.74153E-05 3.12295E-16
2.97475E-05 2.68539E-16
3.21749E-05 2.31937E-16
3.46974E-05 2.01561E-16
3.73152E-05 1.75913E-16
4.00281E-05 1.54320E-16
4.28362E-05 1.35892E-16
4.57395E-05 1.20166E-16
4.87380E-05 1.06620E-16
5.18317E-05 9.49316E-17
5.50205E-05 8.47884E-17
5.83045E-05 7.59597E-17
6.16838E-05 6.82517E-17
6.51582E-05 6.14916E-17
6.87277E-05 5.55546E-17
7.23925E-05 5.03094E-17
7.61524E-05 4.56756E-17
9.21439E-05 3.16954E-17
1.09658E-04 2.26723E-17
1.28695E-04 1.66443E-17
1.49255E-04 1.24935E-17
1.71338E-04 9.56051E-18
1.94942E-04 7.44005E-18
2.20070E-04 5.87609E-18
2.46720E-04 4.70200E-18
2.74892E-04 3.80667E-18
3.04586E-04 3.11427E-18
3.35803E-04 2.57206E-18
3.68542E-04 2.14259E-18
4.02802E-04 1.79890E-18
4.38585E-04 1.52124E-18
4.75889E-04 1.29499E-18
5.14715E-04 1.10918E-18
5.55063E-04 9.55432E-19
5.96931E-04 8.27360E-19
6.40321E-04 7.19990E-19
6.85233E-04 6.29442E-19
7.31665E-04 5.52660E-19
7.79618E-04 4.87207E-19
8.29092E-04 4.31143E-19
8.80086E-04 3.82897E-19
9.32601E-04 3.41200E-19
9.86636E-04 3.05016E-19
1.04219E-03 2.73492E-19
1.09927E-03 2.45930E-19
1.15786E-03 2.21746E-19
1.21797E-03 2.00457E-19
1.27961E-03 1.81657E-19
1.34276E-03 1.65005E-19
1.40743E-03 1.50214E-19
1.47362E-03 1.37040E-19
1.54133E-03 1.25275E-19
1.61056E-03 1.14743E-19
1.68131E-03 1.05293E-19
1.75357E-03 9.67925E-20
1.82735E-03 8.91307E-20
1.90265E-03 8.22103E-20
1.97947E-03 7.59467E-20
2.05780E-03 7.02667E-20
2.13765E-03 6.51059E-20
2.21902E-03 6.04093E-20
2.30190E-03 5.61274E-20
2.38630E-03 5.22169E-20
2.47222E-03 4.86398E-20
2.55965E-03 4.53628E-20
2.64859E-03 4.23564E-20
2.73905E-03 3.95941E-20
2.83103E-03 3.70523E-20
2.92452E-03 3.47105E-20
3.01952E-03 3.25502E-20
3.11604E-03 3.05548E-20
3.21407E-03 2.87092E-20
3.31362E-03 2.70003E-20
3.41468E-03 2.54162E-20
3.51725E-03 2.39461E-20
3.62133E-03 2.25803E-20
3.72692E-03 2.13100E-20
3.83403E-03 2.01274E-20
3.94265E-03 1.90254E-20
4.05278E-03 1.79975E-20
4.16442E-03 1.70376E-20
4.27757E-03 1.61406E-20
4.39223E-03 1.53016E-20
4.50840E-03 1.45161E-20
4.62608E-03 1.37802E-20
4.74527E-03 1.30900E-20
4.86597E-03 1.24423E-20
4.98817E-03 1.18340E-20
5.11188E-03 1.12621E-20
5.23711E-03 1.07243E-20
5.36383E-03 1.02179E-20
5.49207E-03 9.74099E-21
5.62181E-03 9.29140E-21
5.75306E-03 8.86728E-21
5.88581E-03 8.46695E-21
6.02007E-03 8.08884E-21
6.15583E-03 7.73149E-21
6.29310E-03 7.39352E-21
6.43187E-03 7.07371E-21
6.57214E-03 6.77090E-21
6.71392E-03 6.48404E-21
6.85720E-03 6.21210E-21
7.00198E-03 5.95418E-21
7.14827E-03 5.70943E-21
7.29605E-03 5.47704E-21
7.44534E-03 5.25629E-21
7.59612E-03 5.04646E-21
7.97965E-03 4.56567E-21
8.37255E-03 4.14044E-21
8.77480E-03 3.76328E-21
9.18641E-03 3.42782E-21
9.60736E-03 3.12868E-21
1.00376E-02 2.86125E-21
1.04773E-02 2.62159E-21
1.09262E-02 2.40633E-21
1.13844E-02 2.21257E-21
1.18520E-02 2.03777E-21
1.23288E-02 1.87978E-21
1.28150E-02 1.73669E-21
1.33104E-02 1.60685E-21
1.38150E-02 1.48883E-21
1.43290E-02 1.38136E-21
1.48521E-02 1.28333E-21
1.53845E-02 1.19378E-21
1.59262E-02 1.11184E-21
1.64770E-02 1.03675E-21
1.70371E-02 9.67833E-22
1.76063E-02 9.04502E-22
1.81848E-02 8.46221E-22
1.87724E-02 7.92517E-22
1.93692E-02 7.42967E-22
1.99751E-02 6.97194E-22
2.05901E-02 6.54858E-22
2.12143E-02 6.15657E-22
2.18476E-02 5.79317E-22
2.24900E-02 5.45592E-22
2.31415E-02 5.14262E-22
2.38021E-02 4.85126E-22
2.44717E-02 4.58003E-22
2.51504E-02 4.32729E-22
2.58382E-02 4.09157E-22
2.65349E-02 3.87150E-22
2.72407E-02 3.66588E-22
2.79555E-02 3.47358E-22
2.86793E-02 3.29358E-22
2.94120E-02 3.12496E-22
3.01537E-02 2.96687E-22
3.09043E-02 2.81854E-22
3.16639E-02 2.67926E-22
3.24324E-02 2.54837E-22
3.32098E-02 2.42529E-22
3.39961E-02 2.30945E-22
3.47912E-02 2.20037E-22
3.55952E-02 2.09757E-22
3.64081E-02 2.00063E-22
3.72297E-02 1.90916E-22
3.80602E-02 1.82278E-22
3.88995E-02 1.74118E-22
3.97476E-02 1.66403E-22
4.06044E-02 1.59105E-22
4.14700E-02 1.52198E-22
4.23443E-02 1.45656E-22
4.32273E-02 1.39457E-22
4.41190E-02 1.33580E-22
4.50194E-02 1.28005E-22
4.59284E-02 1.22714E-22
4.68461E-02 1.17690E-22
4.87074E-02 1.08379E-22
5.06030E-02 9.99583E-23
5.25328E-02 9.23283E-23
5.44967E-02 8.54023E-23
5.64946E-02 7.91044E-23
5.85262E-02 7.33679E-23
6.05914E-02 6.81342E-23
6.26901E-02 6.33518E-23
6.48222E-02 5.89753E-23
6.69873E-02 5.49641E-23
6.91854E-02 5.12828E-23
7.14163E-02 4.78995E-23
7.36799E-02 4.47860E-23
7.59760E-02 4.19170E-23
7.83043E-02 3.92702E-23
8.06647E-02 3.68253E-23
8.30571E-02 3.45643E-23
8.54812E-02 3.24711E-23
8.79369E-02 3.05311E-23
9.04240E-02 2.87309E-23
9.29422E-02 2.70590E-23
9.54915E-02 2.55047E-23
9.80716E-02 2.40579E-23
1.00682E-01 2.27105E-23
1.03323E-01 2.14540E-23
1.05995E-01 2.02814E-23
1.08696E-01 1.91863E-23
1.11427E-01 1.81624E-23
1.14188E-01 1.72044E-23
1.16978E-01 1.63074E-23
1.19797E-01 1.54667E-23
1.22645E-01 1.46783E-23
1.25522E-01 1.39383E-23
1.28428E-01 1.32433E-23
1.31361E-01 1.25900E-23
1.34323E-01 1.19756E-23
1.37313E-01 1.13972E-23
1.40330E-01 1.08525E-23
1.43375E-01 1.03390E-23
1.46447E-01 9.85485E-24
1.49545E-01 9.39793E-24
1.52671E-01 8.96648E-24
1.55823E-01 8.55883E-24
1.59001E-01 8.17345E-24
1.62205E-01 7.80892E-24
1.65435E-01 7.46391E-24
1.68690E-01 7.13720E-24
1.71970E-01 6.82764E-24
1.75276E-01 6.53419E-24
1.78606E-01 6.25587E-24
1.81961E-01 5.99175E-24
1.85340E-01 5.74099E-24
1.88743E-01 5.50281E-24
1.92169E-01 5.27645E-24
1.95619E-01 5.06124E-24
1.99092E-01 4.85653E-24
2.02589E-01 4.66172E-24
2.06107E-01 4.47625E-24
2.09649E-01 4.29960E-24
2.13212E-01 4.13127E-24
2.16797E-01 3.97082E-24
2.20404E-01 3.81779E-24
2.24032E-01 3.67181E-24
2.27680E-01 3.53248E-24
2.31350E-01 3.39946E-24
2.35040E-01 3.27240E-24
2.38751E-01 3.15101E-24
2.42481E-01 3.03499E-24
2.46231E-01 2.92406E-24
2.50000E-01 2.81786E-24
2.53788E-01 2.71624E-24
2.57595E-01 2.61896E-24
2.61421E-01 2.52581E-24
2.65264E-01 2.43659E-24
2.69126E-01 2.35110E-24
2.73005E-01 2.26916E-24
2.76901E-01 2.19060E-24
2.80814E-01 2.11525E-24
2.84744E-01 2.04297E-24
2.88691E-01 1.97359E-24
2.92653E-01 1.90700E-24
2.96632E-01 1.84305E-24
3.00625E-01 1.78163E-24
3.04634E-01 1.72262E-24
3.08658E-01 1.66590E-24
3.12697E-01 1.61138E-24
3.16749E-01 1.55895E-24
3.20816E-01 1.50853E-24
3.24896E-01 1.46001E-24
3.28990E-01 1.41332E-24
3.33097E-01 1.36838E-24
3.37216E-01 1.32511E-24
3.41348E-01 1.28344E-24
3.45492E-01 1.24330E-24
3.49647E-01 1.20462E-24
3.53814E-01 1.16734E-24
3.57992E-01 1.13140E-24
3.62181E-01 1.09675E-24
3.66381E-01 1.06333E-24
3.70590E-01 1.03110E-24
3.74810E-01 9.99992E-25
3.79039E-01 9.69974E-25
3.83277E-01 9.40998E-25
3.87524E-01 9.13022E-25
3.91780E-01 8.86006E-25
3.96044E-01 8.59911E-25
4.00316E-01 8.34700E-25
4.04596E-01 8.10340E-25
4.08882E-01 7.86796E-25
4.13176E-01 7.64037E-25
4.17476E-01 7.42033E-25
4.21783E-01 7.20753E-25
4.26095E-01 7.00171E-25
4.30413E-01 6.80260E-25
4.34737E-01 6.60994E-25
4.39065E-01 6.42349E-25
4.43398E-01 6.24303E-25
4.47736E-01 6.06832E-25
4.52077E-01 5.89915E-25
4.56422E-01 5.73532E-25
4.60770E-01 5.57664E-25
4.65122E-01 5.42291E-25
4.69476E-01 5.27395E-25
4.73832E-01 5.12961E-25
4.78190E-01 4.98970E-25
4.82550E-01 4.85407E-25
4.86912E-01 4.72257E-25
4.91274E-01 4.59506E-25
4.95637E-01 4.47139E-25
5.00000E-01 4.35143E-25
5.04363E-01 4.23505E-25
5.08726E-01 4.12213E-25
5.13088E-01 4.01255E-25
5.17450E-01 3.90619E-25
5.21810E-01 3.80294E-25
5.26168E-01 3.70271E-25
5.30524E-01 3.60538E-25
5.34878E-01 3.51087E-25
5.39230E-01 3.41907E-25
5.43578E-01 3.32990E-25
5.47923E-01 3.24327E-25
5.52264E-01 3.15909E-25
5.56602E-01 3.07730E-25
5.60935E-01 2.99780E-25
5.65263E-01 2.92052E-25
5.69587E-01 2.84540E-25
5.73905E-01 2.77237E-25
5.78217E-01 2.70135E-25
5.82524E-01 2.63228E-25
5.86824E-01 2.56511E-25
5.91118E-01 2.49977E-25
5.95404E-01 2.43620E-25
5.99684E-01 2.37435E-25
6.03956E-01 2.31417E-25
6.08220E-01 2.25561E-25
6.12476E-01 2.19861E-25
6.16723E-01 2.14312E-25
6.20961E-01 2.08911E-25
6.25190E-01 2.03652E-25
6.29410E-01 1.98532E-25
6.33619E-01 1.93546E-25
6.37819E-01 1.88690E-25
6.42008E-01 1.83961E-25
6.46186E-01 1.79354E-25
6.50353E-01 1.74866E-25
6.54508E-01 1.70493E-25
6.58652E-01 1.66233E-25
6.62784E-01 1.62081E-25
6.66903E-01 1.58035E-25
6.71010E-01 1.54092E-25
6.75104E-01 1.50248E-25
6.79184E-01 1.46501E-25
6.83251E-01 1.42848E-25
6.87303E-01 1.39286E-25
6.91342E-01 1.35814E-25
6.95366E-01 1.32427E-25
6.99375E-01 1.29125E-25
7.03368E-01 1.25904E-25
7.07347E-01 1.22762E-25
7.11309E-01 1.19697E-25
7.15256E-01 1.16708E-25
7.19186E-01 1.13791E-25
7.23099E-01 1.10945E-25
7.26995E-01 1.08168E-25
7.30874E-01 1.05458E-25
7.34736E-01 1.02814E-25
7.38579E-01 1.00233E-25
7.42405E-01 9.77143E-26
7.46212E-01 9.52556E-26
7.50000E-01 9.28556E-26
7.53769E-01 9.05126E-26
7.57519E-01 8.82252E-26
7.61249E-01 8.59920E-26
7.64960E-01 8.38114E-26
7.68650E-01 8.16823E-26
7.72320E-01 7.96032E-26
7.75968E-01 7.75728E-26
7.79596E-01 7.55899E-26
7.83203E-01 7.36534E-26
7.86788E-01 7.17619E-26
7.90351E-01 6.99144E-26
7.93893E-01 6.81098E-26
7.97411E-01 6.63471E-26
8.00908E-01 6.46250E-26
8.04381E-01 6.29427E-26
8.07831E-01 6.12992E-26
8.11257E-01 5.96935E-26
8.14660E-01 5.81247E-26
8.18039E-01 5.65919E-26
8.21394E-01 5.50943E-26
8.24724E-01 5.36309E-26
8.28030E-01 5.22009E-26
8.31310E-01 5.08036E-26
8.34565E-01 4.94382E-26
8.37795E-01 4.81039E-26
8.40999E-01 4.68000E-26
8.44177E-01 4.55257E-26
8.47329E-01 4.42805E-26
8.50455E-01 4.30636E-26
8.53553E-01 4.18743E-26
8.56625E-01 4.07120E-26
8.59670E-01 3.95762E-26
8.62687E-01 3.84662E-26
8.65677E-01 3.73814E-26
8.68639E-01 3.63212E-26
8.71572E-01 3.52852E-26
8.74478E-01 3.42727E-26
8.77355E-01 3.32833E-26
8.80203E-01 3.23164E-26
8.83022E-01 3.13716E-26
8.85812E-01 3.04484E-26
8.88573E-01 2.95463E-26
8.91304E-01 2.86648E-26
8.94005E-01 2.78035E-26
8.96677E-01 2.69621E-26
8.99318E-01 2.61400E-26
9.01928E-01 2.53369E-26
9.04508E-01 2.45523E-26
9.07058E-01 2.37860E-26
9.09576E-01 2.30375E-26
9.12063E-01 2.23064E-26
9.14519E-01 2.15925E-26
9.16943E-01 2.08953E-26
9.19335E-01 2.02146E-26
9.21696E-01 1.95499E-26
9.24024E-01 1.89011E-26
9.26320E-01 1.82678E-26
9.28584E-01 1.76496E-26
9.30815E-01 1.70464E-26
9.33013E-01 1.64578E-26
9.35178E-01 1.58836E-26
9.37310E-01 1.53234E-26
9.39409E-01 1.47771E-26
9.41474E-01 1.42444E-26
9.43505E-01 1.37250E-26
9.45503E-01 1.32188E-26
9.47467E-01 1.27254E-26
9.49397E-01 1.22446E-26
9.51293E-01 1.17763E-26
9.53154E-01 1.13203E-26
9.54981E-01 1.08762E-26
9.56773E-01 1.04440E-26
9.58530E-01 1.00234E-26
9.60252E-01 9.61428E-27
9.61940E-01 9.21642E-27
9.63592E-01 8.82966E-27
9.65209E-01 8.45383E-27
9.66790E-01 8.08876E-27
9.68336E-01 7.73429E-27
9.69846E-01 7.39028E-27
9.71321E-01 7.05656E-27
9.72759E-01 6.73301E-27
9.74162E-01 6.41947E-27
9.75528E-01 6.11582E-27
9.76858E-01 5.82192E-27
9.78152E-01 5.53765E-27
9.79410E-01 5.26288E-27
9.80631E-01 4.99751E-27
9.81815E-01 4.74141E-27
9.82963E-01 4.49449E-27
9.84074E-01 4.25662E-27
9.85148E-01 4.02773E-27
9.86185E-01 3.80770E-27
9.87185E-01 3.59645E-27
9.88148E-01 3.39389E-27
9.89074E-01 3.19993E-27
9.89962E-01 3.01449E-27
9.90814E-01 2.83749E-27
9.91627E-01 2.66887E-27
9.92404E-01 2.50855E-27
9.93143E-01 2.35646E-27
9.93844E-01 2.21255E-27
9.94508E-01 2.07675E-27
9.95134E-01 1.94900E-27
9.95722E-01 1.82925E-27
9.96273E-01 1.71746E-27
9.96786E-01 1.61358E-27
9.97261E-01 1.51757E-27
9.97698E-01 1.42937E-27
9.98097E-01 1.34897E-27
9.98459E-01 1.27633E-27
9.98782E-01 1.21141E-27
9.99067E-01 1.15419E-27
9.99315E-01 1.10464E-27
9.99524E-01 1.06276E-27
9.99695E-01 1.02851E-27
9.99829E-01 1.00189E-27
9.99924E-01 9.82879E-28
9.99981E-01 9.71477E-28
1.00000E+00 9.67677E-28
