 #
 # Subroutine ELSEPA. Elastic scattering of electrons and positrons
 #                    by neutral atoms and positive ions
 #
 # Projectile: positron
 # Kinetic energy = 1.50000E+08 eV = 5.51240E+06 a.u.
 #
 # WARNING: High-energy factorization with free-atom DF screening.
 #          Absorption, polarization and exchange corrections are
 #          switched off.
 #          Phase shifts are calculated for the bare nucleus.
 #          Scattering amplitudes are not evaluated.
 #
 # Element: Pb,  Z =  82,  atomic weight = 2.07200E+02 g/mol
 #
 # Nuclear model: Fermi distribution
 #                Average radius = 6.33160E-13 cm
 #                Skin thickness = 5.46000E-14 cm
 #
 # Number of electrons = 82
 #
 # Total elastic cross section = 8.60449E-18 cm**2 = 3.07272E-01 a0**2
 # 1st transport cross section = 5.44872E-25 cm**2 = 1.94577E-08 a0**2
 # 2nd transport cross section = 1.62740E-24 cm**2 = 5.81153E-08 a0**2
 #
 #
 # Differential cross section:                       MU=(1-COS(THETA))/2
 #
 #  THETA        MU          DCS          DCS        Sherman      error
 #  (deg)                 (cm**2/sr)   (a0**2/sr)    function
 #----------------------------------------------------------------------
0.00000E+00 1.40122E-09
7.61557E-13 1.39327E-09
1.18994E-12 1.38885E-09
1.71346E-12 1.38347E-09
2.33225E-12 1.37717E-09
3.04617E-12 1.36997E-09
3.85530E-12 1.36189E-09
4.75964E-12 1.35296E-09
5.75917E-12 1.34321E-09
6.85391E-12 1.33268E-09
8.04379E-12 1.32141E-09
9.32893E-12 1.30942E-09
1.07092E-11 1.29673E-09
1.21847E-11 1.28340E-09
1.37554E-11 1.26953E-09
1.54213E-11 1.25519E-09
1.71823E-11 1.24022E-09
1.90386E-11 1.22480E-09
2.09900E-11 1.20905E-09
2.30367E-11 1.19296E-09
2.51785E-11 1.17636E-09
2.74156E-11 1.15955E-09
2.97478E-11 1.14260E-09
3.21752E-11 1.12535E-09
3.46979E-11 1.10784E-09
3.73157E-11 1.09030E-09
4.00286E-11 1.07276E-09
4.28368E-11 1.05492E-09
4.57402E-11 1.03710E-09
4.87388E-11 1.01938E-09
5.18325E-11 1.00171E-09
5.50215E-11 9.83863E-10
5.83057E-11 9.66206E-10
6.16850E-11 9.48759E-10
6.51595E-11 9.31311E-10
6.87293E-11 9.13923E-10
7.23943E-11 8.96805E-10
7.61544E-11 8.79971E-10
1.18991E-10 7.22008E-10
1.71347E-10 5.89702E-10
2.33223E-10 4.82862E-10
3.04617E-10 3.97790E-10
3.85531E-10 3.30104E-10
4.75965E-10 2.76105E-10
5.75917E-10 2.32677E-10
6.85389E-10 1.97403E-10
8.04380E-10 1.68476E-10
9.32891E-10 1.44596E-10
1.07092E-09 1.24032E-10
1.21847E-09 1.06702E-10
1.37554E-09 9.29577E-11
1.54213E-09 8.19186E-11
1.71823E-09 7.15860E-11
1.90386E-09 6.28232E-11
2.09900E-09 5.56364E-11
2.30367E-09 4.95810E-11
2.51785E-09 4.38819E-11
2.74156E-09 3.91207E-11
2.97478E-09 3.51119E-11
3.21752E-09 3.15406E-11
3.46978E-09 2.83323E-11
3.73156E-09 2.55906E-11
4.00286E-09 2.32337E-11
4.28368E-09 2.10565E-11
4.57402E-09 1.91451E-11
4.87388E-09 1.74821E-11
5.18326E-09 1.60101E-11
5.50215E-09 1.46469E-11
5.83057E-09 1.34483E-11
6.16850E-09 1.23902E-11
6.51596E-09 1.14221E-11
6.87293E-09 1.05386E-11
7.23942E-09 9.75192E-12
7.61544E-09 9.04927E-12
1.18991E-08 4.52456E-12
1.71347E-08 2.48806E-12
2.33223E-08 1.46824E-12
3.04617E-08 9.18861E-13
3.85531E-08 6.05648E-13
4.75965E-08 4.16634E-13
5.75917E-08 2.96355E-13
6.85389E-08 2.16785E-13
8.04380E-08 1.62355E-13
9.32891E-08 1.24007E-13
1.07092E-07 9.62744E-14
1.21847E-07 7.59929E-14
1.37554E-07 6.07176E-14
1.54213E-07 4.91296E-14
1.71823E-07 4.01962E-14
1.90386E-07 3.31803E-14
2.09900E-07 2.76391E-14
2.30367E-07 2.32139E-14
2.51785E-07 1.96312E-14
2.74156E-07 1.67140E-14
2.97478E-07 1.43212E-14
3.21752E-07 1.23388E-14
3.46978E-07 1.06865E-14
3.73156E-07 9.30286E-15
4.00286E-07 8.13546E-15
4.28368E-07 7.14453E-15
4.57402E-07 6.30066E-15
4.87388E-07 5.57793E-15
5.18325E-07 4.95526E-15
5.50215E-07 4.41754E-15
5.83057E-07 3.95113E-15
6.16850E-07 3.54427E-15
6.51596E-07 3.18873E-15
6.87293E-07 2.87688E-15
7.23942E-07 2.60209E-15
7.61543E-07 2.35944E-15
1.18991E-06 9.92970E-16
1.71347E-06 4.87524E-16
2.33223E-06 2.66344E-16
3.04617E-06 1.57449E-16
3.85531E-06 9.89119E-17
4.75964E-06 6.52138E-17
5.75916E-06 4.47189E-17
6.85388E-06 3.16794E-17
8.04378E-06 2.30650E-17
9.32888E-06 1.71898E-17
1.07092E-05 1.30717E-17
1.21846E-05 1.01162E-17
1.37553E-05 7.95055E-18
1.54212E-05 6.33455E-18
1.71822E-05 5.10893E-18
1.90385E-05 4.16316E-18
2.09899E-05 3.43089E-18
2.30365E-05 2.85214E-18
2.51783E-05 2.38961E-18
2.74153E-05 2.01651E-18
2.97475E-05 1.71314E-18
3.21749E-05 1.46468E-18
3.46974E-05 1.25978E-18
3.73152E-05 1.08962E-18
4.00281E-05 9.47356E-19
4.28362E-05 8.27602E-19
4.57395E-05 7.26166E-19
4.87380E-05 6.39756E-19
5.18317E-05 5.65772E-19
5.50205E-05 5.02142E-19
5.83045E-05 4.47192E-19
6.16838E-05 3.99555E-19
6.51582E-05 3.58102E-19
6.87277E-05 3.21896E-19
7.23925E-05 2.90156E-19
7.61524E-05 2.62390E-19
9.21439E-05 1.79263E-19
1.09658E-04 1.26580E-19
1.28695E-04 9.19030E-20
1.49255E-04 6.83207E-20
1.71338E-04 5.18383E-20
1.94942E-04 4.00376E-20
2.20070E-04 3.14104E-20
2.46720E-04 2.49857E-20
2.74892E-04 2.01221E-20
3.04586E-04 1.63858E-20
3.35803E-04 1.34775E-20
3.68542E-04 1.11863E-20
4.02802E-04 9.36169E-21
4.38585E-04 7.89419E-21
4.75889E-04 6.70306E-21
5.14715E-04 5.72824E-21
5.55063E-04 4.92419E-21
5.96931E-04 4.25628E-21
6.40321E-04 3.69776E-21
6.85233E-04 3.22782E-21
7.31665E-04 2.83014E-21
7.79618E-04 2.49177E-21
8.29092E-04 2.20243E-21
8.80086E-04 1.95383E-21
9.32601E-04 1.73928E-21
9.86636E-04 1.55334E-21
1.04219E-03 1.39155E-21
1.09927E-03 1.25026E-21
1.15786E-03 1.12643E-21
1.21797E-03 1.01753E-21
1.27961E-03 9.21379E-22
1.34276E-03 8.36290E-22
1.40743E-03 7.60769E-22
1.47362E-03 6.93553E-22
1.54133E-03 6.33573E-22
1.61056E-03 5.79912E-22
1.68131E-03 5.31789E-22
1.75357E-03 4.88534E-22
1.82735E-03 4.49567E-22
1.90265E-03 4.14389E-22
1.97947E-03 3.82566E-22
2.05780E-03 3.53723E-22
2.13765E-03 3.27531E-22
2.21902E-03 3.03704E-22
2.30190E-03 2.81990E-22
2.38630E-03 2.62168E-22
2.47222E-03 2.44044E-22
2.55965E-03 2.27448E-22
2.64859E-03 2.12227E-22
2.73905E-03 1.98247E-22
2.83103E-03 1.85390E-22
2.92452E-03 1.73548E-22
3.01952E-03 1.62627E-22
3.11604E-03 1.52543E-22
3.21407E-03 1.43221E-22
3.31362E-03 1.34591E-22
3.41468E-03 1.26595E-22
3.51725E-03 1.19176E-22
3.62133E-03 1.12287E-22
3.72692E-03 1.05881E-22
3.83403E-03 9.99198E-23
3.94265E-03 9.43663E-23
4.05278E-03 8.91878E-23
4.16442E-03 8.43544E-23
4.27757E-03 7.98389E-23
4.39223E-03 7.56168E-23
4.50840E-03 7.16655E-23
4.62608E-03 6.79646E-23
4.74527E-03 6.44954E-23
4.86597E-03 6.12407E-23
4.98817E-03 5.81849E-23
5.11188E-03 5.53138E-23
5.23711E-03 5.26141E-23
5.36383E-03 5.00737E-23
5.49207E-03 4.76817E-23
5.62181E-03 4.54277E-23
5.75306E-03 4.33025E-23
5.88581E-03 4.12973E-23
6.02007E-03 3.94041E-23
6.15583E-03 3.76157E-23
6.29310E-03 3.59251E-23
6.43187E-03 3.43260E-23
6.57214E-03 3.28127E-23
6.71392E-03 3.13797E-23
6.85720E-03 3.00220E-23
7.00198E-03 2.87349E-23
7.14827E-03 2.75141E-23
7.29605E-03 2.63557E-23
7.44534E-03 2.52557E-23
7.59612E-03 2.42109E-23
7.97965E-03 2.18190E-23
8.37255E-03 1.97067E-23
8.77480E-03 1.78361E-23
9.18641E-03 1.61750E-23
9.60736E-03 1.46964E-23
1.00376E-02 1.33769E-23
1.04773E-02 1.21967E-23
1.09262E-02 1.11388E-23
1.13844E-02 1.01885E-23
1.18520E-02 9.33321E-24
1.23288E-02 8.56186E-24
1.28150E-02 7.86496E-24
1.33104E-02 7.23421E-24
1.38150E-02 6.66236E-24
1.43290E-02 6.14306E-24
1.48521E-02 5.67075E-24
1.53845E-02 5.24053E-24
1.59262E-02 4.84808E-24
1.64770E-02 4.48959E-24
1.70371E-02 4.16168E-24
1.76063E-02 3.86134E-24
1.81848E-02 3.58593E-24
1.87724E-02 3.33307E-24
1.93692E-02 3.10064E-24
1.99751E-02 2.88676E-24
2.05901E-02 2.68972E-24
2.12143E-02 2.50803E-24
2.18476E-02 2.34030E-24
2.24900E-02 2.18532E-24
2.31415E-02 2.04199E-24
2.38021E-02 1.90931E-24
2.44717E-02 1.78637E-24
2.51504E-02 1.67237E-24
2.58382E-02 1.56657E-24
2.65349E-02 1.46830E-24
2.72407E-02 1.37695E-24
2.79555E-02 1.29197E-24
2.86793E-02 1.21287E-24
2.94120E-02 1.13917E-24
3.01537E-02 1.07047E-24
3.09043E-02 1.00639E-24
3.16639E-02 9.46572E-25
3.24324E-02 8.90701E-25
3.32098E-02 8.38484E-25
3.39961E-02 7.89653E-25
3.47912E-02 7.43964E-25
3.55952E-02 7.01190E-25
3.64081E-02 6.61124E-25
3.72297E-02 6.23574E-25
3.80602E-02 5.88364E-25
3.88995E-02 5.55333E-25
3.97476E-02 5.24330E-25
4.06044E-02 4.95217E-25
4.14700E-02 4.67868E-25
4.23443E-02 4.42162E-25
4.32273E-02 4.17992E-25
4.41190E-02 3.95256E-25
4.50194E-02 3.73860E-25
4.59284E-02 3.53718E-25
4.68461E-02 3.34748E-25
4.87074E-02 3.00031E-25
5.06030E-02 2.69171E-25
5.25328E-02 2.41703E-25
5.44967E-02 2.17222E-25
5.64946E-02 1.95376E-25
5.85262E-02 1.75859E-25
6.05914E-02 1.58404E-25
6.26901E-02 1.42776E-25
6.48222E-02 1.28771E-25
6.69873E-02 1.16208E-25
6.91854E-02 1.04930E-25
7.14163E-02 9.47952E-26
7.36799E-02 8.56815E-26
7.59760E-02 7.74798E-26
7.83043E-02 7.00935E-26
8.06647E-02 6.34372E-26
8.30571E-02 5.74350E-26
8.54812E-02 5.20192E-26
8.79369E-02 4.71300E-26
9.04240E-02 4.27137E-26
9.29422E-02 3.87226E-26
9.54915E-02 3.51140E-26
9.80716E-02 3.18500E-26
1.00682E-01 2.88963E-26
1.03323E-01 2.62224E-26
1.05995E-01 2.38010E-26
1.08696E-01 2.16074E-26
1.11427E-01 1.96195E-26
1.14188E-01 1.78176E-26
1.16978E-01 1.61838E-26
1.19797E-01 1.47021E-26
1.22645E-01 1.33578E-26
1.25522E-01 1.21382E-26
1.28428E-01 1.10313E-26
1.31361E-01 1.00265E-26
1.34323E-01 9.11429E-27
1.37313E-01 8.28600E-27
1.40330E-01 7.53380E-27
1.43375E-01 6.85060E-27
1.46447E-01 6.23000E-27
1.49545E-01 5.66620E-27
1.52671E-01 5.15396E-27
1.55823E-01 4.68851E-27
1.59001E-01 4.26556E-27
1.62205E-01 3.88120E-27
1.65435E-01 3.53188E-27
1.68690E-01 3.21439E-27
1.71970E-01 2.92581E-27
1.75276E-01 2.66351E-27
1.78606E-01 2.42507E-27
1.81961E-01 2.20833E-27
1.85340E-01 2.01129E-27
1.88743E-01 1.83217E-27
1.92169E-01 1.66932E-27
1.95619E-01 1.52127E-27
1.99092E-01 1.38667E-27
2.02589E-01 1.26428E-27
2.06107E-01 1.15300E-27
2.09649E-01 1.05182E-27
2.13212E-01 9.59805E-28
2.16797E-01 8.76131E-28
2.20404E-01 8.00035E-28
2.24032E-01 7.30826E-28
2.27680E-01 6.67874E-28
2.31350E-01 6.10609E-28
2.35040E-01 5.58511E-28
2.38751E-01 5.11109E-28
2.42481E-01 4.67973E-28
2.46231E-01 4.28714E-28
2.50000E-01 3.92976E-28
2.53788E-01 3.60438E-28
2.57595E-01 3.30806E-28
2.61421E-01 3.03815E-28
2.65264E-01 2.79223E-28
2.69126E-01 2.56811E-28
2.73005E-01 2.36377E-28
2.76901E-01 2.17743E-28
2.80814E-01 2.00741E-28
2.84744E-01 1.85224E-28
2.88691E-01 1.71055E-28
2.92653E-01 1.58111E-28
2.96632E-01 1.46279E-28
3.00625E-01 1.35459E-28
3.04634E-01 1.25558E-28
3.08658E-01 1.16492E-28
3.12697E-01 1.08186E-28
3.16749E-01 1.00570E-28
3.20816E-01 9.35811E-29
3.24896E-01 8.71636E-29
3.28990E-01 8.12656E-29
3.33097E-01 7.58404E-29
3.37216E-01 7.08456E-29
3.41348E-01 6.62429E-29
3.45492E-01 6.19974E-29
3.49647E-01 5.80776E-29
3.53814E-01 5.44546E-29
3.57992E-01 5.11027E-29
3.62181E-01 4.79982E-29
3.66381E-01 4.51198E-29
3.70590E-01 4.24480E-29
3.74810E-01 3.99653E-29
3.79039E-01 3.76558E-29
3.83277E-01 3.55049E-29
3.87524E-01 3.34996E-29
3.91780E-01 3.16279E-29
3.96044E-01 2.98790E-29
4.00316E-01 2.82431E-29
4.04596E-01 2.67112E-29
4.08882E-01 2.52752E-29
4.13176E-01 2.39277E-29
4.17476E-01 2.26620E-29
4.21783E-01 2.14720E-29
4.26095E-01 2.03520E-29
4.30413E-01 1.92971E-29
4.34737E-01 1.83026E-29
4.39065E-01 1.73642E-29
4.43398E-01 1.64780E-29
4.47736E-01 1.56406E-29
4.52077E-01 1.48487E-29
4.56422E-01 1.40993E-29
4.60770E-01 1.33897E-29
4.65122E-01 1.27173E-29
4.69476E-01 1.20800E-29
4.73832E-01 1.14754E-29
4.78190E-01 1.09018E-29
4.82550E-01 1.03572E-29
4.86912E-01 9.84007E-30
4.91274E-01 9.34875E-30
4.95637E-01 8.88184E-30
5.00000E-01 8.43801E-30
5.04363E-01 8.01600E-30
5.08726E-01 7.61465E-30
5.13088E-01 7.23289E-30
5.17450E-01 6.86969E-30
5.21810E-01 6.52412E-30
5.26168E-01 6.19528E-30
5.30524E-01 5.88234E-30
5.34878E-01 5.58451E-30
5.39230E-01 5.30105E-30
5.43578E-01 5.03127E-30
5.47923E-01 4.77451E-30
5.52264E-01 4.53014E-30
5.56602E-01 4.29758E-30
5.60935E-01 4.07628E-30
5.65263E-01 3.86569E-30
5.69587E-01 3.66533E-30
5.73905E-01 3.47471E-30
5.78217E-01 3.29339E-30
5.82524E-01 3.12092E-30
5.86824E-01 2.95691E-30
5.91118E-01 2.80095E-30
5.95404E-01 2.65268E-30
5.99684E-01 2.51175E-30
6.03956E-01 2.37780E-30
6.08220E-01 2.25053E-30
6.12476E-01 2.12961E-30
6.16723E-01 2.01476E-30
6.20961E-01 1.90569E-30
6.25190E-01 1.80214E-30
6.29410E-01 1.70383E-30
6.33619E-01 1.61054E-30
6.37819E-01 1.52202E-30
6.42008E-01 1.43804E-30
6.46186E-01 1.35840E-30
6.50353E-01 1.28289E-30
6.54508E-01 1.21130E-30
6.58652E-01 1.14346E-30
6.62784E-01 1.07917E-30
6.66903E-01 1.01828E-30
6.71010E-01 9.60606E-31
6.75104E-01 9.06002E-31
6.79184E-01 8.54315E-31
6.83251E-01 8.05402E-31
6.87303E-01 7.59124E-31
6.91342E-01 7.15353E-31
6.95366E-01 6.73961E-31
6.99375E-01 6.34830E-31
7.03368E-01 5.97846E-31
7.07347E-01 5.62901E-31
7.11309E-01 5.29889E-31
7.15256E-01 4.98713E-31
7.19186E-01 4.69278E-31
7.23099E-01 4.41494E-31
7.26995E-01 4.15274E-31
7.30874E-01 3.90539E-31
7.34736E-01 3.67209E-31
7.38579E-01 3.45210E-31
7.42405E-01 3.24473E-31
7.46212E-01 3.04928E-31
7.50000E-01 2.86514E-31
7.53769E-01 2.69169E-31
7.57519E-01 2.52834E-31
7.61249E-01 2.37456E-31
7.64960E-01 2.22981E-31
7.68650E-01 2.09361E-31
7.72320E-01 1.96548E-31
7.75968E-01 1.84497E-31
7.79596E-01 1.73165E-31
7.83203E-01 1.62513E-31
7.86788E-01 1.52502E-31
7.90351E-01 1.43096E-31
7.93893E-01 1.34260E-31
7.97411E-01 1.25962E-31
8.00908E-01 1.18170E-31
8.04381E-01 1.10856E-31
8.07831E-01 1.03992E-31
8.11257E-01 9.75515E-32
8.14660E-01 9.15096E-32
8.18039E-01 8.58429E-32
8.21394E-01 8.05292E-32
8.24724E-01 7.55475E-32
8.28030E-01 7.08778E-32
8.31310E-01 6.65015E-32
8.34565E-01 6.24008E-32
8.37795E-01 5.85590E-32
8.40999E-01 5.49603E-32
8.44177E-01 5.15898E-32
8.47329E-01 4.84335E-32
8.50455E-01 4.54780E-32
8.53553E-01 4.27109E-32
8.56625E-01 4.01205E-32
8.59670E-01 3.76956E-32
8.62687E-01 3.54258E-32
8.65677E-01 3.33012E-32
8.68639E-01 3.13127E-32
8.71572E-01 2.94515E-32
8.74478E-01 2.77094E-32
8.77355E-01 2.60788E-32
8.80203E-01 2.45524E-32
8.83022E-01 2.31235E-32
8.85812E-01 2.17857E-32
8.88573E-01 2.05330E-32
8.91304E-01 1.93597E-32
8.94005E-01 1.82608E-32
8.96677E-01 1.72311E-32
8.99318E-01 1.62661E-32
9.01928E-01 1.53615E-32
9.04508E-01 1.45132E-32
9.07058E-01 1.37175E-32
9.09576E-01 1.29707E-32
9.12063E-01 1.22696E-32
9.14519E-01 1.16111E-32
9.16943E-01 1.09922E-32
9.19335E-01 1.04104E-32
9.21696E-01 9.86294E-33
9.24024E-01 9.34763E-33
9.26320E-01 8.86223E-33
9.28584E-01 8.40469E-33
9.30815E-01 7.97313E-33
9.33013E-01 7.56574E-33
9.35178E-01 7.18091E-33
9.37310E-01 6.81708E-33
9.39409E-01 6.47284E-33
9.41474E-01 6.14687E-33
9.43505E-01 5.83792E-33
9.45503E-01 5.54487E-33
9.47467E-01 5.26666E-33
9.49397E-01 5.00230E-33
9.51293E-01 4.75090E-33
9.53154E-01 4.51161E-33
9.54981E-01 4.28366E-33
9.56773E-01 4.06633E-33
9.58530E-01 3.85895E-33
9.60252E-01 3.66093E-33
9.61940E-01 3.47170E-33
9.63592E-01 3.29072E-33
9.65209E-01 3.11755E-33
9.66790E-01 2.95173E-33
9.68336E-01 2.79285E-33
9.69846E-01 2.64056E-33
9.71321E-01 2.49450E-33
9.72759E-01 2.35438E-33
9.74162E-01 2.21990E-33
9.75528E-01 2.09082E-33
9.76858E-01 1.96688E-33
9.78152E-01 1.84787E-33
9.79410E-01 1.73360E-33
9.80631E-01 1.62389E-33
9.81815E-01 1.51858E-33
9.82963E-01 1.41752E-33
9.84074E-01 1.32057E-33
9.85148E-01 1.22761E-33
9.86185E-01 1.13854E-33
9.87185E-01 1.05326E-33
9.88148E-01 9.71665E-34
9.89074E-01 8.93694E-34
9.89962E-01 8.19278E-34
9.90814E-01 7.48342E-34
9.91627E-01 6.80827E-34
9.92404E-01 6.16695E-34
9.93143E-01 5.55888E-34
9.93844E-01 4.98381E-34
9.94508E-01 4.44124E-34
9.95134E-01 3.93093E-34
9.95722E-01 3.45257E-34
9.96273E-01 3.00597E-34
9.96786E-01 2.59085E-34
9.97261E-01 2.20716E-34
9.97698E-01 1.85456E-34
9.98097E-01 1.53302E-34
9.98459E-01 1.24243E-34
9.98782E-01 9.82640E-35
9.99067E-01 7.53627E-35
9.99315E-01 5.55256E-35
9.99524E-01 3.87524E-35
9.99695E-01 2.50319E-35
9.99829E-01 1.43651E-35
9.99924E-01 6.74730E-36
9.99981E-01 2.18005E-36
1.00000E+00 6.55906E-37
