 #
 # Subroutine ELSEPA. Elastic scattering of electrons and positrons
 #                    by neutral atoms and positive ions
 #
 # Projectile: positron
 # Kinetic energy = 6.00000E+06 eV = 2.20496E+05 a.u.
 #
 # WARNING: High-energy factorization with free-atom DF screening.
 #          Absorption, polarization and exchange corrections are
 #          switched off.
 #          Phase shifts are calculated for the bare nucleus.
 #          Scattering amplitudes are not evaluated.
 #
 # Element: Bi,  Z =  83,  atomic weight = 2.08980E+02 g/mol
 #
 # Nuclear model: Fermi distribution
 #                Average radius = 6.34969E-13 cm
 #                Skin thickness = 5.46000E-14 cm
 #
 # Number of electrons = 83
 #
 # Total elastic cross section = 8.93555E-18 cm**2 = 3.19094E-01 a0**2
 # 1st transport cross section = 2.00340E-22 cm**2 = 7.15427E-06 a0**2
 # 2nd transport cross section = 5.76778E-22 cm**2 = 2.05971E-05 a0**2
 #
 #
 # Differential cross section:                       MU=(1-COS(THETA))/2
 #
 #  THETA        MU          DCS          DCS        Sherman      error
 #  (deg)                 (cm**2/sr)   (a0**2/sr)    function
 #----------------------------------------------------------------------
0.00000E+00 2.72172E-12
7.61557E-13 2.72169E-12
1.18994E-12 2.72167E-12
1.71346E-12 2.72165E-12
2.33225E-12 2.72163E-12
3.04617E-12 2.72160E-12
3.85530E-12 2.72157E-12
4.75964E-12 2.72154E-12
5.75917E-12 2.72151E-12
6.85391E-12 2.72147E-12
8.04379E-12 2.72143E-12
9.32893E-12 2.72138E-12
1.07092E-11 2.72133E-12
1.21847E-11 2.72128E-12
1.37554E-11 2.72123E-12
1.54213E-11 2.72117E-12
1.71823E-11 2.72111E-12
1.90386E-11 2.72104E-12
2.09900E-11 2.72097E-12
2.30367E-11 2.72090E-12
2.51785E-11 2.72083E-12
2.74156E-11 2.72075E-12
2.97478E-11 2.72067E-12
3.21752E-11 2.72058E-12
3.46979E-11 2.72050E-12
3.73157E-11 2.72040E-12
4.00286E-11 2.72031E-12
4.28368E-11 2.72021E-12
4.57402E-11 2.72011E-12
4.87388E-11 2.72001E-12
5.18325E-11 2.71990E-12
5.50215E-11 2.71979E-12
5.83057E-11 2.71968E-12
6.16850E-11 2.71956E-12
6.51595E-11 2.71944E-12
6.87293E-11 2.71932E-12
7.23943E-11 2.71919E-12
7.61544E-11 2.71906E-12
1.18991E-10 2.71758E-12
1.71347E-10 2.71577E-12
2.33223E-10 2.71365E-12
3.04617E-10 2.71120E-12
3.85531E-10 2.70843E-12
4.75965E-10 2.70534E-12
5.75917E-10 2.70193E-12
6.85389E-10 2.69821E-12
8.04380E-10 2.69417E-12
9.32891E-10 2.68983E-12
1.07092E-09 2.68517E-12
1.21847E-09 2.68021E-12
1.37554E-09 2.67495E-12
1.54213E-09 2.66939E-12
1.71823E-09 2.66354E-12
1.90386E-09 2.65739E-12
2.09900E-09 2.65095E-12
2.30367E-09 2.64423E-12
2.51785E-09 2.63723E-12
2.74156E-09 2.62995E-12
2.97478E-09 2.62239E-12
3.21752E-09 2.61457E-12
3.46978E-09 2.60649E-12
3.73156E-09 2.59814E-12
4.00286E-09 2.58954E-12
4.28368E-09 2.58069E-12
4.57402E-09 2.57159E-12
4.87388E-09 2.56225E-12
5.18326E-09 2.55268E-12
5.50215E-09 2.54285E-12
5.83057E-09 2.53271E-12
6.16850E-09 2.52239E-12
6.51596E-09 2.51187E-12
6.87293E-09 2.50117E-12
7.23942E-09 2.49030E-12
7.61544E-09 2.47927E-12
1.18991E-08 2.35890E-12
1.71347E-08 2.22469E-12
2.33223E-08 2.08205E-12
3.04617E-08 1.93626E-12
3.85531E-08 1.79146E-12
4.75965E-08 1.65089E-12
5.75917E-08 1.51682E-12
6.85389E-08 1.39024E-12
8.04380E-08 1.27266E-12
9.32891E-08 1.16442E-12
1.07092E-07 1.06542E-12
1.21847E-07 9.75317E-13
1.37554E-07 8.93394E-13
1.54213E-07 8.19166E-13
1.71823E-07 7.52115E-13
1.90386E-07 6.91576E-13
2.09900E-07 6.36906E-13
2.30367E-07 5.87480E-13
2.51785E-07 5.42635E-13
2.74156E-07 5.02032E-13
2.97478E-07 4.65210E-13
3.21752E-07 4.31760E-13
3.46978E-07 4.01319E-13
3.73156E-07 3.73501E-13
4.00286E-07 3.48067E-13
4.28368E-07 3.24798E-13
4.57402E-07 3.03469E-13
4.87388E-07 2.83883E-13
5.18325E-07 2.65855E-13
5.50215E-07 2.48944E-13
5.83057E-07 2.32394E-13
6.16850E-07 2.17498E-13
6.51596E-07 2.04057E-13
6.87293E-07 1.91899E-13
7.23942E-07 1.80873E-13
7.61543E-07 1.70852E-13
1.18991E-06 9.90534E-14
1.71347E-06 6.07589E-14
2.33223E-06 3.92499E-14
3.04617E-06 2.65921E-14
3.85531E-06 1.87303E-14
4.75964E-06 1.36073E-14
5.75916E-06 1.01286E-14
6.85388E-06 7.67459E-15
8.04378E-06 5.91276E-15
9.32888E-06 4.62140E-15
1.07092E-05 3.65898E-15
1.21846E-05 2.93158E-15
1.37553E-05 2.37543E-15
1.54212E-05 1.94213E-15
1.71822E-05 1.60431E-15
1.90385E-05 1.33717E-15
2.09899E-05 1.12589E-15
2.30365E-05 9.55102E-16
2.51783E-05 8.15379E-16
2.74153E-05 7.00274E-16
2.97475E-05 6.04830E-16
3.21749E-05 5.25243E-16
3.46974E-05 4.58508E-16
3.73152E-05 4.02173E-16
4.00281E-05 3.54330E-16
4.28362E-05 3.13450E-16
4.57395E-05 2.78309E-16
4.87380E-05 2.47944E-16
5.18317E-05 2.21589E-16
5.50205E-05 1.98590E-16
5.83045E-05 1.78415E-16
6.16838E-05 1.60850E-16
6.51582E-05 1.45497E-16
6.87277E-05 1.31811E-16
7.23925E-05 1.19720E-16
7.61524E-05 1.09043E-16
9.21439E-05 7.65274E-17
1.09658E-04 5.52497E-17
1.28695E-04 4.08828E-17
1.49255E-04 3.08915E-17
1.71338E-04 2.37696E-17
1.94942E-04 1.85824E-17
2.20070E-04 1.47311E-17
2.46720E-04 1.18254E-17
2.74892E-04 9.60170E-18
3.04586E-04 7.87670E-18
3.35803E-04 6.52238E-18
3.68542E-04 5.44696E-18
4.02802E-04 4.58412E-18
4.38585E-04 3.88564E-18
4.75889E-04 3.31530E-18
5.14715E-04 2.84588E-18
5.55063E-04 2.45665E-18
5.96931E-04 2.13161E-18
6.40321E-04 1.85850E-18
6.85233E-04 1.62769E-18
7.31665E-04 1.43157E-18
7.79618E-04 1.26404E-18
8.29092E-04 1.12025E-18
8.80086E-04 9.96246E-19
9.32601E-04 8.88884E-19
9.86636E-04 7.95557E-19
1.04219E-03 7.14120E-19
1.09927E-03 6.42806E-19
1.15786E-03 5.80133E-19
1.21797E-03 5.24885E-19
1.27961E-03 4.76037E-19
1.34276E-03 4.32719E-19
1.40743E-03 3.94201E-19
1.47362E-03 3.59856E-19
1.54133E-03 3.29155E-19
1.61056E-03 3.01647E-19
1.68131E-03 2.76943E-19
1.75357E-03 2.54708E-19
1.82735E-03 2.34652E-19
1.90265E-03 2.16523E-19
1.97947E-03 2.00105E-19
2.05780E-03 1.85209E-19
2.13765E-03 1.71668E-19
2.21902E-03 1.59338E-19
2.30190E-03 1.48091E-19
2.38630E-03 1.37816E-19
2.47222E-03 1.28413E-19
2.55965E-03 1.19796E-19
2.64859E-03 1.11887E-19
2.73905E-03 1.04617E-19
2.83103E-03 9.79266E-20
2.92452E-03 9.17603E-20
3.01952E-03 8.60699E-20
3.11604E-03 8.08124E-20
3.21407E-03 7.59487E-20
3.31362E-03 7.14440E-20
3.41468E-03 6.72670E-20
3.51725E-03 6.33897E-20
3.62133E-03 5.97867E-20
3.72692E-03 5.64351E-20
3.83403E-03 5.33142E-20
3.94265E-03 5.04050E-20
4.05278E-03 4.76908E-20
4.16442E-03 4.51561E-20
4.27757E-03 4.27869E-20
4.39223E-03 4.05704E-20
4.50840E-03 3.84948E-20
4.62608E-03 3.65498E-20
4.74527E-03 3.47254E-20
4.86597E-03 3.30130E-20
4.98817E-03 3.14044E-20
5.11188E-03 2.98921E-20
5.23711E-03 2.84692E-20
5.36383E-03 2.71297E-20
5.49207E-03 2.58674E-20
5.62181E-03 2.46775E-20
5.75306E-03 2.35549E-20
5.88581E-03 2.24950E-20
6.02007E-03 2.14939E-20
6.15583E-03 2.05474E-20
6.29310E-03 1.96523E-20
6.43187E-03 1.88050E-20
6.57214E-03 1.80028E-20
6.71392E-03 1.72424E-20
6.85720E-03 1.65218E-20
7.00198E-03 1.58380E-20
7.14827E-03 1.51892E-20
7.29605E-03 1.45729E-20
7.44534E-03 1.39875E-20
7.59612E-03 1.34309E-20
7.97965E-03 1.21553E-20
8.37255E-03 1.10268E-20
8.77480E-03 1.00254E-20
9.18641E-03 9.13451E-21
9.60736E-03 8.33975E-21
1.00376E-02 7.62902E-21
1.04773E-02 6.99192E-21
1.09262E-02 6.41951E-21
1.13844E-02 5.90409E-21
1.18520E-02 5.43899E-21
1.23288E-02 5.01847E-21
1.28150E-02 4.63751E-21
1.33104E-02 4.29176E-21
1.38150E-02 3.97739E-21
1.43290E-02 3.69105E-21
1.48521E-02 3.42982E-21
1.53845E-02 3.19110E-21
1.59262E-02 2.97262E-21
1.64770E-02 2.77237E-21
1.70371E-02 2.58855E-21
1.76063E-02 2.41959E-21
1.81848E-02 2.26406E-21
1.87724E-02 2.12072E-21
1.93692E-02 1.98844E-21
1.99751E-02 1.86623E-21
2.05901E-02 1.75316E-21
2.12143E-02 1.64845E-21
2.18476E-02 1.55137E-21
2.24900E-02 1.46126E-21
2.31415E-02 1.37753E-21
2.38021E-02 1.29966E-21
2.44717E-02 1.22715E-21
2.51504E-02 1.15958E-21
2.58382E-02 1.09654E-21
2.65349E-02 1.03769E-21
2.72407E-02 9.82689E-22
2.79555E-02 9.31245E-22
2.86793E-02 8.83086E-22
2.94120E-02 8.37966E-22
3.01537E-02 7.95659E-22
3.09043E-02 7.55958E-22
3.16639E-02 7.18674E-22
3.24324E-02 6.83633E-22
3.32098E-02 6.50677E-22
3.39961E-02 6.19659E-22
3.47912E-02 5.90446E-22
3.55952E-02 5.62912E-22
3.64081E-02 5.36946E-22
3.72297E-02 5.12441E-22
3.80602E-02 4.89300E-22
3.88995E-02 4.67435E-22
3.97476E-02 4.46761E-22
4.06044E-02 4.27204E-22
4.14700E-02 4.08691E-22
4.23443E-02 3.91156E-22
4.32273E-02 3.74540E-22
4.41190E-02 3.58784E-22
4.50194E-02 3.43838E-22
4.59284E-02 3.29650E-22
4.68461E-02 3.16177E-22
4.87074E-02 2.91206E-22
5.06030E-02 2.68620E-22
5.25328E-02 2.48151E-22
5.44967E-02 2.29569E-22
5.64946E-02 2.12668E-22
5.85262E-02 1.97273E-22
6.05914E-02 1.83225E-22
6.26901E-02 1.70387E-22
6.48222E-02 1.58637E-22
6.69873E-02 1.47866E-22
6.91854E-02 1.37980E-22
7.14163E-02 1.28893E-22
7.36799E-02 1.20530E-22
7.59760E-02 1.12823E-22
7.83043E-02 1.05712E-22
8.06647E-02 9.91427E-23
8.30571E-02 9.30671E-23
8.54812E-02 8.74416E-23
8.79369E-02 8.22270E-23
9.04240E-02 7.73883E-23
9.29422E-02 7.28938E-23
9.54915E-02 6.87147E-23
9.80716E-02 6.48251E-23
1.00682E-01 6.12015E-23
1.03323E-01 5.78225E-23
1.05995E-01 5.46689E-23
1.08696E-01 5.17230E-23
1.11427E-01 4.89687E-23
1.14188E-01 4.63916E-23
1.16978E-01 4.39781E-23
1.19797E-01 4.17161E-23
1.22645E-01 3.95945E-23
1.25522E-01 3.76030E-23
1.28428E-01 3.57324E-23
1.31361E-01 3.39740E-23
1.34323E-01 3.23199E-23
1.37313E-01 3.07628E-23
1.40330E-01 2.92962E-23
1.43375E-01 2.79137E-23
1.46447E-01 2.66099E-23
1.49545E-01 2.53793E-23
1.52671E-01 2.42173E-23
1.55823E-01 2.31193E-23
1.59001E-01 2.20811E-23
1.62205E-01 2.10990E-23
1.65435E-01 2.01695E-23
1.68690E-01 1.92892E-23
1.71970E-01 1.84550E-23
1.75276E-01 1.76641E-23
1.78606E-01 1.69140E-23
1.81961E-01 1.62021E-23
1.85340E-01 1.55261E-23
1.88743E-01 1.48840E-23
1.92169E-01 1.42737E-23
1.95619E-01 1.36934E-23
1.99092E-01 1.31413E-23
2.02589E-01 1.26159E-23
2.06107E-01 1.21157E-23
2.09649E-01 1.16392E-23
2.13212E-01 1.11850E-23
2.16797E-01 1.07521E-23
2.20404E-01 1.03392E-23
2.24032E-01 9.94523E-24
2.27680E-01 9.56920E-24
2.31350E-01 9.21012E-24
2.35040E-01 8.86708E-24
2.38751E-01 8.53927E-24
2.42481E-01 8.22594E-24
2.46231E-01 7.92631E-24
2.50000E-01 7.63963E-24
2.53788E-01 7.36526E-24
2.57595E-01 7.10263E-24
2.61421E-01 6.85114E-24
2.65264E-01 6.61022E-24
2.69126E-01 6.37933E-24
2.73005E-01 6.15801E-24
2.76901E-01 5.94579E-24
2.80814E-01 5.74224E-24
2.84744E-01 5.54693E-24
2.88691E-01 5.35948E-24
2.92653E-01 5.17952E-24
2.96632E-01 5.00669E-24
3.00625E-01 4.84067E-24
3.04634E-01 4.68114E-24
3.08658E-01 4.52781E-24
3.12697E-01 4.38040E-24
3.16749E-01 4.23863E-24
3.20816E-01 4.10225E-24
3.24896E-01 3.97103E-24
3.28990E-01 3.84474E-24
3.33097E-01 3.72317E-24
3.37216E-01 3.60609E-24
3.41348E-01 3.49333E-24
3.45492E-01 3.38469E-24
3.49647E-01 3.28000E-24
3.53814E-01 3.17910E-24
3.57992E-01 3.08181E-24
3.62181E-01 2.98799E-24
3.66381E-01 2.89751E-24
3.70590E-01 2.81021E-24
3.74810E-01 2.72596E-24
3.79039E-01 2.64465E-24
3.83277E-01 2.56616E-24
3.87524E-01 2.49036E-24
3.91780E-01 2.41715E-24
3.96044E-01 2.34643E-24
4.00316E-01 2.27811E-24
4.04596E-01 2.21207E-24
4.08882E-01 2.14825E-24
4.13176E-01 2.08654E-24
4.17476E-01 2.02687E-24
4.21783E-01 1.96916E-24
4.26095E-01 1.91333E-24
4.30413E-01 1.85932E-24
4.34737E-01 1.80705E-24
4.39065E-01 1.75646E-24
4.43398E-01 1.70749E-24
4.47736E-01 1.66007E-24
4.52077E-01 1.61416E-24
4.56422E-01 1.56968E-24
4.60770E-01 1.52660E-24
4.65122E-01 1.48485E-24
4.69476E-01 1.44440E-24
4.73832E-01 1.40519E-24
4.78190E-01 1.36719E-24
4.82550E-01 1.33034E-24
4.86912E-01 1.29461E-24
4.91274E-01 1.25996E-24
4.95637E-01 1.22634E-24
5.00000E-01 1.19373E-24
5.04363E-01 1.16210E-24
5.08726E-01 1.13139E-24
5.13088E-01 1.10159E-24
5.17450E-01 1.07267E-24
5.21810E-01 1.04458E-24
5.26168E-01 1.01731E-24
5.30524E-01 9.90833E-25
5.34878E-01 9.65113E-25
5.39230E-01 9.40128E-25
5.43578E-01 9.15856E-25
5.47923E-01 8.92273E-25
5.52264E-01 8.69354E-25
5.56602E-01 8.47079E-25
5.60935E-01 8.25428E-25
5.65263E-01 8.04380E-25
5.69587E-01 7.83915E-25
5.73905E-01 7.64015E-25
5.78217E-01 7.44662E-25
5.82524E-01 7.25840E-25
5.86824E-01 7.07530E-25
5.91118E-01 6.89716E-25
5.95404E-01 6.72385E-25
5.99684E-01 6.55520E-25
6.03956E-01 6.39107E-25
6.08220E-01 6.23132E-25
6.12476E-01 6.07582E-25
6.16723E-01 5.92445E-25
6.20961E-01 5.77706E-25
6.25190E-01 5.63355E-25
6.29410E-01 5.49380E-25
6.33619E-01 5.35770E-25
6.37819E-01 5.22512E-25
6.42008E-01 5.09599E-25
6.46186E-01 4.97019E-25
6.50353E-01 4.84757E-25
6.54508E-01 4.72805E-25
6.58652E-01 4.61159E-25
6.62784E-01 4.49808E-25
6.66903E-01 4.38744E-25
6.71010E-01 4.27959E-25
6.75104E-01 4.17446E-25
6.79184E-01 4.07195E-25
6.83251E-01 3.97200E-25
6.87303E-01 3.87454E-25
6.91342E-01 3.77949E-25
6.95366E-01 3.68679E-25
6.99375E-01 3.59638E-25
7.03368E-01 3.50818E-25
7.07347E-01 3.42214E-25
7.11309E-01 3.33820E-25
7.15256E-01 3.25630E-25
7.19186E-01 3.17638E-25
7.23099E-01 3.09840E-25
7.26995E-01 3.02229E-25
7.30874E-01 2.94801E-25
7.34736E-01 2.87552E-25
7.38579E-01 2.80475E-25
7.42405E-01 2.73567E-25
7.46212E-01 2.66823E-25
7.50000E-01 2.60239E-25
7.53769E-01 2.53811E-25
7.57519E-01 2.47534E-25
7.61249E-01 2.41404E-25
7.64960E-01 2.35419E-25
7.68650E-01 2.29573E-25
7.72320E-01 2.23864E-25
7.75968E-01 2.18288E-25
7.79596E-01 2.12842E-25
7.83203E-01 2.07522E-25
7.86788E-01 2.02325E-25
7.90351E-01 1.97248E-25
7.93893E-01 1.92288E-25
7.97411E-01 1.87443E-25
8.00908E-01 1.82708E-25
8.04381E-01 1.78083E-25
8.07831E-01 1.73563E-25
8.11257E-01 1.69146E-25
8.14660E-01 1.64830E-25
8.18039E-01 1.60613E-25
8.21394E-01 1.56492E-25
8.24724E-01 1.52464E-25
8.28030E-01 1.48528E-25
8.31310E-01 1.44681E-25
8.34565E-01 1.40921E-25
8.37795E-01 1.37247E-25
8.40999E-01 1.33655E-25
8.44177E-01 1.30145E-25
8.47329E-01 1.26714E-25
8.50455E-01 1.23361E-25
8.53553E-01 1.20083E-25
8.56625E-01 1.16879E-25
8.59670E-01 1.13748E-25
8.62687E-01 1.10687E-25
8.65677E-01 1.07696E-25
8.68639E-01 1.04772E-25
8.71572E-01 1.01914E-25
8.74478E-01 9.91208E-26
8.77355E-01 9.63907E-26
8.80203E-01 9.37225E-26
8.83022E-01 9.11148E-26
8.85812E-01 8.85662E-26
8.88573E-01 8.60756E-26
8.91304E-01 8.36417E-26
8.94005E-01 8.12633E-26
8.96677E-01 7.89391E-26
8.99318E-01 7.66682E-26
9.01928E-01 7.44494E-26
9.04508E-01 7.22817E-26
9.07058E-01 7.01639E-26
9.09576E-01 6.80951E-26
9.12063E-01 6.60742E-26
9.14519E-01 6.41005E-26
9.16943E-01 6.21728E-26
9.19335E-01 6.02903E-26
9.21696E-01 5.84522E-26
9.24024E-01 5.66575E-26
9.26320E-01 5.49055E-26
9.28584E-01 5.31953E-26
9.30815E-01 5.15261E-26
9.33013E-01 4.98972E-26
9.35178E-01 4.83079E-26
9.37310E-01 4.67574E-26
9.39409E-01 4.52450E-26
9.41474E-01 4.37700E-26
9.43505E-01 4.23319E-26
9.45503E-01 4.09298E-26
9.47467E-01 3.95633E-26
9.49397E-01 3.82316E-26
9.51293E-01 3.69343E-26
9.53154E-01 3.56707E-26
9.54981E-01 3.44403E-26
9.56773E-01 3.32426E-26
9.58530E-01 3.20770E-26
9.60252E-01 3.09430E-26
9.61940E-01 2.98401E-26
9.63592E-01 2.87679E-26
9.65209E-01 2.77259E-26
9.66790E-01 2.67137E-26
9.68336E-01 2.57307E-26
9.69846E-01 2.47767E-26
9.71321E-01 2.38511E-26
9.72759E-01 2.29536E-26
9.74162E-01 2.20839E-26
9.75528E-01 2.12415E-26
9.76858E-01 2.04260E-26
9.78152E-01 1.96373E-26
9.79410E-01 1.88748E-26
9.80631E-01 1.81384E-26
9.81815E-01 1.74277E-26
9.82963E-01 1.67423E-26
9.84074E-01 1.60821E-26
9.85148E-01 1.54467E-26
9.86185E-01 1.48359E-26
9.87185E-01 1.42494E-26
9.88148E-01 1.36870E-26
9.89074E-01 1.31485E-26
9.89962E-01 1.26336E-26
9.90814E-01 1.21421E-26
9.91627E-01 1.16738E-26
9.92404E-01 1.12286E-26
9.93143E-01 1.08062E-26
9.93844E-01 1.04065E-26
9.94508E-01 1.00293E-26
9.95134E-01 9.67445E-27
9.95722E-01 9.34183E-27
9.96273E-01 9.03130E-27
9.96786E-01 8.74272E-27
9.97261E-01 8.47598E-27
9.97698E-01 8.23098E-27
9.98097E-01 8.00761E-27
9.98459E-01 7.80578E-27
9.98782E-01 7.62542E-27
9.99067E-01 7.46644E-27
9.99315E-01 7.32880E-27
9.99524E-01 7.21242E-27
9.99695E-01 7.11726E-27
9.99829E-01 7.04329E-27
9.99924E-01 6.99048E-27
9.99981E-01 6.95880E-27
1.00000E+00 6.94824E-27
