 #
 # Subroutine ELSEPA. Elastic scattering of electrons and positrons
 #                    by neutral atoms and positive ions
 #
 # Projectile: positron
 # Kinetic energy = 8.00000E+06 eV = 2.93995E+05 a.u.
 #
 # WARNING: High-energy factorization with free-atom DF screening.
 #          Absorption, polarization and exchange corrections are
 #          switched off.
 #          Phase shifts are calculated for the bare nucleus.
 #          Scattering amplitudes are not evaluated.
 #
 # Element: Bi,  Z =  83,  atomic weight = 2.08980E+02 g/mol
 #
 # Nuclear model: Fermi distribution
 #                Average radius = 6.34969E-13 cm
 #                Skin thickness = 5.46000E-14 cm
 #
 # Number of electrons = 83
 #
 # Total elastic cross section = 8.91456E-18 cm**2 = 3.18345E-01 a0**2
 # 1st transport cross section = 1.23203E-22 cm**2 = 4.39966E-06 a0**2
 # 2nd transport cross section = 3.55601E-22 cm**2 = 1.26987E-05 a0**2
 #
 #
 # Differential cross section:                       MU=(1-COS(THETA))/2
 #
 #  THETA        MU          DCS          DCS        Sherman      error
 #  (deg)                 (cm**2/sr)   (a0**2/sr)    function
 #----------------------------------------------------------------------
0.00000E+00 4.65060E-12
7.61557E-13 4.65051E-12
1.18994E-12 4.65047E-12
1.71346E-12 4.65041E-12
2.33225E-12 4.65035E-12
3.04617E-12 4.65027E-12
3.85530E-12 4.65019E-12
4.75964E-12 4.65010E-12
5.75917E-12 4.64999E-12
6.85391E-12 4.64988E-12
8.04379E-12 4.64976E-12
9.32893E-12 4.64963E-12
1.07092E-11 4.64949E-12
1.21847E-11 4.64934E-12
1.37554E-11 4.64918E-12
1.54213E-11 4.64901E-12
1.71823E-11 4.64883E-12
1.90386E-11 4.64864E-12
2.09900E-11 4.64844E-12
2.30367E-11 4.64823E-12
2.51785E-11 4.64802E-12
2.74156E-11 4.64779E-12
2.97478E-11 4.64755E-12
3.21752E-11 4.64731E-12
3.46979E-11 4.64705E-12
3.73157E-11 4.64679E-12
4.00286E-11 4.64651E-12
4.28368E-11 4.64623E-12
4.57402E-11 4.64593E-12
4.87388E-11 4.64563E-12
5.18325E-11 4.64532E-12
5.50215E-11 4.64499E-12
5.83057E-11 4.64466E-12
6.16850E-11 4.64432E-12
6.51595E-11 4.64397E-12
6.87293E-11 4.64361E-12
7.23943E-11 4.64324E-12
7.61544E-11 4.64286E-12
1.18991E-10 4.63855E-12
1.71347E-10 4.63329E-12
2.33223E-10 4.62709E-12
3.04617E-10 4.61995E-12
3.85531E-10 4.61190E-12
4.75965E-10 4.60292E-12
5.75917E-10 4.59304E-12
6.85389E-10 4.58226E-12
8.04380E-10 4.57059E-12
9.32891E-10 4.55804E-12
1.07092E-09 4.54464E-12
1.21847E-09 4.53038E-12
1.37554E-09 4.51529E-12
1.54213E-09 4.49938E-12
1.71823E-09 4.48266E-12
1.90386E-09 4.46516E-12
2.09900E-09 4.44688E-12
2.30367E-09 4.42785E-12
2.51785E-09 4.40808E-12
2.74156E-09 4.38760E-12
2.97478E-09 4.36642E-12
3.21752E-09 4.34451E-12
3.46978E-09 4.32177E-12
3.73156E-09 4.29846E-12
4.00286E-09 4.27462E-12
4.28368E-09 4.25027E-12
4.57402E-09 4.22544E-12
4.87388E-09 4.20016E-12
5.18326E-09 4.17397E-12
5.50215E-09 4.14717E-12
5.83057E-09 4.11999E-12
6.16850E-09 4.09246E-12
6.51596E-09 4.06460E-12
6.87293E-09 4.03644E-12
7.23942E-09 4.00780E-12
7.61544E-09 3.97827E-12
1.18991E-08 3.66984E-12
1.71347E-08 3.34538E-12
2.33223E-08 3.02197E-12
3.04617E-08 2.71107E-12
3.85531E-08 2.42219E-12
4.75965E-08 2.15768E-12
5.75917E-08 1.92112E-12
6.85389E-08 1.71010E-12
8.04380E-08 1.52463E-12
9.32891E-08 1.36143E-12
1.07092E-07 1.21864E-12
1.21847E-07 1.09354E-12
1.37554E-07 9.83880E-13
1.54213E-07 8.87711E-13
1.71823E-07 8.02943E-13
1.90386E-07 7.28334E-13
2.09900E-07 6.62099E-13
2.30367E-07 6.03478E-13
2.51785E-07 5.51134E-13
2.74156E-07 5.04477E-13
2.97478E-07 4.62624E-13
3.21752E-07 4.24534E-13
3.46978E-07 3.88223E-13
3.73156E-07 3.56552E-13
4.00286E-07 3.28809E-13
4.28368E-07 3.04403E-13
4.57402E-07 2.82848E-13
4.87388E-07 2.63737E-13
5.18325E-07 2.44414E-13
5.50215E-07 2.26346E-13
5.83057E-07 2.10264E-13
6.16850E-07 1.95902E-13
6.51596E-07 1.83035E-13
6.87293E-07 1.71474E-13
7.23942E-07 1.60679E-13
7.61543E-07 1.49857E-13
1.18991E-06 8.12692E-14
1.71347E-06 4.80230E-14
2.33223E-06 3.03633E-14
3.04617E-06 2.01695E-14
3.85531E-06 1.39304E-14
4.75964E-06 9.88466E-15
5.75916E-06 7.19518E-15
6.85388E-06 5.34196E-15
8.04378E-06 4.04915E-15
9.32888E-06 3.11832E-15
1.07092E-05 2.44347E-15
1.21846E-05 1.94436E-15
1.37553E-05 1.56795E-15
1.54212E-05 1.27917E-15
1.71822E-05 1.05415E-15
1.90385E-05 8.76416E-16
2.09899E-05 7.35809E-16
2.30365E-05 6.22504E-16
2.51783E-05 5.30039E-16
2.74153E-05 4.54047E-16
2.97475E-05 3.91099E-16
3.21749E-05 3.38640E-16
3.46974E-05 2.94578E-16
3.73152E-05 2.57792E-16
4.00281E-05 2.26514E-16
4.28362E-05 1.99828E-16
4.57395E-05 1.77118E-16
4.87380E-05 1.57342E-16
5.18317E-05 1.40341E-16
5.50205E-05 1.25570E-16
5.83045E-05 1.12651E-16
6.16838E-05 1.01413E-16
6.51582E-05 9.14881E-17
6.87277E-05 8.27723E-17
7.23925E-05 7.50857E-17
7.61524E-05 6.82403E-17
9.21439E-05 4.75954E-17
1.09658E-04 3.41677E-17
1.28695E-04 2.51583E-17
1.49255E-04 1.89238E-17
1.71338E-04 1.45064E-17
1.94942E-04 1.13054E-17
2.20070E-04 8.94073E-18
2.46720E-04 7.16373E-18
2.74892E-04 5.80698E-18
3.04586E-04 4.75700E-18
3.35803E-04 3.93365E-18
3.68542E-04 3.28100E-18
4.02802E-04 2.75795E-18
4.38585E-04 2.33501E-18
4.75889E-04 1.98989E-18
5.14715E-04 1.70612E-18
5.55063E-04 1.47102E-18
5.96931E-04 1.27494E-18
6.40321E-04 1.11038E-18
6.85233E-04 9.71425E-19
7.31665E-04 8.53497E-19
7.79618E-04 7.52853E-19
8.29092E-04 6.66583E-19
8.80086E-04 5.92275E-19
9.32601E-04 5.28011E-19
9.86636E-04 4.72203E-19
1.04219E-03 4.23553E-19
1.09927E-03 3.80995E-19
1.15786E-03 3.43631E-19
1.21797E-03 3.10726E-19
1.27961E-03 2.81654E-19
1.34276E-03 2.55896E-19
1.40743E-03 2.33007E-19
1.47362E-03 2.12614E-19
1.54133E-03 1.94398E-19
1.61056E-03 1.78086E-19
1.68131E-03 1.63445E-19
1.75357E-03 1.50274E-19
1.82735E-03 1.38399E-19
1.90265E-03 1.27672E-19
1.97947E-03 1.17961E-19
2.05780E-03 1.09153E-19
2.13765E-03 1.01150E-19
2.21902E-03 9.38641E-20
2.30190E-03 8.72212E-20
2.38630E-03 8.11537E-20
2.47222E-03 7.56031E-20
2.55965E-03 7.05176E-20
2.64859E-03 6.58510E-20
2.73905E-03 6.15630E-20
2.83103E-03 5.76171E-20
2.92452E-03 5.39813E-20
3.01952E-03 5.06266E-20
3.11604E-03 4.75277E-20
3.21407E-03 4.46612E-20
3.31362E-03 4.20070E-20
3.41468E-03 3.95461E-20
3.51725E-03 3.72623E-20
3.62133E-03 3.51402E-20
3.72692E-03 3.31664E-20
3.83403E-03 3.13289E-20
3.94265E-03 2.96160E-20
4.05278E-03 2.80183E-20
4.16442E-03 2.65264E-20
4.27757E-03 2.51319E-20
4.39223E-03 2.38276E-20
4.50840E-03 2.26063E-20
4.62608E-03 2.14619E-20
4.74527E-03 2.03888E-20
4.86597E-03 1.93814E-20
4.98817E-03 1.84353E-20
5.11188E-03 1.75458E-20
5.23711E-03 1.67091E-20
5.36383E-03 1.59215E-20
5.49207E-03 1.51794E-20
5.62181E-03 1.44798E-20
5.75306E-03 1.38199E-20
5.88581E-03 1.31969E-20
6.02007E-03 1.26085E-20
6.15583E-03 1.20522E-20
6.29310E-03 1.15262E-20
6.43187E-03 1.10284E-20
6.57214E-03 1.05569E-20
6.71392E-03 1.01103E-20
6.85720E-03 9.68693E-21
7.00198E-03 9.28531E-21
7.14827E-03 8.90418E-21
7.29605E-03 8.54228E-21
7.44534E-03 8.19845E-21
7.59612E-03 7.87167E-21
7.97965E-03 7.12271E-21
8.37255E-03 6.46022E-21
8.77480E-03 5.87251E-21
9.18641E-03 5.34972E-21
9.60736E-03 4.88344E-21
1.00376E-02 4.46654E-21
1.04773E-02 4.09289E-21
1.09262E-02 3.75723E-21
1.13844E-02 3.45504E-21
1.18520E-02 3.18241E-21
1.23288E-02 2.93595E-21
1.28150E-02 2.71271E-21
1.33104E-02 2.51013E-21
1.38150E-02 2.32596E-21
1.43290E-02 2.15824E-21
1.48521E-02 2.00525E-21
1.53845E-02 1.86546E-21
1.59262E-02 1.73754E-21
1.64770E-02 1.62031E-21
1.70371E-02 1.51271E-21
1.76063E-02 1.41382E-21
1.81848E-02 1.32281E-21
1.87724E-02 1.23894E-21
1.93692E-02 1.16155E-21
1.99751E-02 1.09005E-21
2.05901E-02 1.02392E-21
2.12143E-02 9.62679E-22
2.18476E-02 9.05905E-22
2.24900E-02 8.53212E-22
2.31415E-02 8.04258E-22
2.38021E-02 7.58730E-22
2.44717E-02 7.16345E-22
2.51504E-02 6.76847E-22
2.58382E-02 6.40006E-22
2.65349E-02 6.05610E-22
2.72407E-02 5.73470E-22
2.79555E-02 5.43411E-22
2.86793E-02 5.15273E-22
2.94120E-02 4.88913E-22
3.01537E-02 4.64198E-22
3.09043E-02 4.41008E-22
3.16639E-02 4.19230E-22
3.24324E-02 3.98765E-22
3.32098E-02 3.79519E-22
3.39961E-02 3.61406E-22
3.47912E-02 3.44347E-22
3.55952E-02 3.28271E-22
3.64081E-02 3.13110E-22
3.72297E-02 2.98804E-22
3.80602E-02 2.85296E-22
3.88995E-02 2.72532E-22
3.97476E-02 2.60465E-22
4.06044E-02 2.49050E-22
4.14700E-02 2.38245E-22
4.23443E-02 2.28012E-22
4.32273E-02 2.18315E-22
4.41190E-02 2.09121E-22
4.50194E-02 2.00399E-22
4.59284E-02 1.92121E-22
4.68461E-02 1.84260E-22
4.87074E-02 1.69692E-22
5.06030E-02 1.56517E-22
5.25328E-02 1.44577E-22
5.44967E-02 1.33739E-22
5.64946E-02 1.23883E-22
5.85262E-02 1.14906E-22
6.05914E-02 1.06714E-22
6.26901E-02 9.92291E-23
6.48222E-02 9.23787E-23
6.69873E-02 8.61002E-23
6.91854E-02 8.03375E-23
7.14163E-02 7.50410E-23
7.36799E-02 7.01667E-23
7.59760E-02 6.56753E-23
7.83043E-02 6.15313E-23
8.06647E-02 5.77033E-23
8.30571E-02 5.41632E-23
8.54812E-02 5.08856E-23
8.79369E-02 4.78476E-23
9.04240E-02 4.50288E-23
9.29422E-02 4.24106E-23
9.54915E-02 3.99763E-23
9.80716E-02 3.77108E-23
1.00682E-01 3.56003E-23
1.03323E-01 3.36324E-23
1.05995E-01 3.17959E-23
1.08696E-01 3.00804E-23
1.11427E-01 2.84766E-23
1.14188E-01 2.69760E-23
1.16978E-01 2.55708E-23
1.19797E-01 2.42539E-23
1.22645E-01 2.30188E-23
1.25522E-01 2.18595E-23
1.28428E-01 2.07705E-23
1.31361E-01 1.97470E-23
1.34323E-01 1.87843E-23
1.37313E-01 1.78780E-23
1.40330E-01 1.70244E-23
1.43375E-01 1.62200E-23
1.46447E-01 1.54612E-23
1.49545E-01 1.47451E-23
1.52671E-01 1.40690E-23
1.55823E-01 1.34301E-23
1.59001E-01 1.28261E-23
1.62205E-01 1.22548E-23
1.65435E-01 1.17140E-23
1.68690E-01 1.12019E-23
1.71970E-01 1.07167E-23
1.75276E-01 1.02567E-23
1.78606E-01 9.82036E-24
1.81961E-01 9.40631E-24
1.85340E-01 9.01318E-24
1.88743E-01 8.63974E-24
1.92169E-01 8.28485E-24
1.95619E-01 7.94741E-24
1.99092E-01 7.62642E-24
2.02589E-01 7.32094E-24
2.06107E-01 7.03010E-24
2.09649E-01 6.75306E-24
2.13212E-01 6.48907E-24
2.16797E-01 6.23741E-24
2.20404E-01 5.99740E-24
2.24032E-01 5.76840E-24
2.27680E-01 5.54984E-24
2.31350E-01 5.34115E-24
2.35040E-01 5.14180E-24
2.38751E-01 4.95131E-24
2.42481E-01 4.76923E-24
2.46231E-01 4.59511E-24
2.50000E-01 4.42854E-24
2.53788E-01 4.26915E-24
2.57595E-01 4.11657E-24
2.61421E-01 3.97046E-24
2.65264E-01 3.83050E-24
2.69126E-01 3.69639E-24
2.73005E-01 3.56784E-24
2.76901E-01 3.44458E-24
2.80814E-01 3.32636E-24
2.84744E-01 3.21294E-24
2.88691E-01 3.10409E-24
2.92653E-01 2.99959E-24
2.96632E-01 2.89924E-24
3.00625E-01 2.80284E-24
3.04634E-01 2.71023E-24
3.08658E-01 2.62121E-24
3.12697E-01 2.53564E-24
3.16749E-01 2.45335E-24
3.20816E-01 2.37419E-24
3.24896E-01 2.29803E-24
3.28990E-01 2.22474E-24
3.33097E-01 2.15419E-24
3.37216E-01 2.08625E-24
3.41348E-01 2.02082E-24
3.45492E-01 1.95779E-24
3.49647E-01 1.89706E-24
3.53814E-01 1.83853E-24
3.57992E-01 1.78210E-24
3.62181E-01 1.72769E-24
3.66381E-01 1.67521E-24
3.70590E-01 1.62459E-24
3.74810E-01 1.57575E-24
3.79039E-01 1.52861E-24
3.83277E-01 1.48308E-24
3.87524E-01 1.43911E-24
3.91780E-01 1.39664E-24
3.96044E-01 1.35563E-24
4.00316E-01 1.31600E-24
4.04596E-01 1.27771E-24
4.08882E-01 1.24069E-24
4.13176E-01 1.20491E-24
4.17476E-01 1.17031E-24
4.21783E-01 1.13686E-24
4.26095E-01 1.10449E-24
4.30413E-01 1.07318E-24
4.34737E-01 1.04288E-24
4.39065E-01 1.01356E-24
4.43398E-01 9.85177E-25
4.47736E-01 9.57697E-25
4.52077E-01 9.31087E-25
4.56422E-01 9.05316E-25
4.60770E-01 8.80352E-25
4.65122E-01 8.56167E-25
4.69476E-01 8.32731E-25
4.73832E-01 8.10019E-25
4.78190E-01 7.88004E-25
4.82550E-01 7.66661E-25
4.86912E-01 7.45966E-25
4.91274E-01 7.25898E-25
4.95637E-01 7.06433E-25
5.00000E-01 6.87551E-25
5.04363E-01 6.69231E-25
5.08726E-01 6.51455E-25
5.13088E-01 6.34203E-25
5.17450E-01 6.17457E-25
5.21810E-01 6.01201E-25
5.26168E-01 5.85418E-25
5.30524E-01 5.70092E-25
5.34878E-01 5.55207E-25
5.39230E-01 5.40749E-25
5.43578E-01 5.26704E-25
5.47923E-01 5.13059E-25
5.52264E-01 4.99799E-25
5.56602E-01 4.86913E-25
5.60935E-01 4.74388E-25
5.65263E-01 4.62213E-25
5.69587E-01 4.50376E-25
5.73905E-01 4.38867E-25
5.78217E-01 4.27675E-25
5.82524E-01 4.16790E-25
5.86824E-01 4.06203E-25
5.91118E-01 3.95904E-25
5.95404E-01 3.85884E-25
5.99684E-01 3.76134E-25
6.03956E-01 3.66646E-25
6.08220E-01 3.57412E-25
6.12476E-01 3.48424E-25
6.16723E-01 3.39675E-25
6.20961E-01 3.31157E-25
6.25190E-01 3.22864E-25
6.29410E-01 3.14788E-25
6.33619E-01 3.06924E-25
6.37819E-01 2.99264E-25
6.42008E-01 2.91803E-25
6.46186E-01 2.84534E-25
6.50353E-01 2.77453E-25
6.54508E-01 2.70554E-25
6.58652E-01 2.63830E-25
6.62784E-01 2.57278E-25
6.66903E-01 2.50893E-25
6.71010E-01 2.44668E-25
6.75104E-01 2.38601E-25
6.79184E-01 2.32686E-25
6.83251E-01 2.26919E-25
6.87303E-01 2.21296E-25
6.91342E-01 2.15812E-25
6.95366E-01 2.10465E-25
6.99375E-01 2.05250E-25
7.03368E-01 2.00163E-25
7.07347E-01 1.95200E-25
7.11309E-01 1.90360E-25
7.15256E-01 1.85637E-25
7.19186E-01 1.81029E-25
7.23099E-01 1.76533E-25
7.26995E-01 1.72145E-25
7.30874E-01 1.67864E-25
7.34736E-01 1.63685E-25
7.38579E-01 1.59606E-25
7.42405E-01 1.55625E-25
7.46212E-01 1.51739E-25
7.50000E-01 1.47945E-25
7.53769E-01 1.44241E-25
7.57519E-01 1.40624E-25
7.61249E-01 1.37093E-25
7.64960E-01 1.33645E-25
7.68650E-01 1.30278E-25
7.72320E-01 1.26990E-25
7.75968E-01 1.23779E-25
7.79596E-01 1.20643E-25
7.83203E-01 1.17579E-25
7.86788E-01 1.14587E-25
7.90351E-01 1.11664E-25
7.93893E-01 1.08809E-25
7.97411E-01 1.06020E-25
8.00908E-01 1.03295E-25
8.04381E-01 1.00632E-25
8.07831E-01 9.80311E-26
8.11257E-01 9.54895E-26
8.14660E-01 9.30062E-26
8.18039E-01 9.05797E-26
8.21394E-01 8.82086E-26
8.24724E-01 8.58916E-26
8.28030E-01 8.36274E-26
8.31310E-01 8.14148E-26
8.34565E-01 7.92524E-26
8.37795E-01 7.71392E-26
8.40999E-01 7.50739E-26
8.44177E-01 7.30555E-26
8.47329E-01 7.10829E-26
8.50455E-01 6.91550E-26
8.53553E-01 6.72708E-26
8.56625E-01 6.54292E-26
8.59670E-01 6.36294E-26
8.62687E-01 6.18703E-26
8.65677E-01 6.01511E-26
8.68639E-01 5.84708E-26
8.71572E-01 5.68287E-26
8.74478E-01 5.52237E-26
8.77355E-01 5.36552E-26
8.80203E-01 5.21224E-26
8.83022E-01 5.06244E-26
8.85812E-01 4.91605E-26
8.88573E-01 4.77300E-26
8.91304E-01 4.63321E-26
8.94005E-01 4.49662E-26
8.96677E-01 4.36316E-26
8.99318E-01 4.23277E-26
9.01928E-01 4.10537E-26
9.04508E-01 3.98092E-26
9.07058E-01 3.85934E-26
9.09576E-01 3.74058E-26
9.12063E-01 3.62458E-26
9.14519E-01 3.51130E-26
9.16943E-01 3.40066E-26
9.19335E-01 3.29263E-26
9.21696E-01 3.18715E-26
9.24024E-01 3.08417E-26
9.26320E-01 2.98364E-26
9.28584E-01 2.88552E-26
9.30815E-01 2.78976E-26
9.33013E-01 2.69631E-26
9.35178E-01 2.60514E-26
9.37310E-01 2.51621E-26
9.39409E-01 2.42946E-26
9.41474E-01 2.34487E-26
9.43505E-01 2.26239E-26
9.45503E-01 2.18198E-26
9.47467E-01 2.10362E-26
9.49397E-01 2.02727E-26
9.51293E-01 1.95288E-26
9.53154E-01 1.88044E-26
9.54981E-01 1.80990E-26
9.56773E-01 1.74123E-26
9.58530E-01 1.67442E-26
9.60252E-01 1.60941E-26
9.61940E-01 1.54620E-26
9.63592E-01 1.48474E-26
9.65209E-01 1.42502E-26
9.66790E-01 1.36701E-26
9.68336E-01 1.31068E-26
9.69846E-01 1.25601E-26
9.71321E-01 1.20297E-26
9.72759E-01 1.15154E-26
9.74162E-01 1.10171E-26
9.75528E-01 1.05344E-26
9.76858E-01 1.00673E-26
9.78152E-01 9.61537E-27
9.79410E-01 9.17858E-27
9.80631E-01 8.75670E-27
9.81815E-01 8.34955E-27
9.82963E-01 7.95697E-27
9.84074E-01 7.57879E-27
9.85148E-01 7.21485E-27
9.86185E-01 6.86500E-27
9.87185E-01 6.52910E-27
9.88148E-01 6.20700E-27
9.89074E-01 5.89857E-27
9.89962E-01 5.60368E-27
9.90814E-01 5.32222E-27
9.91627E-01 5.05406E-27
9.92404E-01 4.79910E-27
9.93143E-01 4.55722E-27
9.93844E-01 4.32834E-27
9.94508E-01 4.11236E-27
9.95134E-01 3.90918E-27
9.95722E-01 3.71873E-27
9.96273E-01 3.54092E-27
9.96786E-01 3.37569E-27
9.97261E-01 3.22297E-27
9.97698E-01 3.08269E-27
9.98097E-01 2.95480E-27
9.98459E-01 2.83925E-27
9.98782E-01 2.73599E-27
9.99067E-01 2.64497E-27
9.99315E-01 2.56616E-27
9.99524E-01 2.49953E-27
9.99695E-01 2.44506E-27
9.99829E-01 2.40271E-27
9.99924E-01 2.37247E-27
9.99981E-01 2.35433E-27
1.00000E+00 2.34829E-27
