 #
 # Subroutine ELSEPA. Elastic scattering of electrons and positrons
 #                    by neutral atoms and positive ions
 #
 # Projectile: positron
 # Kinetic energy = 4.50000E+07 eV = 1.65372E+06 a.u.
 #
 # WARNING: High-energy factorization with free-atom DF screening.
 #          Absorption, polarization and exchange corrections are
 #          switched off.
 #          Phase shifts are calculated for the bare nucleus.
 #          Scattering amplitudes are not evaluated.
 #
 # Element: Bi,  Z =  83,  atomic weight = 2.08980E+02 g/mol
 #
 # Nuclear model: Fermi distribution
 #                Average radius = 6.34969E-13 cm
 #                Skin thickness = 5.46000E-14 cm
 #
 # Number of electrons = 83
 #
 # Total elastic cross section = 8.89012E-18 cm**2 = 3.17472E-01 a0**2
 # 1st transport cross section = 5.63728E-24 cm**2 = 2.01311E-07 a0**2
 # 2nd transport cross section = 1.65210E-23 cm**2 = 5.89976E-07 a0**2
 #
 #
 # Differential cross section:                       MU=(1-COS(THETA))/2
 #
 #  THETA        MU          DCS          DCS        Sherman      error
 #  (deg)                 (cm**2/sr)   (a0**2/sr)    function
 #----------------------------------------------------------------------
0.00000E+00 1.32978E-10
7.61557E-13 1.32914E-10
1.18994E-12 1.32879E-10
1.71346E-12 1.32836E-10
2.33225E-12 1.32784E-10
3.04617E-12 1.32725E-10
3.85530E-12 1.32659E-10
4.75964E-12 1.32584E-10
5.75917E-12 1.32502E-10
6.85391E-12 1.32412E-10
8.04379E-12 1.32314E-10
9.32893E-12 1.32209E-10
1.07092E-11 1.32096E-10
1.21847E-11 1.31975E-10
1.37554E-11 1.31847E-10
1.54213E-11 1.31712E-10
1.71823E-11 1.31569E-10
1.90386E-11 1.31418E-10
2.09900E-11 1.31260E-10
2.30367E-11 1.31095E-10
2.51785E-11 1.30922E-10
2.74156E-11 1.30743E-10
2.97478E-11 1.30556E-10
3.21752E-11 1.30361E-10
3.46979E-11 1.30160E-10
3.73157E-11 1.29952E-10
4.00286E-11 1.29737E-10
4.28368E-11 1.29514E-10
4.57402E-11 1.29285E-10
4.87388E-11 1.29050E-10
5.18325E-11 1.28807E-10
5.50215E-11 1.28558E-10
5.83057E-11 1.28302E-10
6.16850E-11 1.28040E-10
6.51595E-11 1.27771E-10
6.87293E-11 1.27496E-10
7.23943E-11 1.27215E-10
7.61544E-11 1.26928E-10
1.18991E-10 1.23723E-10
1.71347E-10 1.20002E-10
2.33223E-10 1.15830E-10
3.04617E-10 1.11319E-10
3.85531E-10 1.06564E-10
4.75965E-10 1.01658E-10
5.75917E-10 9.66811E-11
6.85389E-10 9.16958E-11
8.04380E-10 8.67468E-11
9.32891E-10 8.19108E-11
1.07092E-09 7.72276E-11
1.21847E-09 7.27267E-11
1.37554E-09 6.84283E-11
1.54213E-09 6.43341E-11
1.71823E-09 6.04495E-11
1.90386E-09 5.67923E-11
2.09900E-09 5.33595E-11
2.30367E-09 5.01450E-11
2.51785E-09 4.71405E-11
2.74156E-09 4.43278E-11
2.97478E-09 4.17004E-11
3.21752E-09 3.92542E-11
3.46978E-09 3.69774E-11
3.73156E-09 3.48587E-11
4.00286E-09 3.28868E-11
4.28368E-09 3.10449E-11
4.57402E-09 2.93278E-11
4.87388E-09 2.77286E-11
5.18326E-09 2.62382E-11
5.50215E-09 2.48481E-11
5.83057E-09 2.35507E-11
6.16850E-09 2.23338E-11
6.51596E-09 2.11956E-11
6.87293E-09 2.01308E-11
7.23942E-09 1.91336E-11
7.61544E-09 1.81989E-11
1.18991E-08 1.13183E-11
1.71347E-08 7.47340E-12
2.33223E-08 5.06802E-12
3.04617E-08 3.55945E-12
3.85531E-08 2.57479E-12
4.75965E-08 1.91095E-12
5.75917E-08 1.45083E-12
6.85389E-08 1.12276E-12
8.04380E-08 8.82627E-13
9.32891E-08 7.04521E-13
1.07092E-07 5.69609E-13
1.21847E-07 4.65564E-13
1.37554E-07 3.84086E-13
1.54213E-07 3.19247E-13
1.71823E-07 2.67133E-13
1.90386E-07 2.25096E-13
2.09900E-07 1.90902E-13
2.30367E-07 1.62880E-13
2.51785E-07 1.39771E-13
2.74156E-07 1.20611E-13
2.97478E-07 1.04501E-13
3.21752E-07 9.10062E-14
3.46978E-07 7.96522E-14
3.73156E-07 7.00475E-14
4.00286E-07 6.18771E-14
4.28368E-07 5.48778E-14
4.57402E-07 4.88532E-14
4.87388E-07 4.36437E-14
5.18325E-07 3.91176E-14
5.50215E-07 3.51684E-14
5.83057E-07 3.17093E-14
6.16850E-07 2.86649E-14
6.51596E-07 2.59808E-14
6.87293E-07 2.36076E-14
7.23942E-07 2.15027E-14
7.61543E-07 1.96300E-14
1.18991E-06 8.71398E-15
1.71347E-06 4.44702E-15
2.33223E-06 2.50230E-15
3.04617E-06 1.51349E-15
3.85531E-06 9.67781E-16
4.75964E-06 6.47008E-16
5.75916E-06 4.48711E-16
6.85388E-06 3.20906E-16
8.04378E-06 2.35571E-16
9.32888E-06 1.76834E-16
1.07092E-05 1.35329E-16
1.21846E-05 1.05324E-16
1.37553E-05 8.31925E-17
1.54212E-05 6.65773E-17
1.71822E-05 5.39065E-17
1.90385E-05 4.40788E-17
2.09899E-05 3.64380E-17
2.30365E-05 3.03746E-17
2.51783E-05 2.55111E-17
2.74153E-05 2.15752E-17
2.97475E-05 1.83656E-17
3.21749E-05 1.57302E-17
3.46974E-05 1.35518E-17
3.73152E-05 1.17390E-17
4.00281E-05 1.02205E-17
4.28362E-05 8.94005E-18
4.57395E-05 7.85380E-18
4.87380E-05 6.92711E-18
5.18317E-05 6.13261E-18
5.50205E-05 5.44843E-18
5.83045E-05 4.85688E-18
6.16838E-05 4.34349E-18
6.51582E-05 3.89628E-18
6.87277E-05 3.50528E-18
7.23925E-05 3.16219E-18
7.61524E-05 2.86008E-18
9.21439E-05 1.95908E-18
1.09658E-04 1.38638E-18
1.28695E-04 1.00847E-18
1.49255E-04 7.50895E-19
1.71338E-04 5.70515E-19
1.94942E-04 4.41147E-19
2.20070E-04 3.46424E-19
2.46720E-04 2.75790E-19
2.74892E-04 2.22257E-19
3.04586E-04 1.81088E-19
3.35803E-04 1.49015E-19
3.68542E-04 1.23728E-19
4.02802E-04 1.03577E-19
4.38585E-04 8.73606E-20
4.75889E-04 7.41917E-20
5.14715E-04 6.34099E-20
5.55063E-04 5.45136E-20
5.96931E-04 4.71217E-20
6.40321E-04 4.09390E-20
6.85233E-04 3.57359E-20
7.31665E-04 3.13323E-20
7.79618E-04 2.75850E-20
8.29092E-04 2.43806E-20
8.80086E-04 2.16273E-20
9.32601E-04 1.92510E-20
9.86636E-04 1.71916E-20
1.04219E-03 1.53997E-20
1.09927E-03 1.38348E-20
1.15786E-03 1.24632E-20
1.21797E-03 1.12571E-20
1.27961E-03 1.01930E-20
1.34276E-03 9.25138E-21
1.40743E-03 8.41578E-21
1.47362E-03 7.67216E-21
1.54133E-03 7.00866E-21
1.61056E-03 6.41515E-21
1.68131E-03 5.88299E-21
1.75357E-03 5.40472E-21
1.82735E-03 4.97393E-21
1.90265E-03 4.58508E-21
1.97947E-03 4.23339E-21
2.05780E-03 3.91467E-21
2.13765E-03 3.62529E-21
2.21902E-03 3.36207E-21
2.30190E-03 3.12224E-21
2.38630E-03 2.90334E-21
2.47222E-03 2.70322E-21
2.55965E-03 2.51999E-21
2.64859E-03 2.35197E-21
2.73905E-03 2.19767E-21
2.83103E-03 2.05577E-21
2.92452E-03 1.92510E-21
3.01952E-03 1.80460E-21
3.11604E-03 1.69335E-21
3.21407E-03 1.59051E-21
3.31362E-03 1.49532E-21
3.41468E-03 1.40712E-21
3.51725E-03 1.32530E-21
3.62133E-03 1.24932E-21
3.72692E-03 1.17868E-21
3.83403E-03 1.11294E-21
3.94265E-03 1.05170E-21
4.05278E-03 9.94592E-22
4.16442E-03 9.41293E-22
4.27757E-03 8.91500E-22
4.39223E-03 8.44938E-22
4.50840E-03 8.01362E-22
4.62608E-03 7.60548E-22
4.74527E-03 7.22284E-22
4.86597E-03 6.86381E-22
4.98817E-03 6.52676E-22
5.11188E-03 6.20999E-22
5.23711E-03 5.91210E-22
5.36383E-03 5.63180E-22
5.49207E-03 5.36780E-22
5.62181E-03 5.11899E-22
5.75306E-03 4.88437E-22
5.88581E-03 4.66295E-22
6.02007E-03 4.45386E-22
6.15583E-03 4.25629E-22
6.29310E-03 4.06949E-22
6.43187E-03 3.89276E-22
6.57214E-03 3.72546E-22
6.71392E-03 3.56700E-22
6.85720E-03 3.41682E-22
7.00198E-03 3.27441E-22
7.14827E-03 3.13929E-22
7.29605E-03 3.01103E-22
7.44534E-03 2.88920E-22
7.59612E-03 2.77343E-22
7.97965E-03 2.50823E-22
8.37255E-03 2.27378E-22
8.77480E-03 2.06590E-22
9.18641E-03 1.88109E-22
9.60736E-03 1.71633E-22
1.00376E-02 1.56909E-22
1.04773E-02 1.43719E-22
1.09262E-02 1.31876E-22
1.13844E-02 1.21218E-22
1.18520E-02 1.11607E-22
1.23288E-02 1.02923E-22
1.28150E-02 9.50606E-23
1.33104E-02 8.79290E-23
1.38150E-02 8.14429E-23
1.43290E-02 7.55383E-23
1.48521E-02 7.01539E-23
1.53845E-02 6.52360E-23
1.59262E-02 6.07370E-23
1.64770E-02 5.66151E-23
1.70371E-02 5.28332E-23
1.76063E-02 4.93583E-23
1.81848E-02 4.61612E-23
1.87724E-02 4.32158E-23
1.93692E-02 4.04987E-23
1.99751E-02 3.79892E-23
2.05901E-02 3.56687E-23
2.12143E-02 3.35204E-23
2.18476E-02 3.15293E-23
2.24900E-02 2.96819E-23
2.31415E-02 2.79660E-23
2.38021E-02 2.63705E-23
2.44717E-02 2.48856E-23
2.51504E-02 2.35023E-23
2.58382E-02 2.22123E-23
2.65349E-02 2.10083E-23
2.72407E-02 1.98834E-23
2.79555E-02 1.88317E-23
2.86793E-02 1.78475E-23
2.94120E-02 1.69257E-23
3.01537E-02 1.60617E-23
3.09043E-02 1.52512E-23
3.16639E-02 1.44903E-23
3.24324E-02 1.37754E-23
3.32098E-02 1.31032E-23
3.39961E-02 1.24709E-23
3.47912E-02 1.18755E-23
3.55952E-02 1.13145E-23
3.64081E-02 1.07857E-23
3.72297E-02 1.02868E-23
3.80602E-02 9.81581E-24
3.88995E-02 9.37095E-24
3.97476E-02 8.95050E-24
4.06044E-02 8.55289E-24
4.14700E-02 8.17664E-24
4.23443E-02 7.82042E-24
4.32273E-02 7.48296E-24
4.41190E-02 7.16311E-24
4.50194E-02 6.85979E-24
4.59284E-02 6.57200E-24
4.68461E-02 6.29879E-24
4.87074E-02 5.79273E-24
5.06030E-02 5.33534E-24
5.25328E-02 4.92117E-24
5.44967E-02 4.54547E-24
5.64946E-02 4.20406E-24
5.85262E-02 3.89332E-24
6.05914E-02 3.61002E-24
6.26901E-02 3.35135E-24
6.48222E-02 3.11481E-24
6.69873E-02 2.89820E-24
6.91854E-02 2.69955E-24
7.14163E-02 2.51715E-24
7.36799E-02 2.34944E-24
7.59760E-02 2.19504E-24
7.83043E-02 2.05272E-24
8.06647E-02 1.92139E-24
8.30571E-02 1.80005E-24
8.54812E-02 1.68783E-24
8.79369E-02 1.58392E-24
9.04240E-02 1.48761E-24
9.29422E-02 1.39825E-24
9.54915E-02 1.31526E-24
9.80716E-02 1.23812E-24
1.00682E-01 1.16634E-24
1.03323E-01 1.09949E-24
1.05995E-01 1.03717E-24
1.08696E-01 9.79036E-25
1.11427E-01 9.24755E-25
1.14188E-01 8.74032E-25
1.16978E-01 8.26596E-25
1.19797E-01 7.82199E-25
1.22645E-01 7.40616E-25
1.25522E-01 7.01640E-25
1.28428E-01 6.65082E-25
1.31361E-01 6.30767E-25
1.34323E-01 5.98536E-25
1.37313E-01 5.68244E-25
1.40330E-01 5.39753E-25
1.43375E-01 5.12941E-25
1.46447E-01 4.87694E-25
1.49545E-01 4.63904E-25
1.52671E-01 4.41476E-25
1.55823E-01 4.20319E-25
1.59001E-01 4.00349E-25
1.62205E-01 3.81490E-25
1.65435E-01 3.63670E-25
1.68690E-01 3.46824E-25
1.71970E-01 3.30889E-25
1.75276E-01 3.15809E-25
1.78606E-01 3.01531E-25
1.81961E-01 2.88006E-25
1.85340E-01 2.75188E-25
1.88743E-01 2.63034E-25
1.92169E-01 2.51505E-25
1.95619E-01 2.40563E-25
1.99092E-01 2.30175E-25
2.02589E-01 2.20308E-25
2.06107E-01 2.10932E-25
2.09649E-01 2.02018E-25
2.13212E-01 1.93542E-25
2.16797E-01 1.85477E-25
2.20404E-01 1.77801E-25
2.24032E-01 1.70493E-25
2.27680E-01 1.63532E-25
2.31350E-01 1.56899E-25
2.35040E-01 1.50577E-25
2.38751E-01 1.44549E-25
2.42481E-01 1.38799E-25
2.46231E-01 1.33312E-25
2.50000E-01 1.28075E-25
2.53788E-01 1.23075E-25
2.57595E-01 1.18299E-25
2.61421E-01 1.13736E-25
2.65264E-01 1.09375E-25
2.69126E-01 1.05206E-25
2.73005E-01 1.01219E-25
2.76901E-01 9.74047E-26
2.80814E-01 9.37552E-26
2.84744E-01 9.02621E-26
2.88691E-01 8.69177E-26
2.92653E-01 8.37148E-26
2.96632E-01 8.06466E-26
3.00625E-01 7.77067E-26
3.04634E-01 7.48888E-26
3.08658E-01 7.21873E-26
3.12697E-01 6.95967E-26
3.16749E-01 6.71117E-26
3.20816E-01 6.47275E-26
3.24896E-01 6.24395E-26
3.28990E-01 6.02432E-26
3.33097E-01 5.81344E-26
3.37216E-01 5.61092E-26
3.41348E-01 5.41638E-26
3.45492E-01 5.22947E-26
3.49647E-01 5.04985E-26
3.53814E-01 4.87718E-26
3.57992E-01 4.71118E-26
3.62181E-01 4.55154E-26
3.66381E-01 4.39799E-26
3.70590E-01 4.25027E-26
3.74810E-01 4.10813E-26
3.79039E-01 3.97132E-26
3.83277E-01 3.83962E-26
3.87524E-01 3.71282E-26
3.91780E-01 3.59071E-26
3.96044E-01 3.47310E-26
4.00316E-01 3.35979E-26
4.04596E-01 3.25061E-26
4.08882E-01 3.14539E-26
4.13176E-01 3.04396E-26
4.17476E-01 2.94618E-26
4.21783E-01 2.85189E-26
4.26095E-01 2.76096E-26
4.30413E-01 2.67325E-26
4.34737E-01 2.58863E-26
4.39065E-01 2.50698E-26
4.43398E-01 2.42818E-26
4.47736E-01 2.35212E-26
4.52077E-01 2.27869E-26
4.56422E-01 2.20780E-26
4.60770E-01 2.13933E-26
4.65122E-01 2.07321E-26
4.69476E-01 2.00933E-26
4.73832E-01 1.94762E-26
4.78190E-01 1.88799E-26
4.82550E-01 1.83036E-26
4.86912E-01 1.77465E-26
4.91274E-01 1.72081E-26
4.95637E-01 1.66874E-26
5.00000E-01 1.61840E-26
5.04363E-01 1.56971E-26
5.08726E-01 1.52262E-26
5.13088E-01 1.47707E-26
5.17450E-01 1.43299E-26
5.21810E-01 1.39035E-26
5.26168E-01 1.34907E-26
5.30524E-01 1.30913E-26
5.34878E-01 1.27046E-26
5.39230E-01 1.23302E-26
5.43578E-01 1.19678E-26
5.47923E-01 1.16168E-26
5.52264E-01 1.12768E-26
5.56602E-01 1.09476E-26
5.60935E-01 1.06286E-26
5.65263E-01 1.03196E-26
5.69587E-01 1.00202E-26
5.73905E-01 9.73006E-27
5.78217E-01 9.44887E-27
5.82524E-01 9.17632E-27
5.86824E-01 8.91212E-27
5.91118E-01 8.65598E-27
5.95404E-01 8.40764E-27
5.99684E-01 8.16682E-27
6.03956E-01 7.93328E-27
6.08220E-01 7.70677E-27
6.12476E-01 7.48707E-27
6.16723E-01 7.27393E-27
6.20961E-01 7.06715E-27
6.25190E-01 6.86652E-27
6.29410E-01 6.67183E-27
6.33619E-01 6.48289E-27
6.37819E-01 6.29951E-27
6.42008E-01 6.12152E-27
6.46186E-01 5.94873E-27
6.50353E-01 5.78098E-27
6.54508E-01 5.61811E-27
6.58652E-01 5.45996E-27
6.62784E-01 5.30639E-27
6.66903E-01 5.15724E-27
6.71010E-01 5.01237E-27
6.75104E-01 4.87166E-27
6.79184E-01 4.73497E-27
6.83251E-01 4.60217E-27
6.87303E-01 4.47314E-27
6.91342E-01 4.34777E-27
6.95366E-01 4.22594E-27
6.99375E-01 4.10755E-27
7.03368E-01 3.99248E-27
7.07347E-01 3.88064E-27
7.11309E-01 3.77192E-27
7.15256E-01 3.66623E-27
7.19186E-01 3.56348E-27
7.23099E-01 3.46358E-27
7.26995E-01 3.36645E-27
7.30874E-01 3.27199E-27
7.34736E-01 3.18014E-27
7.38579E-01 3.09081E-27
7.42405E-01 3.00392E-27
7.46212E-01 2.91942E-27
7.50000E-01 2.83721E-27
7.53769E-01 2.75724E-27
7.57519E-01 2.67945E-27
7.61249E-01 2.60376E-27
7.64960E-01 2.53011E-27
7.68650E-01 2.45845E-27
7.72320E-01 2.38872E-27
7.75968E-01 2.32087E-27
7.79596E-01 2.25483E-27
7.83203E-01 2.19056E-27
7.86788E-01 2.12800E-27
7.90351E-01 2.06712E-27
7.93893E-01 2.00785E-27
7.97411E-01 1.95015E-27
8.00908E-01 1.89399E-27
8.04381E-01 1.83931E-27
8.07831E-01 1.78607E-27
8.11257E-01 1.73424E-27
8.14660E-01 1.68378E-27
8.18039E-01 1.63464E-27
8.21394E-01 1.58679E-27
8.24724E-01 1.54019E-27
8.28030E-01 1.49482E-27
8.31310E-01 1.45063E-27
8.34565E-01 1.40760E-27
8.37795E-01 1.36569E-27
8.40999E-01 1.32487E-27
8.44177E-01 1.28512E-27
8.47329E-01 1.24640E-27
8.50455E-01 1.20868E-27
8.53553E-01 1.17195E-27
8.56625E-01 1.13617E-27
8.59670E-01 1.10132E-27
8.62687E-01 1.06737E-27
8.65677E-01 1.03430E-27
8.68639E-01 1.00209E-27
8.71572E-01 9.70708E-28
8.74478E-01 9.40143E-28
8.77355E-01 9.10369E-28
8.80203E-01 8.81367E-28
8.83022E-01 8.53116E-28
8.85812E-01 8.25597E-28
8.88573E-01 7.98792E-28
8.91304E-01 7.72682E-28
8.94005E-01 7.47251E-28
8.96677E-01 7.22480E-28
8.99318E-01 6.98353E-28
9.01928E-01 6.74855E-28
9.04508E-01 6.51969E-28
9.07058E-01 6.29681E-28
9.09576E-01 6.07976E-28
9.12063E-01 5.86840E-28
9.14519E-01 5.66259E-28
9.16943E-01 5.46220E-28
9.19335E-01 5.26709E-28
9.21696E-01 5.07715E-28
9.24024E-01 4.89224E-28
9.26320E-01 4.71225E-28
9.28584E-01 4.53707E-28
9.30815E-01 4.36658E-28
9.33013E-01 4.20068E-28
9.35178E-01 4.03926E-28
9.37310E-01 3.88222E-28
9.39409E-01 3.72945E-28
9.41474E-01 3.58088E-28
9.43505E-01 3.43639E-28
9.45503E-01 3.29591E-28
9.47467E-01 3.15934E-28
9.49397E-01 3.02660E-28
9.51293E-01 2.89761E-28
9.53154E-01 2.77229E-28
9.54981E-01 2.65057E-28
9.56773E-01 2.53236E-28
9.58530E-01 2.41759E-28
9.60252E-01 2.30620E-28
9.61940E-01 2.19812E-28
9.63592E-01 2.09328E-28
9.65209E-01 1.99162E-28
9.66790E-01 1.89308E-28
9.68336E-01 1.79760E-28
9.69846E-01 1.70512E-28
9.71321E-01 1.61559E-28
9.72759E-01 1.52895E-28
9.74162E-01 1.44515E-28
9.75528E-01 1.36414E-28
9.76858E-01 1.28588E-28
9.78152E-01 1.21031E-28
9.79410E-01 1.13740E-28
9.80631E-01 1.06710E-28
9.81815E-01 9.99360E-29
9.82963E-01 9.34154E-29
9.84074E-01 8.71437E-29
9.85148E-01 8.11174E-29
9.86185E-01 7.53330E-29
9.87185E-01 6.97870E-29
9.88148E-01 6.44763E-29
9.89074E-01 5.93978E-29
9.89962E-01 5.45484E-29
9.90814E-01 4.99255E-29
9.91627E-01 4.55263E-29
9.92404E-01 4.13482E-29
9.93143E-01 3.73889E-29
9.93844E-01 3.36461E-29
9.94508E-01 3.01177E-29
9.95134E-01 2.68015E-29
9.95722E-01 2.36958E-29
9.96273E-01 2.07986E-29
9.96786E-01 1.81084E-29
9.97261E-01 1.56236E-29
9.97698E-01 1.33427E-29
9.98097E-01 1.12646E-29
9.98459E-01 9.38787E-30
9.98782E-01 7.71160E-30
9.99067E-01 6.23478E-30
9.99315E-01 4.95657E-30
9.99524E-01 3.87624E-30
9.99695E-01 2.99318E-30
9.99829E-01 2.30687E-30
9.99924E-01 1.81693E-30
9.99981E-01 1.52308E-30
1.00000E+00 1.42514E-30
