 #
 # Subroutine ELSEPA. Elastic scattering of electrons and positrons
 #                    by neutral atoms and positive ions
 #
 # Projectile: positron
 # Kinetic energy = 3.00000E+08 eV = 1.10248E+07 a.u.
 #
 # WARNING: High-energy factorization with free-atom DF screening.
 #          Absorption, polarization and exchange corrections are
 #          switched off.
 #          Phase shifts are calculated for the bare nucleus.
 #          Scattering amplitudes are not evaluated.
 #
 # Element: Bi,  Z =  83,  atomic weight = 2.08980E+02 g/mol
 #
 # Nuclear model: Fermi distribution
 #                Average radius = 6.34969E-13 cm
 #                Skin thickness = 5.46000E-14 cm
 #
 # Number of electrons = 83
 #
 # Total elastic cross section = 8.88853E-18 cm**2 = 3.17415E-01 a0**2
 # 1st transport cross section = 1.41362E-25 cm**2 = 5.04811E-09 a0**2
 # 2nd transport cross section = 4.23609E-25 cm**2 = 1.51273E-08 a0**2
 #
 #
 # Differential cross section:                       MU=(1-COS(THETA))/2
 #
 #  THETA        MU          DCS          DCS        Sherman      error
 #  (deg)                 (cm**2/sr)   (a0**2/sr)    function
 #----------------------------------------------------------------------
0.00000E+00 5.79787E-09
7.61557E-13 5.68020E-09
1.18994E-12 5.61585E-09
1.71346E-12 5.53889E-09
2.33225E-12 5.45022E-09
3.04617E-12 5.35035E-09
3.85530E-12 5.24185E-09
4.75964E-12 5.12396E-09
5.75917E-12 5.00016E-09
6.85391E-12 4.86884E-09
8.04379E-12 4.73400E-09
9.32893E-12 4.59448E-09
1.07092E-11 4.45303E-09
1.21847E-11 4.30974E-09
1.37554E-11 4.16566E-09
1.54213E-11 4.02237E-09
1.71823E-11 3.87906E-09
1.90386E-11 3.73880E-09
2.09900E-11 3.59897E-09
2.30367E-11 3.46362E-09
2.51785E-11 3.32970E-09
2.74156E-11 3.20053E-09
2.97478E-11 3.07426E-09
3.21752E-11 2.95240E-09
3.46979E-11 2.83452E-09
3.73157E-11 2.72059E-09
4.00286E-11 2.61142E-09
4.28368E-11 2.50569E-09
4.57402E-11 2.40520E-09
4.87388E-11 2.30763E-09
5.18325E-11 2.21520E-09
5.50215E-11 2.12590E-09
5.83057E-11 2.04109E-09
6.16850E-11 1.95970E-09
6.51595E-11 1.88210E-09
6.87293E-11 1.80805E-09
7.23943E-11 1.73717E-09
7.61544E-11 1.66987E-09
1.18991E-10 1.14296E-09
1.71347E-10 8.08709E-10
2.33223E-10 5.88979E-10
3.04617E-10 4.33952E-10
3.85531E-10 3.32726E-10
4.75965E-10 2.55394E-10
5.75917E-10 2.01748E-10
6.85389E-10 1.59206E-10
8.04380E-10 1.28421E-10
9.32891E-10 1.04153E-10
1.07092E-09 8.56873E-11
1.21847E-09 7.10913E-11
1.37554E-09 5.95405E-11
1.54213E-09 5.03321E-11
1.71823E-09 4.28006E-11
1.90386E-09 3.67347E-11
2.09900E-09 3.16289E-11
2.30367E-09 2.74616E-11
2.51785E-09 2.38979E-11
2.74156E-09 2.09317E-11
2.97478E-09 1.83842E-11
3.21752E-09 1.62192E-11
3.46978E-09 1.43553E-11
3.73156E-09 1.27437E-11
4.00286E-09 1.13542E-11
4.28368E-09 1.01360E-11
4.57402E-09 9.08404E-12
4.87388E-09 8.15161E-12
5.18326E-09 7.34209E-12
5.50215E-09 6.62343E-12
5.83057E-09 5.99399E-12
6.16850E-09 5.43641E-12
6.51596E-09 4.94109E-12
6.87293E-09 4.49904E-12
7.23942E-09 4.10527E-12
7.61544E-09 3.75487E-12
1.18991E-08 1.70324E-12
1.71347E-08 8.86308E-13
2.33223E-08 5.07138E-13
3.04617E-08 3.10864E-13
3.85531E-08 2.01071E-13
4.75965E-08 1.35852E-13
5.75917E-08 9.50936E-14
6.85389E-08 6.84939E-14
8.04380E-08 5.05811E-14
9.32891E-08 3.81478E-14
1.07092E-07 2.93029E-14
1.21847E-07 2.28808E-14
1.37554E-07 1.81232E-14
1.54213E-07 1.45417E-14
1.71823E-07 1.18046E-14
1.90386E-07 9.68199E-15
2.09900E-07 8.01688E-15
2.30367E-07 6.69532E-15
2.51785E-07 5.63521E-15
2.74156E-07 4.77720E-15
2.97478E-07 4.07638E-15
3.21752E-07 3.49946E-15
3.46978E-07 3.02114E-15
3.73156E-07 2.62163E-15
4.00286E-07 2.28601E-15
4.28368E-07 2.00237E-15
4.57402E-07 1.76128E-15
4.87388E-07 1.55539E-15
5.18325E-07 1.37867E-15
5.50215E-07 1.22630E-15
5.83057E-07 1.09439E-15
6.16850E-07 9.79709E-16
6.51596E-07 8.79647E-16
6.87293E-07 7.92029E-16
7.23942E-07 7.15030E-16
7.61543E-07 6.47159E-16
1.18991E-06 2.68162E-16
1.71347E-06 1.30305E-16
2.33223E-06 7.07238E-17
3.04617E-06 4.16310E-17
3.85531E-06 2.60748E-17
4.75964E-06 1.71518E-17
5.75916E-06 1.17388E-17
6.85388E-06 8.30195E-18
8.04378E-06 6.03535E-18
9.32888E-06 4.49186E-18
1.07092E-05 3.41151E-18
1.21846E-05 2.63716E-18
1.37553E-05 2.07047E-18
1.54212E-05 1.64807E-18
1.71822E-05 1.32804E-18
1.90385E-05 1.08131E-18
2.09899E-05 8.90487E-19
2.30365E-05 7.39793E-19
2.51783E-05 6.19450E-19
2.74153E-05 5.22445E-19
2.97475E-05 4.43621E-19
3.21749E-05 3.79105E-19
3.46974E-05 3.25929E-19
3.73152E-05 2.81796E-19
4.00281E-05 2.44913E-19
4.28362E-05 2.13882E-19
4.57395E-05 1.87610E-19
4.87380E-05 1.65238E-19
5.18317E-05 1.46091E-19
5.50205E-05 1.29629E-19
5.83045E-05 1.15417E-19
6.16838E-05 1.03100E-19
6.51582E-05 9.23853E-20
6.87277E-05 8.30292E-20
7.23925E-05 7.48293E-20
7.61524E-05 6.79169E-20
9.21439E-05 4.64117E-20
1.09658E-04 3.27842E-20
1.28695E-04 2.38140E-20
1.49255E-04 1.77126E-20
1.71338E-04 1.34467E-20
1.94942E-04 1.03913E-20
2.20070E-04 8.15658E-21
2.46720E-04 6.49155E-21
2.74892E-04 5.23051E-21
3.04586E-04 4.26143E-21
3.35803E-04 3.50613E-21
3.68542E-04 2.91077E-21
4.02802E-04 2.43638E-21
4.38585E-04 2.05461E-21
4.75889E-04 1.74457E-21
5.14715E-04 1.49069E-21
5.55063E-04 1.28117E-21
5.96931E-04 1.10705E-21
6.40321E-04 9.61378E-22
6.85233E-04 8.38755E-22
7.31665E-04 7.34948E-22
7.79618E-04 6.46592E-22
8.29092E-04 5.71016E-22
8.80086E-04 5.06063E-22
9.32601E-04 4.49995E-22
9.86636E-04 4.01396E-22
1.04219E-03 3.59103E-22
1.09927E-03 3.22165E-22
1.15786E-03 2.89787E-22
1.21797E-03 2.61314E-22
1.27961E-03 2.36196E-22
1.34276E-03 2.13972E-22
1.40743E-03 1.94251E-22
1.47362E-03 1.76705E-22
1.54133E-03 1.61054E-22
1.61056E-03 1.47058E-22
1.68131E-03 1.34514E-22
1.75357E-03 1.23245E-22
1.82735E-03 1.13100E-22
1.90265E-03 1.03949E-22
1.97947E-03 9.56775E-23
2.05780E-03 8.81872E-23
2.13765E-03 8.13920E-23
2.21902E-03 7.52167E-23
2.30190E-03 6.95955E-23
2.38630E-03 6.44704E-23
2.47222E-03 5.97905E-23
2.55965E-03 5.55107E-23
2.64859E-03 5.15913E-23
2.73905E-03 4.79970E-23
2.83103E-03 4.46964E-23
2.92452E-03 4.16617E-23
3.01952E-03 3.88680E-23
3.11604E-03 3.62932E-23
3.21407E-03 3.39172E-23
3.31362E-03 3.17224E-23
3.41468E-03 2.96928E-23
3.51725E-03 2.78139E-23
3.62133E-03 2.60729E-23
3.72692E-03 2.44580E-23
3.83403E-03 2.29587E-23
3.94265E-03 2.15655E-23
4.05278E-03 2.02696E-23
4.16442E-03 1.90634E-23
4.27757E-03 1.79395E-23
4.39223E-03 1.68917E-23
4.50840E-03 1.59139E-23
4.62608E-03 1.50008E-23
4.74527E-03 1.41474E-23
4.86597E-03 1.33494E-23
4.98817E-03 1.26026E-23
5.11188E-03 1.19032E-23
5.23711E-03 1.12478E-23
5.36383E-03 1.06333E-23
5.49207E-03 1.00567E-23
5.62181E-03 9.51534E-24
5.75306E-03 9.00683E-24
5.88581E-03 8.52887E-24
6.02007E-03 8.07939E-24
6.15583E-03 7.65645E-24
6.29310E-03 7.25829E-24
6.43187E-03 6.88326E-24
6.57214E-03 6.52984E-24
6.71392E-03 6.19662E-24
6.85720E-03 5.88231E-24
7.00198E-03 5.58569E-24
7.14827E-03 5.30565E-24
7.29605E-03 5.04113E-24
7.44534E-03 4.79118E-24
7.59612E-03 4.55490E-24
7.97965E-03 4.01863E-24
8.37255E-03 3.55111E-24
8.77480E-03 3.14260E-24
9.18641E-03 2.78491E-24
9.60736E-03 2.47108E-24
1.00376E-02 2.19523E-24
1.04773E-02 1.95233E-24
1.09262E-02 1.73810E-24
1.13844E-02 1.54885E-24
1.18520E-02 1.38144E-24
1.23288E-02 1.23315E-24
1.28150E-02 1.10162E-24
1.33104E-02 9.84814E-25
1.38150E-02 8.80973E-25
1.43290E-02 7.88560E-25
1.48521E-02 7.06236E-25
1.53845E-02 6.32832E-25
1.59262E-02 5.67326E-25
1.64770E-02 5.08821E-25
1.70371E-02 4.56530E-25
1.76063E-02 4.09761E-25
1.81848E-02 3.67904E-25
1.87724E-02 3.30421E-25
1.93692E-02 2.96836E-25
1.99751E-02 2.66730E-25
2.05901E-02 2.39729E-25
2.12143E-02 2.15502E-25
2.18476E-02 1.93758E-25
2.24900E-02 1.74233E-25
2.31415E-02 1.56698E-25
2.38021E-02 1.40944E-25
2.44717E-02 1.26787E-25
2.51504E-02 1.14063E-25
2.58382E-02 1.02624E-25
2.65349E-02 9.23390E-26
2.72407E-02 8.30907E-26
2.79555E-02 7.47737E-26
2.86793E-02 6.72934E-26
2.94120E-02 6.05654E-26
3.01537E-02 5.45138E-26
3.09043E-02 4.90705E-26
3.16639E-02 4.41744E-26
3.24324E-02 3.97706E-26
3.32098E-02 3.58097E-26
3.39961E-02 3.22474E-26
3.47912E-02 2.90436E-26
3.55952E-02 2.61626E-26
3.64081E-02 2.35720E-26
3.72297E-02 2.12428E-26
3.80602E-02 1.91487E-26
3.88995E-02 1.72662E-26
3.97476E-02 1.55740E-26
4.06044E-02 1.40531E-26
4.14700E-02 1.26862E-26
4.23443E-02 1.14577E-26
4.32273E-02 1.03538E-26
4.41190E-02 9.36176E-27
4.50194E-02 8.47035E-27
4.59284E-02 7.66931E-27
4.68461E-02 6.94947E-27
4.87074E-02 5.72106E-27
5.06030E-02 4.72834E-27
5.25328E-02 3.92534E-27
5.44967E-02 3.27489E-27
5.64946E-02 2.74696E-27
5.85262E-02 2.31735E-27
6.05914E-02 1.96657E-27
6.26901E-02 1.67896E-27
6.48222E-02 1.44197E-27
6.69873E-02 1.24555E-27
6.91854E-02 1.08169E-27
7.14163E-02 9.44002E-28
7.36799E-02 8.27420E-28
7.59760E-02 7.27921E-28
7.83043E-02 6.42322E-28
8.06647E-02 5.68111E-28
8.30571E-02 5.03302E-28
8.54812E-02 4.46329E-28
8.79369E-02 3.95955E-28
9.04240E-02 3.51198E-28
9.29422E-02 3.11278E-28
9.54915E-02 2.75569E-28
9.80716E-02 2.43565E-28
1.00682E-01 2.14852E-28
1.03323E-01 1.89087E-28
1.05995E-01 1.65978E-28
1.08696E-01 1.45277E-28
1.11427E-01 1.26766E-28
1.14188E-01 1.10251E-28
1.16978E-01 9.55563E-29
1.19797E-01 8.25232E-29
1.22645E-01 7.10038E-29
1.25522E-01 6.08612E-29
1.28428E-01 5.19674E-29
1.31361E-01 4.42031E-29
1.34323E-01 3.74562E-29
1.37313E-01 3.16222E-29
1.40330E-01 2.66037E-29
1.43375E-01 2.23102E-29
1.46447E-01 1.86577E-29
1.49545E-01 1.55692E-29
1.52671E-01 1.29739E-29
1.55823E-01 1.08073E-29
1.59001E-01 9.01088E-30
1.62205E-01 7.53204E-30
1.65435E-01 6.32358E-30
1.68690E-01 5.34354E-30
1.71970E-01 4.55484E-30
1.75276E-01 3.92493E-30
1.78606E-01 3.42547E-30
1.81961E-01 3.03198E-30
1.85340E-01 2.72347E-30
1.88743E-01 2.48214E-30
1.92169E-01 2.29300E-30
1.95619E-01 2.14362E-30
1.99092E-01 2.02376E-30
2.02589E-01 1.92515E-30
2.06107E-01 1.84120E-30
2.09649E-01 1.76676E-30
2.13212E-01 1.69793E-30
2.16797E-01 1.63181E-30
2.20404E-01 1.56638E-30
2.24032E-01 1.50030E-30
2.27680E-01 1.43279E-30
2.31350E-01 1.36351E-30
2.35040E-01 1.29246E-30
2.38751E-01 1.21988E-30
2.42481E-01 1.14617E-30
2.46231E-01 1.07187E-30
2.50000E-01 9.97555E-31
2.53788E-01 9.23829E-31
2.57595E-01 8.51283E-31
2.61421E-01 7.80477E-31
2.65264E-01 7.11917E-31
2.69126E-01 6.46046E-31
2.73005E-01 5.83240E-31
2.76901E-01 5.23798E-31
2.80814E-01 4.67950E-31
2.84744E-01 4.15854E-31
2.88691E-01 3.67601E-31
2.92653E-01 3.23221E-31
2.96632E-01 2.82689E-31
3.00625E-01 2.45933E-31
3.04634E-01 2.12840E-31
3.08658E-01 1.83260E-31
3.12697E-01 1.57017E-31
3.16749E-01 1.33916E-31
3.20816E-01 1.13744E-31
3.24896E-01 9.62777E-32
3.28990E-01 8.12917E-32
3.33097E-01 6.85578E-32
3.37216E-01 5.78514E-32
3.41348E-01 4.89537E-32
3.45492E-01 4.16545E-32
3.49647E-01 3.57543E-32
3.53814E-01 3.10654E-32
3.57992E-01 2.74135E-32
3.62181E-01 2.46381E-32
3.66381E-01 2.25929E-32
3.70590E-01 2.11458E-32
3.74810E-01 2.01790E-32
3.79039E-01 1.95881E-32
3.83277E-01 1.92821E-32
3.87524E-01 1.91824E-32
3.91780E-01 1.92218E-32
3.96044E-01 1.93442E-32
4.00316E-01 1.95031E-32
4.04596E-01 1.96610E-32
4.08882E-01 1.97886E-32
4.13176E-01 1.98635E-32
4.17476E-01 1.98696E-32
4.21783E-01 1.97961E-32
4.26095E-01 1.96371E-32
4.30413E-01 1.93903E-32
4.34737E-01 1.90566E-32
4.39065E-01 1.86396E-32
4.43398E-01 1.81448E-32
4.47736E-01 1.75794E-32
4.52077E-01 1.69513E-32
4.56422E-01 1.62696E-32
4.60770E-01 1.55434E-32
4.65122E-01 1.47821E-32
4.69476E-01 1.39949E-32
4.73832E-01 1.31906E-32
4.78190E-01 1.23777E-32
4.82550E-01 1.15640E-32
4.86912E-01 1.07567E-32
4.91274E-01 9.96226E-33
4.95637E-01 9.18641E-33
5.00000E-01 8.43409E-33
5.04363E-01 7.70952E-33
5.08726E-01 7.01618E-33
5.13088E-01 6.35683E-33
5.17450E-01 5.73357E-33
5.21810E-01 5.14789E-33
5.26168E-01 4.60071E-33
5.30524E-01 4.09242E-33
5.34878E-01 3.62297E-33
5.39230E-01 3.19188E-33
5.43578E-01 2.79833E-33
5.47923E-01 2.44119E-33
5.52264E-01 2.11910E-33
5.56602E-01 1.83047E-33
5.60935E-01 1.57357E-33
5.65263E-01 1.34653E-33
5.69587E-01 1.14741E-33
5.73905E-01 9.74243E-34
5.78217E-01 8.25004E-34
5.82524E-01 6.97698E-34
5.86824E-01 5.90356E-34
5.91118E-01 5.01055E-34
5.95404E-01 4.27940E-34
5.99684E-01 3.69232E-34
6.03956E-01 3.23240E-34
6.08220E-01 2.88371E-34
6.12476E-01 2.63132E-34
6.16723E-01 2.46135E-34
6.20961E-01 2.36101E-34
6.25190E-01 2.31856E-34
6.29410E-01 2.32333E-34
6.33619E-01 2.36571E-34
6.37819E-01 2.43705E-34
6.42008E-01 2.52971E-34
6.46186E-01 2.63695E-34
6.50353E-01 2.75289E-34
6.54508E-01 2.87249E-34
6.58652E-01 2.99144E-34
6.62784E-01 3.10614E-34
6.66903E-01 3.21364E-34
6.71010E-01 3.31157E-34
6.75104E-01 3.39808E-34
6.79184E-01 3.47180E-34
6.83251E-01 3.53177E-34
6.87303E-01 3.57741E-34
6.91342E-01 3.60845E-34
6.95366E-01 3.62493E-34
6.99375E-01 3.62706E-34
7.03368E-01 3.61533E-34
7.07347E-01 3.59032E-34
7.11309E-01 3.55278E-34
7.15256E-01 3.50355E-34
7.19186E-01 3.44356E-34
7.23099E-01 3.37375E-34
7.26995E-01 3.29515E-34
7.30874E-01 3.20875E-34
7.34736E-01 3.11557E-34
7.38579E-01 3.01660E-34
7.42405E-01 2.91281E-34
7.46212E-01 2.80515E-34
7.50000E-01 2.69449E-34
7.53769E-01 2.58169E-34
7.57519E-01 2.46753E-34
7.61249E-01 2.35276E-34
7.64960E-01 2.23802E-34
7.68650E-01 2.12397E-34
7.72320E-01 2.01113E-34
7.75968E-01 1.90004E-34
7.79596E-01 1.79111E-34
7.83203E-01 1.68474E-34
7.86788E-01 1.58126E-34
7.90351E-01 1.48097E-34
7.93893E-01 1.38408E-34
7.97411E-01 1.29079E-34
8.00908E-01 1.20124E-34
8.04381E-01 1.11555E-34
8.07831E-01 1.03379E-34
8.11257E-01 9.56005E-35
8.14660E-01 8.82195E-35
8.18039E-01 8.12354E-35
8.21394E-01 7.46436E-35
8.24724E-01 6.84381E-35
8.28030E-01 6.26118E-35
8.31310E-01 5.71543E-35
8.34565E-01 5.20565E-35
8.37795E-01 4.73044E-35
8.40999E-01 4.28871E-35
8.44177E-01 3.87908E-35
8.47329E-01 3.50015E-35
8.50455E-01 3.15045E-35
8.53553E-01 2.82863E-35
8.56625E-01 2.53315E-35
8.59670E-01 2.26260E-35
8.62687E-01 2.01554E-35
8.65677E-01 1.79053E-35
8.68639E-01 1.58615E-35
8.71572E-01 1.40107E-35
8.74478E-01 1.23396E-35
8.77355E-01 1.08356E-35
8.80203E-01 9.48605E-36
8.83022E-01 8.27958E-36
8.85812E-01 7.20459E-36
8.88573E-01 6.25057E-36
8.91304E-01 5.40723E-36
8.94005E-01 4.66497E-36
8.96677E-01 4.01475E-36
8.99318E-01 3.44803E-36
9.01928E-01 2.95684E-36
9.04508E-01 2.53368E-36
9.07058E-01 2.17169E-36
9.09576E-01 1.86429E-36
9.12063E-01 1.60557E-36
9.14519E-01 1.39003E-36
9.16943E-01 1.21253E-36
9.19335E-01 1.06846E-36
9.21696E-01 9.53526E-37
9.24024E-01 8.63862E-37
9.26320E-01 7.95928E-37
9.28584E-01 7.46513E-37
9.30815E-01 7.12734E-37
9.33013E-01 6.91992E-37
9.35178E-01 6.81989E-37
9.37310E-01 6.80573E-37
9.39409E-01 6.86042E-37
9.41474E-01 6.96635E-37
9.43505E-01 7.11031E-37
9.45503E-01 7.27918E-37
9.47467E-01 7.46308E-37
9.49397E-01 7.65209E-37
9.51293E-01 7.83898E-37
9.53154E-01 8.01733E-37
9.54981E-01 8.18086E-37
9.56773E-01 8.32592E-37
9.58530E-01 8.44778E-37
9.60252E-01 8.54660E-37
9.61940E-01 8.61715E-37
9.63592E-01 8.66028E-37
9.65209E-01 8.67405E-37
9.66790E-01 8.65887E-37
9.68336E-01 8.61535E-37
9.69846E-01 8.54228E-37
9.71321E-01 8.44257E-37
9.72759E-01 8.31622E-37
9.74162E-01 8.16461E-37
9.75528E-01 7.98950E-37
9.76858E-01 7.79239E-37
9.78152E-01 7.57469E-37
9.79410E-01 7.33837E-37
9.80631E-01 7.08701E-37
9.81815E-01 6.81950E-37
9.82963E-01 6.54029E-37
9.84074E-01 6.24977E-37
9.85148E-01 5.95031E-37
9.86185E-01 5.64471E-37
9.87185E-01 5.33387E-37
9.88148E-01 5.01913E-37
9.89074E-01 4.70344E-37
9.89962E-01 4.38759E-37
9.90814E-01 4.07407E-37
9.91627E-01 3.76421E-37
9.92404E-01 3.45802E-37
9.93143E-01 3.15903E-37
9.93844E-01 2.86726E-37
9.94508E-01 2.58467E-37
9.95134E-01 2.31223E-37
9.95722E-01 2.05092E-37
9.96273E-01 1.80200E-37
9.96786E-01 1.56597E-37
9.97261E-01 1.34347E-37
9.97698E-01 1.13657E-37
9.98097E-01 9.45176E-38
9.98459E-01 7.69390E-38
9.98782E-01 6.11617E-38
9.99067E-01 4.70182E-38
9.99315E-01 3.47353E-38
9.99524E-01 2.42452E-38
9.99695E-01 1.56177E-38
9.99829E-01 8.87653E-39
9.99924E-01 4.05432E-39
9.99981E-01 1.14390E-39
1.00000E+00 1.68315E-40
