 #
 # Subroutine ELSEPA. Elastic scattering of electrons and positrons
 #                    by neutral atoms and positive ions
 #
 # Projectile: positron
 # Kinetic energy = 6.00000E+08 eV = 2.20496E+07 a.u.
 #
 # WARNING: High-energy factorization with free-atom DF screening.
 #          Absorption, polarization and exchange corrections are
 #          switched off.
 #          Phase shifts are calculated for the bare nucleus.
 #          Scattering amplitudes are not evaluated.
 #
 # Element: Bi,  Z =  83,  atomic weight = 2.08980E+02 g/mol
 #
 # Nuclear model: Fermi distribution
 #                Average radius = 6.34969E-13 cm
 #                Skin thickness = 5.46000E-14 cm
 #
 # Number of electrons = 83
 #
 # Total elastic cross section = 8.87696E-18 cm**2 = 3.17002E-01 a0**2
 # 1st transport cross section = 3.55230E-26 cm**2 = 1.26855E-09 a0**2
 # 2nd transport cross section = 1.06539E-25 cm**2 = 3.80459E-09 a0**2
 #
 #
 # Differential cross section:                       MU=(1-COS(THETA))/2
 #
 #  THETA        MU          DCS          DCS        Sherman      error
 #  (deg)                 (cm**2/sr)   (a0**2/sr)    function
 #----------------------------------------------------------------------
0.00000E+00 2.31521E-08
7.61557E-13 2.13678E-08
1.18994E-12 2.04651E-08
1.71346E-12 1.94477E-08
2.33225E-12 1.83533E-08
3.04617E-12 1.72174E-08
3.85530E-12 1.60708E-08
4.75964E-12 1.49392E-08
5.75917E-12 1.38412E-08
6.85391E-12 1.27909E-08
8.04379E-12 1.18002E-08
9.32893E-12 1.08746E-08
1.07092E-11 1.00163E-08
1.21847E-11 9.22515E-09
1.37554E-11 8.49916E-09
1.54213E-11 7.83514E-09
1.71823E-11 7.22919E-09
1.90386E-11 6.67701E-09
2.09900E-11 6.17425E-09
2.30367E-11 5.71580E-09
2.51785E-11 5.29827E-09
2.74156E-11 4.91793E-09
2.97478E-11 4.57114E-09
3.21752E-11 4.25460E-09
3.46979E-11 3.96526E-09
3.73157E-11 3.70043E-09
4.00286E-11 3.45766E-09
4.28368E-11 3.23475E-09
4.57402E-11 3.02978E-09
4.87388E-11 2.84092E-09
5.18325E-11 2.66645E-09
5.50215E-11 2.50529E-09
5.83057E-11 2.35620E-09
6.16850E-11 2.21809E-09
6.51595E-11 2.08507E-09
6.87293E-11 1.95745E-09
7.23943E-11 1.84162E-09
7.61544E-11 1.73628E-09
1.18991E-10 1.02203E-09
1.71347E-10 6.37192E-10
2.33223E-10 4.16893E-10
3.04617E-10 2.84575E-10
3.85531E-10 2.01486E-10
4.75965E-10 1.47060E-10
5.75917E-10 1.09956E-10
6.85389E-10 8.38138E-11
8.04380E-10 6.49473E-11
9.32891E-10 5.10328E-11
1.07092E-09 4.05918E-11
1.21847E-09 3.26462E-11
1.37554E-09 2.65269E-11
1.54213E-09 2.17732E-11
1.71823E-09 1.80198E-11
1.90386E-09 1.50393E-11
2.09900E-09 1.26587E-11
2.30367E-09 1.07382E-11
2.51785E-09 9.17424E-12
2.74156E-09 7.88852E-12
2.97478E-09 6.82232E-12
3.21752E-09 5.93154E-12
3.46978E-09 5.18254E-12
3.73156E-09 4.54912E-12
4.00286E-09 4.01056E-12
4.28368E-09 3.55022E-12
4.57402E-09 3.15464E-12
4.87388E-09 2.81294E-12
5.18326E-09 2.51626E-12
5.50215E-09 2.25771E-12
5.83057E-09 2.03153E-12
6.16850E-09 1.83299E-12
6.51596E-09 1.65759E-12
6.87293E-09 1.50250E-12
7.23942E-09 1.36594E-12
7.61544E-09 1.24528E-12
1.18991E-08 5.44251E-13
1.71347E-08 2.74420E-13
2.33223E-08 1.52847E-13
3.04617E-08 9.16788E-14
3.85531E-08 5.82680E-14
4.75965E-08 3.87965E-14
5.75917E-08 2.68294E-14
6.85389E-08 1.91435E-14
8.04380E-08 1.40237E-14
9.32891E-08 1.05062E-14
1.07092E-07 8.02471E-15
1.21847E-07 6.23352E-15
1.37554E-07 4.91473E-15
1.54213E-07 3.92656E-15
1.71823E-07 3.17444E-15
1.90386E-07 2.59385E-15
2.09900E-07 2.14003E-15
2.30367E-07 1.78119E-15
2.51785E-07 1.49447E-15
2.74156E-07 1.26317E-15
2.97478E-07 1.07492E-15
3.21752E-07 9.20469E-16
3.46978E-07 7.92789E-16
3.73156E-07 6.86500E-16
4.00286E-07 5.97445E-16
4.28368E-07 5.22377E-16
4.57402E-07 4.58740E-16
4.87388E-07 4.04506E-16
5.18325E-07 3.58058E-16
5.50215E-07 3.18091E-16
5.83057E-07 2.83549E-16
6.16850E-07 2.53572E-16
6.51596E-07 2.27454E-16
6.87293E-07 2.04615E-16
7.23942E-07 1.84572E-16
7.61543E-07 1.66925E-16
1.18991E-06 6.87853E-17
1.71347E-06 3.33003E-17
2.33223E-06 1.80208E-17
3.04617E-06 1.05820E-17
3.85531E-06 6.61432E-18
4.75964E-06 4.34338E-18
5.75916E-06 2.96840E-18
6.85388E-06 2.09679E-18
8.04378E-06 1.52278E-18
9.32888E-06 1.13237E-18
1.07092E-05 8.59392E-19
1.21846E-05 6.63910E-19
1.37553E-05 5.20963E-19
1.54212E-05 4.14486E-19
1.71822E-05 3.33865E-19
1.90385E-05 2.71741E-19
2.09899E-05 2.23715E-19
2.30365E-05 1.85806E-19
2.51783E-05 1.55543E-19
2.74153E-05 1.31156E-19
2.97475E-05 1.11346E-19
3.21749E-05 9.51368E-20
3.46974E-05 8.17797E-20
3.73152E-05 7.06962E-20
4.00281E-05 6.14355E-20
4.28362E-05 5.36455E-20
4.57395E-05 4.70511E-20
4.87380E-05 4.14367E-20
5.18317E-05 3.66322E-20
5.50205E-05 3.25019E-20
5.83045E-05 2.89367E-20
6.16838E-05 2.58473E-20
6.51582E-05 2.31600E-20
6.87277E-05 2.08139E-20
7.23925E-05 1.87582E-20
7.61524E-05 1.72340E-20
9.21439E-05 1.17842E-20
1.09658E-04 8.32622E-21
1.28695E-04 6.04716E-21
1.49255E-04 4.49515E-21
1.71338E-04 3.40891E-21
1.94942E-04 2.63023E-21
2.20070E-04 2.06031E-21
2.46720E-04 1.63547E-21
2.74892E-04 1.31362E-21
3.04586E-04 1.06623E-21
3.35803E-04 8.73619E-22
3.68542E-04 7.21881E-22
4.02802E-04 6.01082E-22
4.38585E-04 5.03986E-22
4.75889E-04 4.25253E-22
5.14715E-04 3.60901E-22
5.55063E-04 3.07911E-22
5.96931E-04 2.63984E-22
6.40321E-04 2.27339E-22
6.85233E-04 1.96592E-22
7.31665E-04 1.70656E-22
7.79618E-04 1.48666E-22
8.29092E-04 1.29938E-22
8.80086E-04 1.13917E-22
9.32601E-04 1.00156E-22
9.86636E-04 8.82924E-23
1.04219E-03 7.80271E-23
1.09927E-03 6.91158E-23
1.15786E-03 6.13551E-23
1.21797E-03 5.45768E-23
1.27961E-03 4.86401E-23
1.34276E-03 4.34267E-23
1.40743E-03 3.88374E-23
1.47362E-03 3.47879E-23
1.54133E-03 3.12069E-23
1.61056E-03 2.80337E-23
1.68131E-03 2.52161E-23
1.75357E-03 2.27098E-23
1.82735E-03 2.04764E-23
1.90265E-03 1.84829E-23
1.97947E-03 1.67006E-23
2.05780E-03 1.51048E-23
2.13765E-03 1.36740E-23
2.21902E-03 1.23894E-23
2.30190E-03 1.12345E-23
2.38630E-03 1.01951E-23
2.47222E-03 9.25841E-24
2.55965E-03 8.41344E-24
2.64859E-03 7.65042E-24
2.73905E-03 6.96073E-24
2.83103E-03 6.33672E-24
2.92452E-03 5.77167E-24
3.01952E-03 5.25956E-24
3.11604E-03 4.79507E-24
3.21407E-03 4.37346E-24
3.31362E-03 3.99051E-24
3.41468E-03 3.64244E-24
3.51725E-03 3.32586E-24
3.62133E-03 3.03777E-24
3.72692E-03 2.77545E-24
3.83403E-03 2.53648E-24
3.94265E-03 2.31866E-24
4.05278E-03 2.12004E-24
4.16442E-03 1.93885E-24
4.27757E-03 1.77348E-24
4.39223E-03 1.62250E-24
4.50840E-03 1.48462E-24
4.62608E-03 1.35864E-24
4.74527E-03 1.24352E-24
4.86597E-03 1.13829E-24
4.98817E-03 1.04207E-24
5.11188E-03 9.54076E-25
5.23711E-03 8.73583E-25
5.36383E-03 7.99939E-25
5.49207E-03 7.32550E-25
5.62181E-03 6.70876E-25
5.75306E-03 6.14425E-25
5.88581E-03 5.62750E-25
6.02007E-03 5.15441E-25
6.15583E-03 4.72127E-25
6.29310E-03 4.32467E-25
6.43187E-03 3.96152E-25
6.57214E-03 3.62899E-25
6.71392E-03 3.32448E-25
6.85720E-03 3.04564E-25
7.00198E-03 2.79031E-25
7.14827E-03 2.55650E-25
7.29605E-03 2.34241E-25
7.44534E-03 2.14639E-25
7.59612E-03 1.96691E-25
7.97965E-03 1.58180E-25
8.37255E-03 1.27307E-25
8.77480E-03 1.02570E-25
9.18641E-03 8.27606E-26
9.60736E-03 6.69046E-26
1.00376E-02 5.42188E-26
1.04773E-02 4.40722E-26
1.09262E-02 3.59569E-26
1.13844E-02 2.94642E-26
1.18520E-02 2.42660E-26
1.23288E-02 2.00986E-26
1.28150E-02 1.67509E-26
1.33104E-02 1.40542E-26
1.38150E-02 1.18736E-26
1.43290E-02 1.01019E-26
1.48521E-02 8.65389E-27
1.53845E-02 7.46218E-27
1.59262E-02 6.47355E-27
1.64770E-02 5.64617E-27
1.70371E-02 4.94722E-27
1.76063E-02 4.35107E-27
1.81848E-02 3.83775E-27
1.87724E-02 3.39176E-27
1.93692E-02 3.00104E-27
1.99751E-02 2.65630E-27
2.05901E-02 2.35029E-27
2.12143E-02 2.07739E-27
2.18476E-02 1.83320E-27
2.24900E-02 1.61424E-27
2.31415E-02 1.41772E-27
2.38021E-02 1.24136E-27
2.44717E-02 1.08327E-27
2.51504E-02 9.41826E-28
2.58382E-02 8.15607E-28
2.65349E-02 7.03342E-28
2.72407E-02 6.03868E-28
2.79555E-02 5.16109E-28
2.86793E-02 4.39051E-28
2.94120E-02 3.71736E-28
3.01537E-02 3.13259E-28
3.09043E-02 2.62757E-28
3.16639E-02 2.19416E-28
3.24324E-02 1.82466E-28
3.32098E-02 1.51184E-28
3.39961E-02 1.24897E-28
3.47912E-02 1.02978E-28
3.55952E-02 8.48508E-29
3.64081E-02 6.99893E-29
3.72297E-02 5.79149E-29
3.80602E-02 4.81974E-29
3.88995E-02 4.04527E-29
3.97476E-02 3.43410E-29
4.06044E-02 2.95645E-29
4.14700E-02 2.58648E-29
4.23443E-02 2.30198E-29
4.32273E-02 2.08411E-29
4.41190E-02 1.91705E-29
4.50194E-02 1.78773E-29
4.59284E-02 1.68549E-29
4.68461E-02 1.60184E-29
4.87074E-02 1.46527E-29
5.06030E-02 1.34248E-29
5.25328E-02 1.21607E-29
5.44967E-02 1.08060E-29
5.64946E-02 9.37752E-30
5.85262E-02 7.92730E-30
6.05914E-02 6.51805E-30
6.26901E-02 5.20728E-30
6.48222E-02 4.03883E-30
6.69873E-02 3.03958E-30
6.91854E-02 2.21971E-30
7.14163E-02 1.57515E-30
7.36799E-02 1.09110E-30
7.59760E-02 7.45784E-31
7.83043E-02 5.13969E-31
8.06647E-02 3.69878E-31
8.30571E-02 2.89381E-31
8.54812E-02 2.51443E-31
8.79369E-02 2.38898E-31
9.04240E-02 2.38663E-31
9.29422E-02 2.41547E-31
9.54915E-02 2.41771E-31
9.80716E-02 2.36341E-31
1.00682E-01 2.24366E-31
1.03323E-01 2.06401E-31
1.05995E-01 1.83870E-31
1.08696E-01 1.58586E-31
1.11427E-01 1.32404E-31
1.14188E-01 1.06966E-31
1.16978E-01 8.35700E-32
1.19797E-01 6.31018E-32
1.22645E-01 4.60443E-32
1.25522E-01 3.25225E-32
1.28428E-01 2.23751E-32
1.31361E-01 1.52360E-32
1.34323E-01 1.06154E-32
1.37313E-01 7.97053E-33
1.40330E-01 6.76444E-33
1.43375E-01 6.50798E-33
1.46447E-01 6.78721E-33
1.49545E-01 7.27689E-33
1.52671E-01 7.74261E-33
1.55823E-01 8.03459E-33
1.59001E-01 8.07573E-33
1.62205E-01 7.84673E-33
1.65435E-01 7.37026E-33
1.68690E-01 6.69584E-33
1.71970E-01 5.88668E-33
1.75276E-01 5.00901E-33
1.78606E-01 4.12414E-33
1.81961E-01 3.28333E-33
1.85340E-01 2.52502E-33
1.88743E-01 1.87403E-33
1.92169E-01 1.34238E-33
1.95619E-01 9.31058E-34
1.99092E-01 6.32354E-34
2.02589E-01 4.32487E-34
2.06107E-01 3.14080E-34
2.09649E-01 2.58367E-34
2.13212E-01 2.46995E-34
2.16797E-01 2.63341E-34
2.20404E-01 2.93387E-34
2.24032E-01 3.26146E-34
2.27680E-01 3.53753E-34
2.31350E-01 3.71272E-34
2.35040E-01 3.76314E-34
2.38751E-01 3.68547E-34
2.42481E-01 3.49166E-34
2.46231E-01 3.20366E-34
2.50000E-01 2.84879E-34
2.53788E-01 2.45574E-34
2.57595E-01 2.05164E-34
2.61421E-01 1.65986E-34
2.65264E-01 1.29882E-34
2.69126E-01 9.81441E-35
2.73005E-01 7.15263E-35
2.76901E-01 5.02955E-35
2.80814E-01 3.43117E-35
2.84744E-01 2.31255E-35
2.88691E-01 1.60759E-35
2.92653E-01 1.23839E-35
2.96632E-01 1.12346E-35
3.00625E-01 1.18427E-35
3.04634E-01 1.35016E-35
3.08658E-01 1.56152E-35
3.12697E-01 1.77146E-35
3.16749E-01 1.94611E-35
3.20816E-01 2.06398E-35
3.24896E-01 2.11446E-35
3.28990E-01 2.09597E-35
3.33097E-01 2.01382E-35
3.37216E-01 1.87811E-35
3.41348E-01 1.70175E-35
3.45492E-01 1.49875E-35
3.49647E-01 1.28288E-35
3.53814E-01 1.06656E-35
3.57992E-01 8.60232E-36
3.62181E-01 6.71943E-36
3.66381E-01 5.07235E-36
3.70590E-01 3.69260E-36
3.74810E-01 2.59007E-36
3.79039E-01 1.75674E-36
3.83277E-01 1.17065E-36
3.87524E-01 8.00117E-37
3.91780E-01 6.07690E-37
3.96044E-01 5.53667E-37
4.00316E-01 5.99174E-37
4.04596E-01 7.08201E-37
4.08882E-01 8.49421E-37
4.13176E-01 9.97013E-37
4.17476E-01 1.13115E-36
4.21783E-01 1.23785E-36
4.26095E-01 1.30862E-36
4.30413E-01 1.33974E-36
4.34737E-01 1.33143E-36
4.39065E-01 1.28691E-36
4.43398E-01 1.21158E-36
4.47736E-01 1.11212E-36
4.52077E-01 9.95756E-37
4.56422E-01 8.69700E-37
4.60770E-01 7.40631E-37
4.65122E-01 6.14362E-37
4.69476E-01 4.95677E-37
4.73832E-01 3.88143E-37
4.78190E-01 2.94214E-37
4.82550E-01 2.15211E-37
4.86912E-01 1.51487E-37
4.91274E-01 1.02583E-37
4.95637E-01 6.73929E-38
5.00000E-01 4.43445E-38
5.04363E-01 3.15922E-38
5.08726E-01 2.71385E-38
5.13088E-01 2.89821E-38
5.17450E-01 3.52306E-38
5.21810E-01 4.41650E-38
5.26168E-01 5.43021E-38
5.30524E-01 6.44256E-38
5.34878E-01 7.35878E-38
5.39230E-01 8.11160E-38
5.43578E-01 8.65762E-38
5.47923E-01 8.97556E-38
5.52264E-01 9.06377E-38
5.56602E-01 8.93340E-38
5.60935E-01 8.60865E-38
5.65263E-01 8.12007E-38
5.69587E-01 7.50294E-38
5.73905E-01 6.79398E-38
5.78217E-01 6.02953E-38
5.82524E-01 5.24330E-38
5.86824E-01 4.46452E-38
5.91118E-01 3.71859E-38
5.95404E-01 3.02502E-38
5.99684E-01 2.39823E-38
6.03956E-01 1.84814E-38
6.08220E-01 1.37959E-38
6.12476E-01 9.93511E-39
6.16723E-01 1.00000E-45
6.20961E-01 1.00000E-45
6.25190E-01 1.00000E-45
6.29410E-01 1.00000E-45
6.33619E-01 1.00000E-45
6.37819E-01 1.00000E-45
6.42008E-01 1.00000E-45
6.46186E-01 1.00000E-45
6.50353E-01 1.00000E-45
6.54508E-01 1.00000E-45
6.58652E-01 1.00000E-45
6.62784E-01 1.00000E-45
6.66903E-01 1.00000E-45
6.71010E-01 1.00000E-45
6.75104E-01 1.00000E-45
6.79184E-01 1.00000E-45
6.83251E-01 1.00000E-45
6.87303E-01 1.00000E-45
6.91342E-01 1.00000E-45
6.95366E-01 1.00000E-45
6.99375E-01 1.00000E-45
7.03368E-01 1.00000E-45
7.07347E-01 1.00000E-45
7.11309E-01 1.00000E-45
7.15256E-01 1.00000E-45
7.19186E-01 1.00000E-45
7.23099E-01 1.00000E-45
7.26995E-01 1.00000E-45
7.30874E-01 1.00000E-45
7.34736E-01 1.00000E-45
7.38579E-01 1.00000E-45
7.42405E-01 1.00000E-45
7.46212E-01 1.00000E-45
7.50000E-01 1.00000E-45
7.53769E-01 1.00000E-45
7.57519E-01 1.00000E-45
7.61249E-01 1.00000E-45
7.64960E-01 1.00000E-45
7.68650E-01 1.00000E-45
7.72320E-01 1.00000E-45
7.75968E-01 1.00000E-45
7.79596E-01 1.00000E-45
7.83203E-01 1.00000E-45
7.86788E-01 1.00000E-45
7.90351E-01 1.00000E-45
7.93893E-01 1.00000E-45
7.97411E-01 1.00000E-45
8.00908E-01 1.00000E-45
8.04381E-01 1.00000E-45
8.07831E-01 1.00000E-45
8.11257E-01 1.00000E-45
8.14660E-01 1.00000E-45
8.18039E-01 1.00000E-45
8.21394E-01 1.00000E-45
8.24724E-01 1.00000E-45
8.28030E-01 1.00000E-45
8.31310E-01 1.00000E-45
8.34565E-01 1.00000E-45
8.37795E-01 1.00000E-45
8.40999E-01 1.00000E-45
8.44177E-01 1.00000E-45
8.47329E-01 1.00000E-45
8.50455E-01 1.00000E-45
8.53553E-01 1.00000E-45
8.56625E-01 1.00000E-45
8.59670E-01 1.00000E-45
8.62687E-01 1.00000E-45
8.65677E-01 1.00000E-45
8.68639E-01 1.00000E-45
8.71572E-01 1.00000E-45
8.74478E-01 1.00000E-45
8.77355E-01 1.00000E-45
8.80203E-01 1.00000E-45
8.83022E-01 1.00000E-45
8.85812E-01 1.00000E-45
8.88573E-01 1.00000E-45
8.91304E-01 1.00000E-45
8.94005E-01 1.00000E-45
8.96677E-01 1.00000E-45
8.99318E-01 1.00000E-45
9.01928E-01 1.00000E-45
9.04508E-01 1.00000E-45
9.07058E-01 1.00000E-45
9.09576E-01 1.00000E-45
9.12063E-01 1.00000E-45
9.14519E-01 1.00000E-45
9.16943E-01 1.00000E-45
9.19335E-01 1.00000E-45
9.21696E-01 1.00000E-45
9.24024E-01 1.00000E-45
9.26320E-01 1.00000E-45
9.28584E-01 1.00000E-45
9.30815E-01 1.00000E-45
9.33013E-01 1.00000E-45
9.35178E-01 1.00000E-45
9.37310E-01 1.00000E-45
9.39409E-01 1.00000E-45
9.41474E-01 1.00000E-45
9.43505E-01 1.00000E-45
9.45503E-01 1.00000E-45
9.47467E-01 1.00000E-45
9.49397E-01 1.00000E-45
9.51293E-01 1.00000E-45
9.53154E-01 1.00000E-45
9.54981E-01 1.00000E-45
9.56773E-01 1.00000E-45
9.58530E-01 1.00000E-45
9.60252E-01 1.00000E-45
9.61940E-01 1.00000E-45
9.63592E-01 1.00000E-45
9.65209E-01 1.00000E-45
9.66790E-01 1.00000E-45
9.68336E-01 1.00000E-45
9.69846E-01 1.00000E-45
9.71321E-01 1.00000E-45
9.72759E-01 1.00000E-45
9.74162E-01 1.00000E-45
9.75528E-01 1.00000E-45
9.76858E-01 1.00000E-45
9.78152E-01 1.00000E-45
9.79410E-01 1.00000E-45
9.80631E-01 1.00000E-45
9.81815E-01 1.00000E-45
9.82963E-01 1.00000E-45
9.84074E-01 1.00000E-45
9.85148E-01 1.00000E-45
9.86185E-01 1.00000E-45
9.87185E-01 1.00000E-45
9.88148E-01 1.00000E-45
9.89074E-01 1.00000E-45
9.89962E-01 1.00000E-45
9.90814E-01 1.00000E-45
9.91627E-01 1.00000E-45
9.92404E-01 1.00000E-45
9.93143E-01 1.00000E-45
9.93844E-01 1.00000E-45
9.94508E-01 1.00000E-45
9.95134E-01 1.00000E-45
9.95722E-01 1.00000E-45
9.96273E-01 1.00000E-45
9.96786E-01 1.00000E-45
9.97261E-01 1.00000E-45
9.97698E-01 1.00000E-45
9.98097E-01 1.00000E-45
9.98459E-01 1.00000E-45
9.98782E-01 1.00000E-45
9.99067E-01 1.00000E-45
9.99315E-01 1.00000E-45
9.99524E-01 1.00000E-45
9.99695E-01 1.00000E-45
9.99829E-01 1.00000E-45
9.99924E-01 1.00000E-45
9.99981E-01 1.00000E-45
1.00000E+00 1.00000E-45
