 #
 # Subroutine ELSEPA. Elastic scattering of electrons and positrons
 #                    by neutral atoms and positive ions
 #
 # Projectile: positron
 # Kinetic energy = 7.00000E+07 eV = 2.57245E+06 a.u.
 #
 # WARNING: High-energy factorization with free-atom DF screening.
 #          Absorption, polarization and exchange corrections are
 #          switched off.
 #          Phase shifts are calculated for the bare nucleus.
 #          Scattering amplitudes are not evaluated.
 #
 # Element: Bi,  Z =  83,  atomic weight = 2.08980E+02 g/mol
 #
 # Nuclear model: Fermi distribution
 #                Average radius = 6.34969E-13 cm
 #                Skin thickness = 5.46000E-14 cm
 #
 # Number of electrons = 83
 #
 # Total elastic cross section = 8.88892E-18 cm**2 = 3.17429E-01 a0**2
 # 1st transport cross section = 2.45404E-24 cm**2 = 8.76354E-08 a0**2
 # 2nd transport cross section = 7.24469E-24 cm**2 = 2.58712E-07 a0**2
 #
 #
 # Differential cross section:                       MU=(1-COS(THETA))/2
 #
 #  THETA        MU          DCS          DCS        Sherman      error
 #  (deg)                 (cm**2/sr)   (a0**2/sr)    function
 #----------------------------------------------------------------------
0.00000E+00 3.19199E-10
7.61557E-13 3.18834E-10
1.18994E-12 3.18630E-10
1.71346E-12 3.18381E-10
2.33225E-12 3.18087E-10
3.04617E-12 3.17749E-10
3.85530E-12 3.17367E-10
4.75964E-12 3.16941E-10
5.75917E-12 3.16471E-10
6.85391E-12 3.15958E-10
8.04379E-12 3.15402E-10
9.32893E-12 3.14803E-10
1.07092E-11 3.14162E-10
1.21847E-11 3.13480E-10
1.37554E-11 3.12756E-10
1.54213E-11 3.11991E-10
1.71823E-11 3.11187E-10
1.90386E-11 3.10342E-10
2.09900E-11 3.09459E-10
2.30367E-11 3.08537E-10
2.51785E-11 3.07577E-10
2.74156E-11 3.06581E-10
2.97478E-11 3.05547E-10
3.21752E-11 3.04478E-10
3.46979E-11 3.03373E-10
3.73157E-11 3.02234E-10
4.00286E-11 3.01061E-10
4.28368E-11 2.99856E-10
4.57402E-11 2.98618E-10
4.87388E-11 2.97337E-10
5.18325E-11 2.96026E-10
5.50215E-11 2.94689E-10
5.83057E-11 2.93328E-10
6.16850E-11 2.91942E-10
6.51595E-11 2.90533E-10
6.87293E-11 2.89103E-10
7.23943E-11 2.87648E-10
7.61544E-11 2.86139E-10
1.18991E-10 2.70008E-10
1.71347E-10 2.52346E-10
2.33223E-10 2.33952E-10
3.04617E-10 2.15364E-10
3.85531E-10 1.97254E-10
4.75965E-10 1.80008E-10
5.75917E-10 1.63816E-10
6.85389E-10 1.48820E-10
8.04380E-10 1.35129E-10
9.32891E-10 1.22723E-10
1.07092E-09 1.11475E-10
1.21847E-09 1.01379E-10
1.37554E-09 9.23381E-11
1.54213E-09 8.42290E-11
1.71823E-09 7.69557E-11
1.90386E-09 7.04489E-11
2.09900E-09 6.46207E-11
2.30367E-09 5.93671E-11
2.51785E-09 5.46463E-11
2.74156E-09 5.03965E-11
2.97478E-09 4.65541E-11
3.21752E-09 4.30707E-11
3.46978E-09 3.99151E-11
3.73156E-09 3.70498E-11
4.00286E-09 3.44309E-11
4.28368E-09 3.20427E-11
4.57402E-09 2.98611E-11
4.87388E-09 2.77165E-11
5.18326E-09 2.57788E-11
5.50215E-09 2.40465E-11
5.83057E-09 2.24932E-11
6.16850E-09 2.10965E-11
6.51596E-09 1.98370E-11
6.87293E-09 1.86983E-11
7.23942E-09 1.76487E-11
7.61544E-09 1.65274E-11
1.18991E-08 9.31339E-12
1.71347E-08 5.64592E-12
2.33223E-08 3.63359E-12
3.04617E-08 2.44415E-12
3.85531E-08 1.71189E-12
4.75965E-08 1.23695E-12
5.75917E-08 9.14463E-13
6.85389E-08 6.88739E-13
8.04380E-08 5.27760E-13
9.32891E-08 4.10615E-13
1.07092E-07 3.23628E-13
1.21847E-07 2.58425E-13
1.37554E-07 2.08733E-13
1.54213E-07 1.70563E-13
1.71823E-07 1.40861E-13
1.90386E-07 1.17458E-13
2.09900E-07 9.87792E-14
2.30367E-07 8.36742E-14
2.51785E-07 7.13731E-14
2.74156E-07 6.12745E-14
2.97478E-07 5.29155E-14
3.21752E-07 4.59446E-14
3.46978E-07 4.00950E-14
3.73156E-07 3.51526E-14
4.00286E-07 3.09450E-14
4.28368E-07 2.73493E-14
4.57402E-07 2.42624E-14
4.87388E-07 2.15835E-14
5.18325E-07 1.92763E-14
5.50215E-07 1.72831E-14
5.83057E-07 1.55276E-14
6.16850E-07 1.39914E-14
6.51596E-07 1.26485E-14
6.87293E-07 1.14571E-14
7.23942E-07 1.04020E-14
7.61543E-07 9.47032E-15
1.18991E-06 4.10529E-15
1.71347E-06 2.05440E-15
2.33223E-06 1.13801E-15
3.04617E-06 6.80307E-16
3.85531E-06 4.31453E-16
4.75964E-06 2.86752E-16
5.75916E-06 1.97952E-16
6.85388E-06 1.41004E-16
8.04378E-06 1.03122E-16
9.32888E-06 7.71337E-17
1.07092E-05 5.88281E-17
1.21846E-05 4.56378E-17
1.37553E-05 3.59413E-17
1.54212E-05 2.86860E-17
1.71822E-05 2.31709E-17
1.90385E-05 1.89063E-17
2.09899E-05 1.55999E-17
2.30365E-05 1.29829E-17
2.51783E-05 1.08887E-17
2.74153E-05 9.19736E-18
2.97475E-05 7.82068E-18
3.21749E-05 6.69211E-18
3.46974E-05 5.76054E-18
3.73152E-05 4.98632E-18
4.00281E-05 4.33844E-18
4.28362E-05 3.79268E-18
4.57395E-05 3.33007E-18
4.87380E-05 2.93569E-18
5.18317E-05 2.59779E-18
5.50205E-05 2.30699E-18
5.83045E-05 2.05570E-18
6.16838E-05 1.83770E-18
6.51582E-05 1.64790E-18
6.87277E-05 1.48202E-18
7.23925E-05 1.33652E-18
7.61524E-05 1.20847E-18
9.21439E-05 8.26808E-19
1.09658E-04 5.84499E-19
1.28695E-04 4.24770E-19
1.49255E-04 3.16009E-19
1.71338E-04 2.39910E-19
1.94942E-04 1.85379E-19
2.20070E-04 1.45483E-19
2.46720E-04 1.15754E-19
2.74892E-04 9.32381E-20
3.04586E-04 7.59331E-20
3.35803E-04 6.24589E-20
3.68542E-04 5.18412E-20
4.02802E-04 4.33841E-20
4.38585E-04 3.65811E-20
4.75889E-04 3.10589E-20
5.14715E-04 2.65392E-20
5.55063E-04 2.28111E-20
5.96931E-04 1.97144E-20
6.40321E-04 1.71250E-20
6.85233E-04 1.49464E-20
7.31665E-04 1.31029E-20
7.79618E-04 1.15346E-20
8.29092E-04 1.01937E-20
8.80086E-04 9.04166E-21
9.32601E-04 8.04761E-21
9.86636E-04 7.18624E-21
1.04219E-03 6.43684E-21
1.09927E-03 5.78245E-21
1.15786E-03 5.20896E-21
1.21797E-03 4.70469E-21
1.27961E-03 4.25986E-21
1.34276E-03 3.86625E-21
1.40743E-03 3.51697E-21
1.47362E-03 3.20616E-21
1.54133E-03 2.92885E-21
1.61056E-03 2.68082E-21
1.68131E-03 2.45841E-21
1.75357E-03 2.25855E-21
1.82735E-03 2.07852E-21
1.90265E-03 1.91604E-21
1.97947E-03 1.76908E-21
2.05780E-03 1.63589E-21
2.13765E-03 1.51497E-21
2.21902E-03 1.40499E-21
2.30190E-03 1.30477E-21
2.38630E-03 1.21331E-21
2.47222E-03 1.12969E-21
2.55965E-03 1.05312E-21
2.64859E-03 9.82917E-22
2.73905E-03 9.18441E-22
2.83103E-03 8.59146E-22
2.92452E-03 8.04542E-22
3.01952E-03 7.54191E-22
3.11604E-03 7.07701E-22
3.21407E-03 6.64724E-22
3.31362E-03 6.24947E-22
3.41468E-03 5.88088E-22
3.51725E-03 5.53895E-22
3.62133E-03 5.22140E-22
3.72692E-03 4.92617E-22
3.83403E-03 4.65142E-22
3.94265E-03 4.39548E-22
4.05278E-03 4.15680E-22
4.16442E-03 3.93403E-22
4.27757E-03 3.72591E-22
4.39223E-03 3.53130E-22
4.50840E-03 3.34916E-22
4.62608E-03 3.17856E-22
4.74527E-03 3.01862E-22
4.86597E-03 2.86857E-22
4.98817E-03 2.72768E-22
5.11188E-03 2.59529E-22
5.23711E-03 2.47079E-22
5.36383E-03 2.35365E-22
5.49207E-03 2.24335E-22
5.62181E-03 2.13930E-22
5.75306E-03 2.04116E-22
5.88581E-03 1.94855E-22
6.02007E-03 1.86110E-22
6.15583E-03 1.77846E-22
6.29310E-03 1.70033E-22
6.43187E-03 1.62641E-22
6.57214E-03 1.55643E-22
6.71392E-03 1.49014E-22
6.85720E-03 1.42732E-22
7.00198E-03 1.36775E-22
7.14827E-03 1.31123E-22
7.29605E-03 1.25758E-22
7.44534E-03 1.20661E-22
7.59612E-03 1.15819E-22
7.97965E-03 1.04724E-22
8.37255E-03 9.49162E-23
8.77480E-03 8.62198E-23
9.18641E-03 7.84878E-23
9.60736E-03 7.15952E-23
1.00376E-02 6.54353E-23
1.04773E-02 5.99171E-23
1.09262E-02 5.49622E-23
1.13844E-02 5.05034E-23
1.18520E-02 4.64824E-23
1.23288E-02 4.28489E-23
1.28150E-02 3.95592E-23
1.33104E-02 3.65752E-23
1.38150E-02 3.38635E-23
1.43290E-02 3.13950E-23
1.48521E-02 2.91442E-23
1.53845E-02 2.70886E-23
1.59262E-02 2.52083E-23
1.64770E-02 2.34857E-23
1.70371E-02 2.19055E-23
1.76063E-02 2.04537E-23
1.81848E-02 1.91181E-23
1.87724E-02 1.78879E-23
1.93692E-02 1.67532E-23
1.99751E-02 1.57054E-23
2.05901E-02 1.47367E-23
2.12143E-02 1.38401E-23
2.18476E-02 1.30092E-23
2.24900E-02 1.22385E-23
2.31415E-02 1.15228E-23
2.38021E-02 1.08575E-23
2.44717E-02 1.02384E-23
2.51504E-02 9.66187E-24
2.58382E-02 9.12437E-24
2.65349E-02 8.62284E-24
2.72407E-02 8.15445E-24
2.79555E-02 7.71664E-24
2.86793E-02 7.30706E-24
2.94120E-02 6.92358E-24
3.01537E-02 6.56426E-24
3.09043E-02 6.22731E-24
3.16639E-02 5.91110E-24
3.24324E-02 5.61414E-24
3.32098E-02 5.33505E-24
3.39961E-02 5.07257E-24
3.47912E-02 4.82555E-24
3.55952E-02 4.59292E-24
3.64081E-02 4.37371E-24
3.72297E-02 4.16699E-24
3.80602E-02 3.97195E-24
3.88995E-02 3.78781E-24
3.97476E-02 3.61386E-24
4.06044E-02 3.44943E-24
4.14700E-02 3.29393E-24
4.23443E-02 3.14678E-24
4.32273E-02 3.00746E-24
4.41190E-02 2.87548E-24
4.50194E-02 2.75039E-24
4.59284E-02 2.63178E-24
4.68461E-02 2.51924E-24
4.87074E-02 2.31098E-24
5.06030E-02 2.12298E-24
5.25328E-02 1.95298E-24
5.44967E-02 1.79897E-24
5.64946E-02 1.65922E-24
5.85262E-02 1.53220E-24
6.05914E-02 1.41658E-24
6.26901E-02 1.31117E-24
6.48222E-02 1.21494E-24
6.69873E-02 1.12696E-24
6.91854E-02 1.04641E-24
7.14163E-02 9.72581E-25
7.36799E-02 9.04818E-25
7.59760E-02 8.42549E-25
7.83043E-02 7.85262E-25
8.06647E-02 7.32499E-25
8.30571E-02 6.83850E-25
8.54812E-02 6.38945E-25
8.79369E-02 5.97454E-25
9.04240E-02 5.59079E-25
9.29422E-02 5.23553E-25
9.54915E-02 4.90632E-25
9.80716E-02 4.60098E-25
1.00682E-01 4.31753E-25
1.03323E-01 4.05417E-25
1.05995E-01 3.80928E-25
1.08696E-01 3.58138E-25
1.11427E-01 3.36911E-25
1.14188E-01 3.17127E-25
1.16978E-01 2.98672E-25
1.19797E-01 2.81446E-25
1.22645E-01 2.65354E-25
1.25522E-01 2.50313E-25
1.28428E-01 2.36244E-25
1.31361E-01 2.23075E-25
1.34323E-01 2.10742E-25
1.37313E-01 1.99184E-25
1.40330E-01 1.88345E-25
1.43375E-01 1.78176E-25
1.46447E-01 1.68629E-25
1.49545E-01 1.59662E-25
1.52671E-01 1.51233E-25
1.55823E-01 1.43308E-25
1.59001E-01 1.35851E-25
1.62205E-01 1.28833E-25
1.65435E-01 1.22222E-25
1.68690E-01 1.15994E-25
1.71970E-01 1.10122E-25
1.75276E-01 1.04585E-25
1.78606E-01 9.93602E-26
1.81961E-01 9.44282E-26
1.85340E-01 8.97705E-26
1.88743E-01 8.53701E-26
1.92169E-01 8.12110E-26
1.95619E-01 7.72784E-26
1.99092E-01 7.35584E-26
2.02589E-01 7.00382E-26
2.06107E-01 6.67059E-26
2.09649E-01 6.35501E-26
2.13212E-01 6.05605E-26
2.16797E-01 5.77273E-26
2.20404E-01 5.50414E-26
2.24032E-01 5.24942E-26
2.27680E-01 5.00778E-26
2.31350E-01 4.77847E-26
2.35040E-01 4.56078E-26
2.38751E-01 4.35407E-26
2.42481E-01 4.15772E-26
2.46231E-01 3.97116E-26
2.50000E-01 3.79383E-26
2.53788E-01 3.62525E-26
2.57595E-01 3.46492E-26
2.61421E-01 3.31240E-26
2.65264E-01 3.16727E-26
2.69126E-01 3.02914E-26
2.73005E-01 2.89763E-26
2.76901E-01 2.77239E-26
2.80814E-01 2.65309E-26
2.84744E-01 2.53942E-26
2.88691E-01 2.43109E-26
2.92653E-01 2.32782E-26
2.96632E-01 2.22935E-26
3.00625E-01 2.13544E-26
3.04634E-01 2.04586E-26
3.08658E-01 1.96038E-26
3.12697E-01 1.87879E-26
3.16749E-01 1.80092E-26
3.20816E-01 1.72656E-26
3.24896E-01 1.65554E-26
3.28990E-01 1.58771E-26
3.33097E-01 1.52290E-26
3.37216E-01 1.46097E-26
3.41348E-01 1.40177E-26
3.45492E-01 1.34518E-26
3.49647E-01 1.29107E-26
3.53814E-01 1.23932E-26
3.57992E-01 1.18982E-26
3.62181E-01 1.14247E-26
3.66381E-01 1.09715E-26
3.70590E-01 1.05378E-26
3.74810E-01 1.01226E-26
3.79039E-01 9.72511E-27
3.83277E-01 9.34448E-27
3.87524E-01 8.97993E-27
3.91780E-01 8.63073E-27
3.96044E-01 8.29617E-27
4.00316E-01 7.97559E-27
4.04596E-01 7.66836E-27
4.08882E-01 7.37386E-27
4.13176E-01 7.09154E-27
4.17476E-01 6.82083E-27
4.21783E-01 6.56124E-27
4.26095E-01 6.31225E-27
4.30413E-01 6.07341E-27
4.34737E-01 5.84426E-27
4.39065E-01 5.62439E-27
4.43398E-01 5.41338E-27
4.47736E-01 5.21084E-27
4.52077E-01 5.01642E-27
4.56422E-01 4.82976E-27
4.60770E-01 4.65053E-27
4.65122E-01 4.47840E-27
4.69476E-01 4.31308E-27
4.73832E-01 4.15427E-27
4.78190E-01 4.00170E-27
4.82550E-01 3.85510E-27
4.86912E-01 3.71423E-27
4.91274E-01 3.57883E-27
4.95637E-01 3.44869E-27
5.00000E-01 3.32358E-27
5.04363E-01 3.20330E-27
5.08726E-01 3.08764E-27
5.13088E-01 2.97641E-27
5.17450E-01 2.86944E-27
5.21810E-01 2.76654E-27
5.26168E-01 2.66755E-27
5.30524E-01 2.57231E-27
5.34878E-01 2.48067E-27
5.39230E-01 2.39249E-27
5.43578E-01 2.30761E-27
5.47923E-01 2.22592E-27
5.52264E-01 2.14728E-27
5.56602E-01 2.07157E-27
5.60935E-01 1.99867E-27
5.65263E-01 1.92848E-27
5.69587E-01 1.86087E-27
5.73905E-01 1.79577E-27
5.78217E-01 1.73305E-27
5.82524E-01 1.67264E-27
5.86824E-01 1.61443E-27
5.91118E-01 1.55835E-27
5.95404E-01 1.50431E-27
5.99684E-01 1.45223E-27
6.03956E-01 1.40204E-27
6.08220E-01 1.35366E-27
6.12476E-01 1.30702E-27
6.16723E-01 1.26206E-27
6.20961E-01 1.21871E-27
6.25190E-01 1.17692E-27
6.29410E-01 1.13661E-27
6.33619E-01 1.09774E-27
6.37819E-01 1.06025E-27
6.42008E-01 1.02409E-27
6.46186E-01 9.89201E-28
6.50353E-01 9.55547E-28
6.54508E-01 9.23078E-28
6.58652E-01 8.91748E-28
6.62784E-01 8.61516E-28
6.66903E-01 8.32340E-28
6.71010E-01 8.04182E-28
6.75104E-01 7.77003E-28
6.79184E-01 7.50768E-28
6.83251E-01 7.25442E-28
6.87303E-01 7.00991E-28
6.91342E-01 6.77384E-28
6.95366E-01 6.54590E-28
6.99375E-01 6.32578E-28
7.03368E-01 6.11321E-28
7.07347E-01 5.90791E-28
7.11309E-01 5.70962E-28
7.15256E-01 5.51808E-28
7.19186E-01 5.33306E-28
7.23099E-01 5.15431E-28
7.26995E-01 4.98162E-28
7.30874E-01 4.81476E-28
7.34736E-01 4.65353E-28
7.38579E-01 4.49773E-28
7.42405E-01 4.34716E-28
7.46212E-01 4.20164E-28
7.50000E-01 4.06099E-28
7.53769E-01 3.92505E-28
7.57519E-01 3.79363E-28
7.61249E-01 3.66659E-28
7.64960E-01 3.54377E-28
7.68650E-01 3.42503E-28
7.72320E-01 3.31021E-28
7.75968E-01 3.19919E-28
7.79596E-01 3.09184E-28
7.83203E-01 2.98802E-28
7.86788E-01 2.88761E-28
7.90351E-01 2.79050E-28
7.93893E-01 2.69658E-28
7.97411E-01 2.60572E-28
8.00908E-01 2.51783E-28
8.04381E-01 2.43282E-28
8.07831E-01 2.35056E-28
8.11257E-01 2.27099E-28
8.14660E-01 2.19400E-28
8.18039E-01 2.11950E-28
8.21394E-01 2.04741E-28
8.24724E-01 1.97766E-28
8.28030E-01 1.91016E-28
8.31310E-01 1.84483E-28
8.34565E-01 1.78161E-28
8.37795E-01 1.72042E-28
8.40999E-01 1.66119E-28
8.44177E-01 1.60387E-28
8.47329E-01 1.54838E-28
8.50455E-01 1.49466E-28
8.53553E-01 1.44267E-28
8.56625E-01 1.39233E-28
8.59670E-01 1.34360E-28
8.62687E-01 1.29643E-28
8.65677E-01 1.25075E-28
8.68639E-01 1.20653E-28
8.71572E-01 1.16372E-28
8.74478E-01 1.12226E-28
8.77355E-01 1.08212E-28
8.80203E-01 1.04326E-28
8.83022E-01 1.00563E-28
8.85812E-01 9.69185E-29
8.88573E-01 9.33898E-29
8.91304E-01 8.99730E-29
8.94005E-01 8.66643E-29
8.96677E-01 8.34603E-29
8.99318E-01 8.03578E-29
9.01928E-01 7.73535E-29
9.04508E-01 7.44443E-29
9.07058E-01 7.16272E-29
9.09576E-01 6.88993E-29
9.12063E-01 6.62579E-29
9.14519E-01 6.37002E-29
9.16943E-01 6.12237E-29
9.19335E-01 5.88258E-29
9.21696E-01 5.65041E-29
9.24024E-01 5.42563E-29
9.26320E-01 5.20801E-29
9.28584E-01 4.99734E-29
9.30815E-01 4.79340E-29
9.33013E-01 4.59599E-29
9.35178E-01 4.40492E-29
9.37310E-01 4.21999E-29
9.39409E-01 4.04102E-29
9.41474E-01 3.86784E-29
9.43505E-01 3.70027E-29
9.45503E-01 3.53815E-29
9.47467E-01 3.38132E-29
9.49397E-01 3.22963E-29
9.51293E-01 3.08294E-29
9.53154E-01 2.94109E-29
9.54981E-01 2.80395E-29
9.56773E-01 2.67138E-29
9.58530E-01 2.54327E-29
9.60252E-01 2.41949E-29
9.61940E-01 2.29991E-29
9.63592E-01 2.18442E-29
9.65209E-01 2.07292E-29
9.66790E-01 1.96529E-29
9.68336E-01 1.86143E-29
9.69846E-01 1.76125E-29
9.71321E-01 1.66465E-29
9.72759E-01 1.57154E-29
9.74162E-01 1.48182E-29
9.75528E-01 1.39542E-29
9.76858E-01 1.31225E-29
9.78152E-01 1.23224E-29
9.79410E-01 1.15531E-29
9.80631E-01 1.08138E-29
9.81815E-01 1.01039E-29
9.82963E-01 9.42278E-30
9.84074E-01 8.76971E-30
9.85148E-01 8.14413E-30
9.86185E-01 7.54543E-30
9.87185E-01 6.97308E-30
9.88148E-01 6.42653E-30
9.89074E-01 5.90528E-30
9.89962E-01 5.40885E-30
9.90814E-01 4.93677E-30
9.91627E-01 4.48862E-30
9.92404E-01 4.06398E-30
9.93143E-01 3.66246E-30
9.93844E-01 3.28369E-30
9.94508E-01 2.92731E-30
9.95134E-01 2.59301E-30
9.95722E-01 2.28048E-30
9.96273E-01 1.98942E-30
9.96786E-01 1.71958E-30
9.97261E-01 1.47071E-30
9.97698E-01 1.24257E-30
9.98097E-01 1.03496E-30
9.98459E-01 8.47688E-31
9.98782E-01 6.80587E-31
9.99067E-01 5.33501E-31
9.99315E-01 4.06298E-31
9.99524E-01 2.98859E-31
9.99695E-01 2.11088E-31
9.99829E-01 1.42905E-31
9.99924E-01 9.42467E-32
9.99981E-01 6.50695E-32
1.00000E+00 5.53465E-32
