 #
 # Subroutine ELSEPA. Elastic scattering of electrons and positrons
 #                    by neutral atoms and positive ions
 #
 # Projectile: positron
 # Kinetic energy = 4.00000E+06 eV = 1.46997E+05 a.u.
 #
 # WARNING: High-energy factorization with free-atom DF screening.
 #          Absorption, polarization and exchange corrections are
 #          switched off.
 #          Phase shifts are calculated for the bare nucleus.
 #          Scattering amplitudes are not evaluated.
 #
 # Element: Bi,  Z =  83,  atomic weight = 2.08980E+02 g/mol
 #
 # Nuclear model: Fermi distribution
 #                Average radius = 6.34969E-13 cm
 #                Skin thickness = 5.46000E-14 cm
 #
 # Number of electrons = 83
 #
 # Total elastic cross section = 8.99152E-18 cm**2 = 3.21093E-01 a0**2
 # 1st transport cross section = 3.90591E-22 cm**2 = 1.39483E-05 a0**2
 # 2nd transport cross section = 1.11988E-21 cm**2 = 3.99915E-05 a0**2
 #
 #
 # Differential cross section:                       MU=(1-COS(THETA))/2
 #
 #  THETA        MU          DCS          DCS        Sherman      error
 #  (deg)                 (cm**2/sr)   (a0**2/sr)    function
 #----------------------------------------------------------------------
0.00000E+00 1.30645E-12
7.61557E-13 1.30644E-12
1.18994E-12 1.30644E-12
1.71346E-12 1.30643E-12
2.33225E-12 1.30643E-12
3.04617E-12 1.30642E-12
3.85530E-12 1.30642E-12
4.75964E-12 1.30641E-12
5.75917E-12 1.30640E-12
6.85391E-12 1.30639E-12
8.04379E-12 1.30638E-12
9.32893E-12 1.30637E-12
1.07092E-11 1.30636E-12
1.21847E-11 1.30635E-12
1.37554E-11 1.30634E-12
1.54213E-11 1.30632E-12
1.71823E-11 1.30631E-12
1.90386E-11 1.30629E-12
2.09900E-11 1.30628E-12
2.30367E-11 1.30626E-12
2.51785E-11 1.30624E-12
2.74156E-11 1.30622E-12
2.97478E-11 1.30621E-12
3.21752E-11 1.30619E-12
3.46979E-11 1.30617E-12
3.73157E-11 1.30615E-12
4.00286E-11 1.30612E-12
4.28368E-11 1.30610E-12
4.57402E-11 1.30608E-12
4.87388E-11 1.30605E-12
5.18325E-11 1.30603E-12
5.50215E-11 1.30600E-12
5.83057E-11 1.30598E-12
6.16850E-11 1.30595E-12
6.51595E-11 1.30592E-12
6.87293E-11 1.30589E-12
7.23943E-11 1.30586E-12
7.61544E-11 1.30583E-12
1.18991E-10 1.30549E-12
1.71347E-10 1.30508E-12
2.33223E-10 1.30459E-12
3.04617E-10 1.30402E-12
3.85531E-10 1.30339E-12
4.75965E-10 1.30267E-12
5.75917E-10 1.30189E-12
6.85389E-10 1.30103E-12
8.04380E-10 1.30009E-12
9.32891E-10 1.29909E-12
1.07092E-09 1.29801E-12
1.21847E-09 1.29686E-12
1.37554E-09 1.29564E-12
1.54213E-09 1.29434E-12
1.71823E-09 1.29297E-12
1.90386E-09 1.29154E-12
2.09900E-09 1.29003E-12
2.30367E-09 1.28845E-12
2.51785E-09 1.28680E-12
2.74156E-09 1.28509E-12
2.97478E-09 1.28330E-12
3.21752E-09 1.28145E-12
3.46978E-09 1.27952E-12
3.73156E-09 1.27754E-12
4.00286E-09 1.27548E-12
4.28368E-09 1.27336E-12
4.57402E-09 1.27117E-12
4.87388E-09 1.26892E-12
5.18326E-09 1.26660E-12
5.50215E-09 1.26422E-12
5.83057E-09 1.26178E-12
6.16850E-09 1.25927E-12
6.51596E-09 1.25671E-12
6.87293E-09 1.25408E-12
7.23942E-09 1.25139E-12
7.61544E-09 1.24864E-12
1.18991E-08 1.21802E-12
1.71347E-08 1.18233E-12
2.33223E-08 1.14232E-12
3.04617E-08 1.09900E-12
3.85531E-08 1.05328E-12
4.75965E-08 1.00601E-12
5.75917E-08 9.57948E-13
6.85389E-08 9.09455E-13
8.04380E-08 8.61468E-13
9.32891E-08 8.14483E-13
1.07092E-07 7.68890E-13
1.21847E-07 7.24979E-13
1.37554E-07 6.82767E-13
1.54213E-07 6.42501E-13
1.71823E-07 6.04377E-13
1.90386E-07 5.68417E-13
2.09900E-07 5.34601E-13
2.30367E-07 5.02848E-13
2.51785E-07 4.72972E-13
2.74156E-07 4.45067E-13
2.97478E-07 4.19031E-13
3.21752E-07 3.94756E-13
3.46978E-07 3.72135E-13
3.73156E-07 3.50975E-13
4.00286E-07 3.31239E-13
4.28368E-07 3.12858E-13
4.57402E-07 2.95732E-13
4.87388E-07 2.79769E-13
5.18325E-07 2.64860E-13
5.50215E-07 2.50894E-13
5.83057E-07 2.37854E-13
6.16850E-07 2.25670E-13
6.51596E-07 2.14275E-13
6.87293E-07 2.03608E-13
7.23942E-07 1.93575E-13
7.61543E-07 1.84159E-13
1.18991E-06 1.15188E-13
1.71347E-06 7.58390E-14
2.33223E-06 5.16311E-14
3.04617E-06 3.63751E-14
3.85531E-06 2.63701E-14
4.75964E-06 1.95999E-14
5.75916E-06 1.48908E-14
6.85388E-06 1.15068E-14
8.04378E-06 9.05478E-15
9.32888E-06 7.23450E-15
1.07092E-05 5.85482E-15
1.21846E-05 4.79009E-15
1.37553E-05 3.95092E-15
1.54212E-05 3.28419E-15
1.71822E-05 2.75083E-15
1.90385E-05 2.31843E-15
2.09899E-05 1.96916E-15
2.30365E-05 1.68165E-15
2.51783E-05 1.44276E-15
2.74153E-05 1.24479E-15
2.97475E-05 1.07898E-15
3.21749E-05 9.39466E-16
3.46974E-05 8.22102E-16
3.73152E-05 7.22773E-16
4.00281E-05 6.38348E-16
4.28362E-05 5.66178E-16
4.57395E-05 5.04101E-16
4.87380E-05 4.50400E-16
5.18317E-05 4.03688E-16
5.50205E-05 3.62844E-16
5.83045E-05 3.27077E-16
6.16838E-05 2.95654E-16
6.51582E-05 2.67962E-16
6.87277E-05 2.43482E-16
7.23925E-05 2.21747E-16
7.61524E-05 2.02410E-16
9.21439E-05 1.43385E-16
1.09658E-04 1.04386E-16
1.28695E-04 7.77368E-17
1.49255E-04 5.91347E-17
1.71338E-04 4.57905E-17
1.94942E-04 3.60111E-17
2.20070E-04 2.86994E-17
2.46720E-04 2.31493E-17
2.74892E-04 1.88789E-17
3.04586E-04 1.55485E-17
3.35803E-04 1.29200E-17
3.68542E-04 1.08222E-17
4.02802E-04 9.13008E-18
4.38585E-04 7.75580E-18
4.75889E-04 6.63021E-18
5.14715E-04 5.70135E-18
5.55063E-04 4.92938E-18
5.96931E-04 4.28319E-18
6.40321E-04 3.73934E-18
6.85233E-04 3.27917E-18
7.31665E-04 2.88769E-18
7.79618E-04 2.55291E-18
8.29092E-04 2.26525E-18
8.80086E-04 2.01687E-18
9.32601E-04 1.80162E-18
9.86636E-04 1.61435E-18
1.04219E-03 1.45078E-18
1.09927E-03 1.30740E-18
1.15786E-03 1.18124E-18
1.21797E-03 1.06990E-18
1.27961E-03 9.71361E-19
1.34276E-03 8.83889E-19
1.40743E-03 8.06026E-19
1.47362E-03 7.36516E-19
1.54133E-03 6.74305E-19
1.61056E-03 6.18505E-19
1.68131E-03 5.68343E-19
1.75357E-03 5.23148E-19
1.82735E-03 4.82339E-19
1.90265E-03 4.45406E-19
1.97947E-03 4.11927E-19
2.05780E-03 3.81522E-19
2.13765E-03 3.53860E-19
2.21902E-03 3.28649E-19
2.30190E-03 3.05630E-19
2.38630E-03 2.84580E-19
2.47222E-03 2.65303E-19
2.55965E-03 2.47623E-19
2.64859E-03 2.31385E-19
2.73905E-03 2.16451E-19
2.83103E-03 2.02692E-19
2.92452E-03 1.90005E-19
3.01952E-03 1.78290E-19
3.11604E-03 1.67461E-19
3.21407E-03 1.57437E-19
3.31362E-03 1.48147E-19
3.41468E-03 1.39529E-19
3.51725E-03 1.31525E-19
3.62133E-03 1.24084E-19
3.72692E-03 1.17160E-19
3.83403E-03 1.10710E-19
3.94265E-03 1.04694E-19
4.05278E-03 9.90795E-20
4.16442E-03 9.38347E-20
4.27757E-03 8.89307E-20
4.39223E-03 8.43413E-20
4.50840E-03 8.00424E-20
4.62608E-03 7.60124E-20
4.74527E-03 7.22317E-20
4.86597E-03 6.86820E-20
4.98817E-03 6.53467E-20
5.11188E-03 6.22103E-20
5.23711E-03 5.92586E-20
5.36383E-03 5.64791E-20
5.49207E-03 5.38599E-20
5.62181E-03 5.13900E-20
5.75306E-03 4.90594E-20
5.88581E-03 4.68585E-20
6.02007E-03 4.47791E-20
6.15583E-03 4.28131E-20
6.29310E-03 4.09533E-20
6.43187E-03 3.91928E-20
6.57214E-03 3.75255E-20
6.71392E-03 3.59452E-20
6.85720E-03 3.44469E-20
7.00198E-03 3.30254E-20
7.14827E-03 3.16761E-20
7.29605E-03 3.03946E-20
7.44534E-03 2.91769E-20
7.59612E-03 2.80191E-20
7.97965E-03 2.53650E-20
8.37255E-03 2.30162E-20
8.77480E-03 2.09315E-20
9.18641E-03 1.90762E-20
9.60736E-03 1.74208E-20
1.00376E-02 1.59401E-20
1.04773E-02 1.46124E-20
1.09262E-02 1.34192E-20
1.13844E-02 1.23446E-20
1.18520E-02 1.13746E-20
1.23288E-02 1.04975E-20
1.28150E-02 9.70268E-21
1.33104E-02 8.98119E-21
1.38150E-02 8.32506E-21
1.43290E-02 7.72729E-21
1.48521E-02 7.18180E-21
1.53845E-02 6.68324E-21
1.59262E-02 6.22688E-21
1.64770E-02 5.80850E-21
1.70371E-02 5.42438E-21
1.76063E-02 5.07121E-21
1.81848E-02 4.74609E-21
1.87724E-02 4.44638E-21
1.93692E-02 4.16976E-21
1.99751E-02 3.91413E-21
2.05901E-02 3.67760E-21
2.12143E-02 3.45851E-21
2.18476E-02 3.25534E-21
2.24900E-02 3.06673E-21
2.31415E-02 2.89146E-21
2.38021E-02 2.72840E-21
2.44717E-02 2.57656E-21
2.51504E-02 2.43503E-21
2.58382E-02 2.30299E-21
2.65349E-02 2.17969E-21
2.72407E-02 2.06444E-21
2.79555E-02 1.95663E-21
2.86793E-02 1.85568E-21
2.94120E-02 1.76110E-21
3.01537E-02 1.67239E-21
3.09043E-02 1.58914E-21
3.16639E-02 1.51095E-21
3.24324E-02 1.43745E-21
3.32098E-02 1.36832E-21
3.39961E-02 1.30324E-21
3.47912E-02 1.24194E-21
3.55952E-02 1.18416E-21
3.64081E-02 1.12966E-21
3.72297E-02 1.07822E-21
3.80602E-02 1.02964E-21
3.88995E-02 9.83735E-22
3.97476E-02 9.40324E-22
4.06044E-02 8.99251E-22
4.14700E-02 8.60367E-22
4.23443E-02 8.23535E-22
4.32273E-02 7.88628E-22
4.41190E-02 7.55526E-22
4.50194E-02 7.24119E-22
4.59284E-02 6.94305E-22
4.68461E-02 6.65989E-22
4.87074E-02 6.13502E-22
5.06030E-02 5.66017E-22
5.25328E-02 5.22976E-22
5.44967E-02 4.83894E-22
5.64946E-02 4.48344E-22
5.85262E-02 4.15954E-22
6.05914E-02 3.86394E-22
6.26901E-02 3.59375E-22
6.48222E-02 3.34642E-22
6.69873E-02 3.11968E-22
6.91854E-02 2.91152E-22
7.14163E-02 2.72016E-22
7.36799E-02 2.54403E-22
7.59760E-02 2.38168E-22
7.83043E-02 2.23187E-22
8.06647E-02 2.09346E-22
8.30571E-02 1.96543E-22
8.54812E-02 1.84687E-22
8.79369E-02 1.73696E-22
9.04240E-02 1.63495E-22
9.29422E-02 1.54019E-22
9.54915E-02 1.45208E-22
9.80716E-02 1.37005E-22
1.00682E-01 1.29363E-22
1.03323E-01 1.22236E-22
1.05995E-01 1.15583E-22
1.08696E-01 1.09368E-22
1.11427E-01 1.03557E-22
1.14188E-01 9.81185E-23
1.16978E-01 9.30252E-23
1.19797E-01 8.82510E-23
1.22645E-01 8.37727E-23
1.25522E-01 7.95688E-23
1.28428E-01 7.56196E-23
1.31361E-01 7.19067E-23
1.34323E-01 6.84139E-23
1.37313E-01 6.51256E-23
1.40330E-01 6.20280E-23
1.43375E-01 5.91081E-23
1.46447E-01 5.63537E-23
1.49545E-01 5.37541E-23
1.52671E-01 5.12990E-23
1.55823E-01 4.89789E-23
1.59001E-01 4.67852E-23
1.62205E-01 4.47097E-23
1.65435E-01 4.27451E-23
1.68690E-01 4.08843E-23
1.71970E-01 3.91210E-23
1.75276E-01 3.74491E-23
1.78606E-01 3.58631E-23
1.81961E-01 3.43578E-23
1.85340E-01 3.29284E-23
1.88743E-01 3.15704E-23
1.92169E-01 3.02796E-23
1.95619E-01 2.90522E-23
1.99092E-01 2.78844E-23
2.02589E-01 2.67730E-23
2.06107E-01 2.57146E-23
2.09649E-01 2.47064E-23
2.13212E-01 2.37455E-23
2.16797E-01 2.28293E-23
2.20404E-01 2.19555E-23
2.24032E-01 2.11216E-23
2.27680E-01 2.03256E-23
2.31350E-01 1.95655E-23
2.35040E-01 1.88393E-23
2.38751E-01 1.81454E-23
2.42481E-01 1.74819E-23
2.46231E-01 1.68473E-23
2.50000E-01 1.62402E-23
2.53788E-01 1.56592E-23
2.57595E-01 1.51029E-23
2.61421E-01 1.45702E-23
2.65264E-01 1.40598E-23
2.69126E-01 1.35707E-23
2.73005E-01 1.31018E-23
2.76901E-01 1.26521E-23
2.80814E-01 1.22207E-23
2.84744E-01 1.18068E-23
2.88691E-01 1.14095E-23
2.92653E-01 1.10281E-23
2.96632E-01 1.06617E-23
3.00625E-01 1.03098E-23
3.04634E-01 9.97155E-24
3.08658E-01 9.64645E-24
3.12697E-01 9.33386E-24
3.16749E-01 9.03322E-24
3.20816E-01 8.74399E-24
3.24896E-01 8.46567E-24
3.28990E-01 8.19778E-24
3.33097E-01 7.93986E-24
3.37216E-01 7.69149E-24
3.41348E-01 7.45224E-24
3.45492E-01 7.22172E-24
3.49647E-01 6.99957E-24
3.53814E-01 6.78542E-24
3.57992E-01 6.57894E-24
3.62181E-01 6.37981E-24
3.66381E-01 6.18772E-24
3.70590E-01 6.00238E-24
3.74810E-01 5.82351E-24
3.79039E-01 5.65086E-24
3.83277E-01 5.48417E-24
3.87524E-01 5.32321E-24
3.91780E-01 5.16773E-24
3.96044E-01 5.01752E-24
4.00316E-01 4.87237E-24
4.04596E-01 4.73208E-24
4.08882E-01 4.59647E-24
4.13176E-01 4.46535E-24
4.17476E-01 4.33855E-24
4.21783E-01 4.21591E-24
4.26095E-01 4.09726E-24
4.30413E-01 3.98245E-24
4.34737E-01 3.87134E-24
4.39065E-01 3.76379E-24
4.43398E-01 3.65967E-24
4.47736E-01 3.55884E-24
4.52077E-01 3.46119E-24
4.56422E-01 3.36660E-24
4.60770E-01 3.27496E-24
4.65122E-01 3.18617E-24
4.69476E-01 3.10011E-24
4.73832E-01 3.01670E-24
4.78190E-01 2.93584E-24
4.82550E-01 2.85743E-24
4.86912E-01 2.78139E-24
4.91274E-01 2.70763E-24
4.95637E-01 2.63608E-24
5.00000E-01 2.56666E-24
5.04363E-01 2.49931E-24
5.08726E-01 2.43394E-24
5.13088E-01 2.37049E-24
5.17450E-01 2.30889E-24
5.21810E-01 2.24908E-24
5.26168E-01 2.19099E-24
5.30524E-01 2.13458E-24
5.34878E-01 2.07978E-24
5.39230E-01 2.02655E-24
5.43578E-01 1.97483E-24
5.47923E-01 1.92458E-24
5.52264E-01 1.87573E-24
5.56602E-01 1.82826E-24
5.60935E-01 1.78210E-24
5.65263E-01 1.73723E-24
5.69587E-01 1.69359E-24
5.73905E-01 1.65116E-24
5.78217E-01 1.60988E-24
5.82524E-01 1.56974E-24
5.86824E-01 1.53068E-24
5.91118E-01 1.49268E-24
5.95404E-01 1.45571E-24
5.99684E-01 1.41972E-24
6.03956E-01 1.38470E-24
6.08220E-01 1.35060E-24
6.12476E-01 1.31741E-24
6.16723E-01 1.28509E-24
6.20961E-01 1.25363E-24
6.25190E-01 1.22298E-24
6.29410E-01 1.19314E-24
6.33619E-01 1.16407E-24
6.37819E-01 1.13575E-24
6.42008E-01 1.10816E-24
6.46186E-01 1.08128E-24
6.50353E-01 1.05509E-24
6.54508E-01 1.02957E-24
6.58652E-01 1.00469E-24
6.62784E-01 9.80437E-25
6.66903E-01 9.56799E-25
6.71010E-01 9.33754E-25
6.75104E-01 9.11286E-25
6.79184E-01 8.89378E-25
6.83251E-01 8.68015E-25
6.87303E-01 8.47180E-25
6.91342E-01 8.26860E-25
6.95366E-01 8.07039E-25
6.99375E-01 7.87704E-25
7.03368E-01 7.68842E-25
7.07347E-01 7.50438E-25
7.11309E-01 7.32482E-25
7.15256E-01 7.14960E-25
7.19186E-01 6.97862E-25
7.23099E-01 6.81174E-25
7.26995E-01 6.64887E-25
7.30874E-01 6.48990E-25
7.34736E-01 6.33471E-25
7.38579E-01 6.18322E-25
7.42405E-01 6.03532E-25
7.46212E-01 5.89092E-25
7.50000E-01 5.74992E-25
7.53769E-01 5.61224E-25
7.57519E-01 5.47779E-25
7.61249E-01 5.34648E-25
7.64960E-01 5.21825E-25
7.68650E-01 5.09300E-25
7.72320E-01 4.97066E-25
7.75968E-01 4.85116E-25
7.79596E-01 4.73442E-25
7.83203E-01 4.62038E-25
7.86788E-01 4.50897E-25
7.90351E-01 4.40011E-25
7.93893E-01 4.29376E-25
7.97411E-01 4.18984E-25
8.00908E-01 4.08830E-25
8.04381E-01 3.98907E-25
8.07831E-01 3.89211E-25
8.11257E-01 3.79735E-25
8.14660E-01 3.70474E-25
8.18039E-01 3.61424E-25
8.21394E-01 3.52579E-25
8.24724E-01 3.43934E-25
8.28030E-01 3.35484E-25
8.31310E-01 3.27225E-25
8.34565E-01 3.19152E-25
8.37795E-01 3.11262E-25
8.40999E-01 3.03549E-25
8.44177E-01 2.96010E-25
8.47329E-01 2.88640E-25
8.50455E-01 2.81436E-25
8.53553E-01 2.74394E-25
8.56625E-01 2.67510E-25
8.59670E-01 2.60781E-25
8.62687E-01 2.54203E-25
8.65677E-01 2.47773E-25
8.68639E-01 2.41487E-25
8.71572E-01 2.35344E-25
8.74478E-01 2.29338E-25
8.77355E-01 2.23468E-25
8.80203E-01 2.17730E-25
8.83022E-01 2.12121E-25
8.85812E-01 2.06639E-25
8.88573E-01 2.01282E-25
8.91304E-01 1.96045E-25
8.94005E-01 1.90928E-25
8.96677E-01 1.85927E-25
8.99318E-01 1.81040E-25
9.01928E-01 1.76265E-25
9.04508E-01 1.71599E-25
9.07058E-01 1.67040E-25
9.09576E-01 1.62586E-25
9.12063E-01 1.58235E-25
9.14519E-01 1.53985E-25
9.16943E-01 1.49834E-25
9.19335E-01 1.45780E-25
9.21696E-01 1.41821E-25
9.24024E-01 1.37955E-25
9.26320E-01 1.34181E-25
9.28584E-01 1.30497E-25
9.30815E-01 1.26900E-25
9.33013E-01 1.23391E-25
9.35178E-01 1.19966E-25
9.37310E-01 1.16624E-25
9.39409E-01 1.13364E-25
9.41474E-01 1.10185E-25
9.43505E-01 1.07085E-25
9.45503E-01 1.04062E-25
9.47467E-01 1.01116E-25
9.49397E-01 9.82449E-26
9.51293E-01 9.54474E-26
9.53154E-01 9.27226E-26
9.54981E-01 9.00690E-26
9.56773E-01 8.74857E-26
9.58530E-01 8.49716E-26
9.60252E-01 8.25254E-26
9.61940E-01 8.01463E-26
9.63592E-01 7.78331E-26
9.65209E-01 7.55849E-26
9.66790E-01 7.34008E-26
9.68336E-01 7.12797E-26
9.69846E-01 6.92209E-26
9.71321E-01 6.72234E-26
9.72759E-01 6.52865E-26
9.74162E-01 6.34092E-26
9.75528E-01 6.15909E-26
9.76858E-01 5.98307E-26
9.78152E-01 5.81280E-26
9.79410E-01 5.64820E-26
9.80631E-01 5.48921E-26
9.81815E-01 5.33575E-26
9.82963E-01 5.18777E-26
9.84074E-01 5.04521E-26
9.85148E-01 4.90800E-26
9.86185E-01 4.77610E-26
9.87185E-01 4.64944E-26
9.88148E-01 4.52798E-26
9.89074E-01 4.41167E-26
9.89962E-01 4.30046E-26
9.90814E-01 4.19430E-26
9.91627E-01 4.09316E-26
9.92404E-01 3.99698E-26
9.93143E-01 3.90574E-26
9.93844E-01 3.81940E-26
9.94508E-01 3.73791E-26
9.95134E-01 3.66125E-26
9.95722E-01 3.58940E-26
9.96273E-01 3.52231E-26
9.96786E-01 3.45996E-26
9.97261E-01 3.40233E-26
9.97698E-01 3.34940E-26
9.98097E-01 3.30113E-26
9.98459E-01 3.25753E-26
9.98782E-01 3.21855E-26
9.99067E-01 3.18420E-26
9.99315E-01 3.15446E-26
9.99524E-01 3.12931E-26
9.99695E-01 3.10875E-26
9.99829E-01 3.09277E-26
9.99924E-01 3.08136E-26
9.99981E-01 3.07451E-26
1.00000E+00 3.07223E-26
