 #
 # Subroutine ELSEPA. Elastic scattering of electrons and positrons
 #                    by neutral atoms and positive ions
 #
 # Projectile: positron
 # Kinetic energy = 3.50000E+08 eV = 1.28623E+07 a.u.
 #
 # WARNING: High-energy factorization with free-atom DF screening.
 #          Absorption, polarization and exchange corrections are
 #          switched off.
 #          Phase shifts are calculated for the bare nucleus.
 #          Scattering amplitudes are not evaluated.
 #
 # Element:  F,  Z =   9,  atomic weight = 1.89984E+01 g/mol
 #
 # Nuclear model: Fermi distribution
 #                Average radius = 2.85511E-13 cm
 #                Skin thickness = 5.46000E-14 cm
 #
 # Number of electrons =  9
 #
 # Total elastic cross section = 2.84519E-19 cm**2 = 1.01603E-02 a0**2
 # 1st transport cross section = 1.46231E-27 cm**2 = 5.22200E-11 a0**2
 # 2nd transport cross section = 4.38048E-27 cm**2 = 1.56430E-10 a0**2
 #
 #
 # Differential cross section:                       MU=(1-COS(THETA))/2
 #
 #  THETA        MU          DCS          DCS        Sherman      error
 #  (deg)                 (cm**2/sr)   (a0**2/sr)    function
 #----------------------------------------------------------------------
0.00000E+00 1.52819E-10
7.61557E-13 1.51369E-10
1.18994E-12 1.50564E-10
1.71346E-12 1.49590E-10
2.33225E-12 1.48450E-10
3.04617E-12 1.47152E-10
3.85530E-12 1.45700E-10
4.75964E-12 1.44102E-10
5.75917E-12 1.42367E-10
6.85391E-12 1.40501E-10
8.04379E-12 1.38515E-10
9.32893E-12 1.36413E-10
1.07092E-11 1.34212E-10
1.21847E-11 1.31911E-10
1.37554E-11 1.29342E-10
1.54213E-11 1.26770E-10
1.71823E-11 1.24282E-10
1.90386E-11 1.21883E-10
2.09900E-11 1.19135E-10
2.30367E-11 1.16337E-10
2.51785E-11 1.13669E-10
2.74156E-11 1.11131E-10
2.97478E-11 1.08306E-10
3.21752E-11 1.05425E-10
3.46979E-11 1.02702E-10
3.73157E-11 1.00131E-10
4.00286E-11 9.73505E-11
4.28368E-11 9.45062E-11
4.57402E-11 9.18316E-11
4.87388E-11 8.93167E-11
5.18325E-11 8.66664E-11
5.50215E-11 8.39488E-11
5.83057E-11 8.13997E-11
6.16850E-11 7.90074E-11
6.51595E-11 7.65436E-11
6.87293E-11 7.40133E-11
7.23943E-11 7.16417E-11
7.61544E-11 6.94174E-11
1.18991E-10 4.91805E-11
1.71347E-10 3.43521E-11
2.33223E-10 2.39105E-11
3.04617E-10 1.67319E-11
3.85531E-10 1.18347E-11
4.75965E-10 8.48252E-12
5.75917E-10 6.17578E-12
6.85389E-10 4.56696E-12
8.04380E-10 3.43272E-12
9.32891E-10 2.62018E-12
1.07092E-09 2.03045E-12
1.21847E-09 1.59566E-12
1.37554E-09 1.27025E-12
1.54213E-09 1.02442E-12
1.71823E-09 8.35254E-13
1.90386E-09 6.88272E-13
2.09900E-09 5.72636E-13
2.30367E-09 4.80582E-13
2.51785E-09 4.06633E-13
2.74156E-09 3.46605E-13
2.97478E-09 2.97443E-13
3.21752E-09 2.56884E-13
3.46978E-09 2.23091E-13
3.73156E-09 1.94791E-13
4.00286E-09 1.70918E-13
4.28368E-09 1.50631E-13
4.57402E-09 1.33331E-13
4.87388E-09 1.18459E-13
5.18326E-09 1.05633E-13
5.50215E-09 9.45261E-14
5.83057E-09 8.48360E-14
6.16850E-09 7.63782E-14
6.51596E-09 6.89513E-14
6.87293E-09 6.24076E-14
7.23942E-09 5.66338E-14
7.61544E-09 5.15035E-14
1.18991E-08 2.21779E-14
1.71347E-08 1.10267E-14
2.33223E-08 6.06338E-15
3.04617E-08 3.59541E-15
3.85531E-08 2.26112E-15
4.75965E-08 1.49066E-15
5.75917E-08 1.02143E-15
6.85389E-08 7.22800E-16
8.04380E-08 5.25591E-16
9.32891E-08 3.91198E-16
1.07092E-07 2.97099E-16
1.21847E-07 2.29642E-16
1.37554E-07 1.80276E-16
1.54213E-07 1.43482E-16
1.71823E-07 1.15609E-16
1.90386E-07 9.41849E-17
2.09900E-07 7.74995E-17
2.30367E-07 6.43495E-17
2.51785E-07 5.38732E-17
2.74156E-07 4.54442E-17
2.97478E-07 3.86008E-17
3.21752E-07 3.29981E-17
3.46978E-07 2.83759E-17
3.73156E-07 2.45353E-17
4.00286E-07 2.13229E-17
4.28368E-07 1.86194E-17
4.57402E-07 1.63311E-17
4.87388E-07 1.43835E-17
5.18325E-07 1.27178E-17
5.50215E-07 1.12863E-17
5.83057E-07 1.00507E-17
6.16850E-07 8.97963E-18
6.51596E-07 8.04752E-18
6.87293E-07 7.23327E-18
7.23942E-07 6.51944E-18
7.61543E-07 5.89154E-18
1.18991E-06 2.41313E-18
1.71347E-06 1.16371E-18
2.33223E-06 6.28118E-19
3.04617E-06 3.68177E-19
3.85531E-06 2.29842E-19
4.75964E-06 1.50793E-19
5.75916E-06 1.02989E-19
6.85388E-06 7.27144E-20
8.04378E-06 5.27902E-20
9.32888E-06 3.92461E-20
1.07092E-05 2.97800E-20
1.21846E-05 2.30034E-20
1.37553E-05 1.80492E-20
1.54212E-05 1.43597E-20
1.71822E-05 1.15665E-20
1.90385E-05 9.42036E-21
2.09899E-05 7.74991E-21
2.30365E-05 6.43380E-21
2.51783E-05 5.38554E-21
2.74153E-05 4.54230E-21
2.97475E-05 3.85780E-21
3.21749E-05 3.29750E-21
3.46974E-05 2.83532E-21
3.73152E-05 2.45135E-21
4.00281E-05 2.13023E-21
4.28362E-05 1.86001E-21
4.57395E-05 1.63131E-21
4.87380E-05 1.43670E-21
5.18317E-05 1.27025E-21
5.50205E-05 1.12723E-21
5.83045E-05 1.00377E-21
6.16838E-05 8.96760E-22
6.51582E-05 8.03637E-22
6.87277E-05 7.22292E-22
7.23925E-05 6.50984E-22
7.61524E-05 5.86768E-22
9.21439E-05 4.00480E-22
1.09658E-04 2.82544E-22
1.28695E-04 2.04963E-22
1.49255E-04 1.52247E-22
1.71338E-04 1.15421E-22
1.94942E-04 8.90708E-23
2.20070E-04 6.98168E-23
2.46720E-04 5.54859E-23
2.74892E-04 4.46427E-23
3.04586E-04 3.63173E-23
3.35803E-04 2.98401E-23
3.68542E-04 2.47404E-23
4.02802E-04 2.06815E-23
4.38585E-04 1.74188E-23
4.75889E-04 1.47724E-23
5.14715E-04 1.26078E-23
5.55063E-04 1.08238E-23
5.96931E-04 9.34276E-24
6.40321E-04 8.10522E-24
6.85233E-04 7.06476E-24
7.31665E-04 6.18496E-24
7.79618E-04 5.43702E-24
8.29092E-04 4.79797E-24
8.80086E-04 4.24938E-24
9.32601E-04 3.77636E-24
9.86636E-04 3.36678E-24
1.04219E-03 3.01074E-24
1.09927E-03 2.70007E-24
1.15786E-03 2.42805E-24
1.21797E-03 2.18906E-24
1.27961E-03 1.97843E-24
1.34276E-03 1.79222E-24
1.40743E-03 1.62713E-24
1.47362E-03 1.48037E-24
1.54133E-03 1.34955E-24
1.61056E-03 1.23266E-24
1.68131E-03 1.12796E-24
1.75357E-03 1.03397E-24
1.82735E-03 9.49399E-25
1.90265E-03 8.73153E-25
1.97947E-03 8.04270E-25
2.05780E-03 7.41921E-25
2.13765E-03 6.85379E-25
2.21902E-03 6.34014E-25
2.30190E-03 5.87269E-25
2.38630E-03 5.44661E-25
2.47222E-03 5.05760E-25
2.55965E-03 4.70190E-25
2.64859E-03 4.37616E-25
2.73905E-03 4.07745E-25
2.83103E-03 3.80313E-25
2.92452E-03 3.55089E-25
3.01952E-03 3.31864E-25
3.11604E-03 3.10453E-25
3.21407E-03 2.90691E-25
3.31362E-03 2.72430E-25
3.41468E-03 2.55535E-25
3.51725E-03 2.39889E-25
3.62133E-03 2.25383E-25
3.72692E-03 2.11920E-25
3.83403E-03 1.99412E-25
3.94265E-03 1.87782E-25
4.05278E-03 1.76956E-25
4.16442E-03 1.66869E-25
4.27757E-03 1.57464E-25
4.39223E-03 1.48687E-25
4.50840E-03 1.40488E-25
4.62608E-03 1.32823E-25
4.74527E-03 1.25651E-25
4.86597E-03 1.18937E-25
4.98817E-03 1.12645E-25
5.11188E-03 1.06745E-25
5.23711E-03 1.01209E-25
5.36383E-03 9.60097E-26
5.49207E-03 9.11243E-26
5.62181E-03 8.65304E-26
5.75306E-03 8.22079E-26
5.88581E-03 7.81382E-26
6.02007E-03 7.43042E-26
6.15583E-03 7.06899E-26
6.29310E-03 6.72808E-26
6.43187E-03 6.40635E-26
6.57214E-03 6.10253E-26
6.71392E-03 5.81549E-26
6.85720E-03 5.54414E-26
7.00198E-03 5.28749E-26
7.14827E-03 5.04463E-26
7.29605E-03 4.81469E-26
7.44534E-03 4.59689E-26
7.59612E-03 4.39048E-26
7.97965E-03 3.91992E-26
8.37255E-03 3.50688E-26
8.77480E-03 3.14336E-26
9.18641E-03 2.82263E-26
9.60736E-03 2.53896E-26
1.00376E-02 2.28749E-26
1.04773E-02 2.06410E-26
1.09262E-02 1.86523E-26
1.13844E-02 1.68785E-26
1.18520E-02 1.52933E-26
1.23288E-02 1.38743E-26
1.28150E-02 1.26017E-26
1.33104E-02 1.14587E-26
1.38150E-02 1.04305E-26
1.43290E-02 9.50412E-27
1.48521E-02 8.66837E-27
1.53845E-02 7.91334E-27
1.59262E-02 7.23036E-27
1.64770E-02 6.61180E-27
1.70371E-02 6.05090E-27
1.76063E-02 5.54173E-27
1.81848E-02 5.07902E-27
1.87724E-02 4.65809E-27
1.93692E-02 4.27478E-27
1.99751E-02 3.92542E-27
2.05901E-02 3.60670E-27
2.12143E-02 3.31568E-27
2.18476E-02 3.04973E-27
2.24900E-02 2.80651E-27
2.31415E-02 2.58390E-27
2.38021E-02 2.38001E-27
2.44717E-02 2.19313E-27
2.51504E-02 2.02172E-27
2.58382E-02 1.86442E-27
2.65349E-02 1.71996E-27
2.72407E-02 1.58723E-27
2.79555E-02 1.46521E-27
2.86793E-02 1.35296E-27
2.94120E-02 1.24966E-27
3.01537E-02 1.15455E-27
3.09043E-02 1.06693E-27
3.16639E-02 9.86183E-28
3.24324E-02 9.11739E-28
3.32098E-02 8.43077E-28
3.39961E-02 7.79724E-28
3.47912E-02 7.21249E-28
3.55952E-02 6.67258E-28
3.64081E-02 6.17391E-28
3.72297E-02 5.71319E-28
3.80602E-02 5.28742E-28
3.88995E-02 4.89383E-28
3.97476E-02 4.52990E-28
4.06044E-02 4.19331E-28
4.14700E-02 3.88195E-28
4.23443E-02 3.59386E-28
4.32273E-02 3.32725E-28
4.41190E-02 3.08048E-28
4.50194E-02 2.85203E-28
4.59284E-02 2.64051E-28
4.68461E-02 2.44463E-28
4.87074E-02 2.09521E-28
5.06030E-02 1.79537E-28
5.25328E-02 1.53800E-28
5.44967E-02 1.31704E-28
5.64946E-02 1.12731E-28
5.85262E-02 9.64391E-29
6.05914E-02 8.24498E-29
6.26901E-02 7.04394E-29
6.48222E-02 6.01302E-29
6.69873E-02 5.12841E-29
6.91854E-02 4.36963E-29
7.14163E-02 3.71910E-29
7.36799E-02 3.16169E-29
7.59760E-02 2.68439E-29
7.83043E-02 2.27599E-29
8.06647E-02 1.92682E-29
8.30571E-02 1.62859E-29
8.54812E-02 1.37411E-29
8.79369E-02 1.15723E-29
9.04240E-02 9.72599E-30
9.29422E-02 8.15648E-30
9.54915E-02 6.82420E-30
9.80716E-02 5.69510E-30
1.00682E-01 4.73985E-30
1.03323E-01 3.93321E-30
1.05995E-01 3.25344E-30
1.08696E-01 2.68187E-30
1.11427E-01 2.20243E-30
1.14188E-01 1.80132E-30
1.16978E-01 1.46672E-30
1.19797E-01 1.18847E-30
1.22645E-01 9.57870E-31
1.25522E-01 7.67492E-31
1.28428E-01 6.10979E-31
1.31361E-01 4.82905E-31
1.34323E-01 3.78650E-31
1.37313E-01 2.94284E-31
1.40330E-01 2.26467E-31
1.43375E-01 1.72371E-31
1.46447E-01 1.29602E-31
1.49545E-01 9.61423E-32
1.52671E-01 7.02920E-32
1.55823E-01 5.06251E-32
1.59001E-01 3.59484E-32
1.62205E-01 2.52672E-32
1.65435E-01 1.77551E-32
1.68690E-01 1.27287E-32
1.71970E-01 9.62554E-33
1.75276E-01 7.98504E-33
1.78606E-01 7.43265E-33
1.81961E-01 7.66585E-33
1.85340E-01 8.44237E-33
1.88743E-01 9.57022E-33
1.92169E-01 1.08990E-32
1.95619E-01 1.23128E-32
1.99092E-01 1.37238E-32
2.02589E-01 1.50675E-32
2.06107E-01 1.62979E-32
2.09649E-01 1.73841E-32
2.13212E-01 1.83072E-32
2.16797E-01 1.90577E-32
2.20404E-01 1.96332E-32
2.24032E-01 2.00371E-32
2.27680E-01 2.02766E-32
2.31350E-01 2.03621E-32
2.35040E-01 2.03058E-32
2.38751E-01 2.01210E-32
2.42481E-01 1.98220E-32
2.46231E-01 1.94229E-32
2.50000E-01 1.89376E-32
2.53788E-01 1.83797E-32
2.57595E-01 1.77620E-32
2.61421E-01 1.70965E-32
2.65264E-01 1.63941E-32
2.69126E-01 1.56651E-32
2.73005E-01 1.49186E-32
2.76901E-01 1.41626E-32
2.80814E-01 1.34045E-32
2.84744E-01 1.26506E-32
2.88691E-01 1.19062E-32
2.92653E-01 1.11761E-32
2.96632E-01 1.04641E-32
3.00625E-01 9.77334E-33
3.04634E-01 9.10651E-33
3.08658E-01 8.46558E-33
3.12697E-01 7.85205E-33
3.16749E-01 7.26698E-33
3.20816E-01 6.71103E-33
3.24896E-01 6.18450E-33
3.28990E-01 5.68741E-33
3.33097E-01 5.21952E-33
3.37216E-01 4.78037E-33
3.41348E-01 4.36931E-33
3.45492E-01 3.98556E-33
3.49647E-01 3.62820E-33
3.53814E-01 3.29623E-33
3.57992E-01 2.98860E-33
3.62181E-01 2.70417E-33
3.66381E-01 2.44179E-33
3.70590E-01 2.20030E-33
3.74810E-01 1.97852E-33
3.79039E-01 1.77528E-33
3.83277E-01 1.58943E-33
3.87524E-01 1.41986E-33
3.91780E-01 1.26547E-33
3.96044E-01 1.12520E-33
4.00316E-01 9.98038E-34
4.04596E-01 8.83018E-34
4.08882E-01 7.79202E-34
4.13176E-01 6.85716E-34
4.17476E-01 6.01724E-34
4.21783E-01 5.26442E-34
4.26095E-01 4.59128E-34
4.30413E-01 3.99094E-34
4.34737E-01 3.45688E-34
4.39065E-01 2.98309E-34
4.43398E-01 2.56398E-34
4.47736E-01 2.19431E-34
4.52077E-01 1.86930E-34
4.56422E-01 1.58451E-34
4.60770E-01 1.33586E-34
4.65122E-01 1.11958E-34
4.69476E-01 9.32274E-35
4.73832E-01 7.70781E-35
4.78190E-01 6.32237E-35
4.82550E-01 5.14037E-35
4.86912E-01 4.13817E-35
4.91274E-01 3.29440E-35
4.95637E-01 2.58970E-35
5.00000E-01 2.00668E-35
5.04363E-01 1.52954E-35
5.08726E-01 1.14433E-35
5.13088E-01 8.38386E-36
5.17450E-01 6.00551E-36
5.21810E-01 4.20809E-36
5.26168E-01 2.90312E-36
5.30524E-01 2.01237E-36
5.34878E-01 1.46687E-36
5.39230E-01 1.20597E-36
5.43578E-01 1.17675E-36
5.47923E-01 1.33320E-36
5.52264E-01 1.63506E-36
5.56602E-01 2.04802E-36
5.60935E-01 2.54267E-36
5.65263E-01 3.09322E-36
5.69587E-01 3.67859E-36
5.73905E-01 4.28115E-36
5.78217E-01 4.88567E-36
5.82524E-01 5.48045E-36
5.86824E-01 6.05484E-36
5.91118E-01 6.60172E-36
5.95404E-01 7.11469E-36
5.99684E-01 7.58898E-36
6.03956E-01 8.02146E-36
6.08220E-01 8.41094E-36
6.12476E-01 8.75503E-36
6.16723E-01 9.05391E-36
6.20961E-01 9.30788E-36
6.25190E-01 9.51777E-36
6.29410E-01 9.68473E-36
6.33619E-01 9.81047E-36
6.37819E-01 9.89725E-36
6.42008E-01 9.94642E-36
6.46186E-01 9.96111E-36
6.50353E-01 9.94304E-36
6.54508E-01 9.89492E-36
6.58652E-01 9.81897E-36
6.62784E-01 9.71819E-36
6.66903E-01 9.59458E-36
6.71010E-01 9.44982E-36
6.75104E-01 9.28742E-36
6.79184E-01 9.10849E-36
6.83251E-01 8.91576E-36
6.87303E-01 8.71109E-36
6.91342E-01 8.49590E-36
6.95366E-01 8.27179E-36
6.99375E-01 8.04156E-36
7.03368E-01 7.80577E-36
7.07347E-01 7.56568E-36
7.11309E-01 7.32286E-36
7.15256E-01 7.07870E-36
7.19186E-01 6.83416E-36
7.23099E-01 6.59001E-36
7.26995E-01 6.34721E-36
7.30874E-01 6.10684E-36
7.34736E-01 5.86915E-36
7.38579E-01 5.63477E-36
7.42405E-01 5.40464E-36
7.46212E-01 5.17895E-36
7.50000E-01 4.95798E-36
7.53769E-01 4.74272E-36
7.57519E-01 4.53246E-36
7.61249E-01 4.32814E-36
7.64960E-01 4.12991E-36
7.68650E-01 3.93746E-36
7.72320E-01 3.75112E-36
7.75968E-01 3.57118E-36
7.79596E-01 3.39753E-36
7.83203E-01 3.23004E-36
7.86788E-01 3.06889E-36
7.90351E-01 2.91365E-36
7.93893E-01 2.76485E-36
7.97411E-01 2.62185E-36
8.00908E-01 2.48496E-36
8.04381E-01 2.35376E-36
8.07831E-01 2.22831E-36
8.11257E-01 2.10812E-36
8.14660E-01 1.99365E-36
8.18039E-01 1.88435E-36
8.21394E-01 1.78015E-36
8.24724E-01 1.68076E-36
8.28030E-01 1.58629E-36
8.31310E-01 1.49640E-36
8.34565E-01 1.41087E-36
8.37795E-01 1.32963E-36
8.40999E-01 1.25263E-36
8.44177E-01 1.17948E-36
8.47329E-01 1.11022E-36
8.50455E-01 1.04446E-36
8.53553E-01 9.82302E-37
8.56625E-01 9.23479E-37
8.59670E-01 8.67850E-37
8.62687E-01 8.15224E-37
8.65677E-01 7.65393E-37
8.68639E-01 7.18524E-37
8.71572E-01 6.74143E-37
8.74478E-01 6.32330E-37
8.77355E-01 5.92859E-37
8.80203E-01 5.55683E-37
8.83022E-01 5.20655E-37
8.85812E-01 4.87643E-37
8.88573E-01 4.56588E-37
8.91304E-01 4.27404E-37
8.94005E-01 3.99904E-37
8.96677E-01 3.74002E-37
8.99318E-01 3.49707E-37
9.01928E-01 3.26911E-37
9.04508E-01 3.05503E-37
9.07058E-01 2.85347E-37
9.09576E-01 2.66425E-37
9.12063E-01 2.48743E-37
9.14519E-01 2.32109E-37
9.16943E-01 2.16566E-37
9.19335E-01 2.01943E-37
9.21696E-01 1.88260E-37
9.24024E-01 1.75418E-37
9.26320E-01 1.63454E-37
9.28584E-01 1.52240E-37
9.30815E-01 1.41773E-37
9.33013E-01 1.31903E-37
9.35178E-01 1.22737E-37
9.37310E-01 1.14172E-37
9.39409E-01 1.06147E-37
9.41474E-01 9.86665E-38
9.43505E-01 9.16675E-38
9.45503E-01 8.51360E-38
9.47467E-01 7.90260E-38
9.49397E-01 7.33380E-38
9.51293E-01 6.80244E-38
9.53154E-01 6.30310E-38
9.54981E-01 5.84611E-38
9.56773E-01 5.41407E-38
9.58530E-01 5.01291E-38
9.60252E-01 4.63721E-38
9.61940E-01 4.29088E-38
9.63592E-01 3.96729E-38
9.65209E-01 3.66397E-38
9.66790E-01 3.38166E-38
9.68336E-01 3.11983E-38
9.69846E-01 2.87638E-38
9.71321E-01 2.64936E-38
9.72759E-01 2.43946E-38
9.74162E-01 2.24380E-38
9.75528E-01 2.06441E-38
9.76858E-01 1.89238E-38
9.78152E-01 1.73582E-38
9.79410E-01 1.58747E-38
9.80631E-01 1.45322E-38
9.81815E-01 1.32687E-38
9.82963E-01 1.21195E-38
9.84074E-01 1.10280E-38
9.85148E-01 1.00285E-38
9.86185E-01 9.10401E-39
9.87185E-01 8.24162E-39
9.88148E-01 7.45659E-39
9.89074E-01 6.71810E-39
9.89962E-01 6.03631E-39
9.90814E-01 5.41585E-39
9.91627E-01 4.85047E-39
9.92404E-01 4.30021E-39
9.93143E-01 3.81157E-39
9.93844E-01 3.37428E-39
9.94508E-01 2.96215E-39
9.95134E-01 2.58391E-39
9.95722E-01 2.24377E-39
9.96273E-01 1.91959E-39
9.96786E-01 1.64399E-39
9.97261E-01 1.38506E-39
9.97698E-01 1.15484E-39
9.98097E-01 9.45966E-40
9.98459E-01 7.56919E-40
9.98782E-01 5.96391E-40
9.99067E-01 4.50129E-40
9.99315E-01 3.32268E-40
9.99524E-01 2.27370E-40
9.99695E-01 1.46662E-40
9.99829E-01 7.75252E-41
9.99924E-01 3.80326E-41
9.99981E-01 9.70715E-42
1.00000E+00 2.89511E-42
