 #
 # Subroutine ELSEPA. Elastic scattering of electrons and positrons
 #                    by neutral atoms and positive ions
 #
 # Projectile: positron
 # Kinetic energy = 1.75000E+08 eV = 6.43113E+06 a.u.
 #
 # WARNING: High-energy factorization with free-atom DF screening.
 #          Absorption, polarization and exchange corrections are
 #          switched off.
 #          Phase shifts are calculated for the bare nucleus.
 #          Scattering amplitudes are not evaluated.
 #
 # Element:  F,  Z =   9,  atomic weight = 1.89984E+01 g/mol
 #
 # Nuclear model: Fermi distribution
 #                Average radius = 2.85511E-13 cm
 #                Skin thickness = 5.46000E-14 cm
 #
 # Number of electrons =  9
 #
 # Total elastic cross section = 2.84842E-19 cm**2 = 1.01719E-02 a0**2
 # 1st transport cross section = 5.79977E-27 cm**2 = 2.07114E-10 a0**2
 # 2nd transport cross section = 1.73039E-26 cm**2 = 6.17933E-10 a0**2
 #
 #
 # Differential cross section:                       MU=(1-COS(THETA))/2
 #
 #  THETA        MU          DCS          DCS        Sherman      error
 #  (deg)                 (cm**2/sr)   (a0**2/sr)    function
 #----------------------------------------------------------------------
0.00000E+00 3.83162E-11
7.61557E-13 3.82242E-11
1.18994E-12 3.81728E-11
1.71346E-12 3.81102E-11
2.33225E-12 3.80365E-11
3.04617E-12 3.79517E-11
3.85530E-12 3.78559E-11
4.75964E-12 3.77493E-11
5.75917E-12 3.76320E-11
6.85391E-12 3.75043E-11
8.04379E-12 3.73662E-11
9.32893E-12 3.72177E-11
1.07092E-11 3.70593E-11
1.21847E-11 3.68912E-11
1.37554E-11 3.67136E-11
1.54213E-11 3.65263E-11
1.71823E-11 3.63298E-11
1.90386E-11 3.61246E-11
2.09900E-11 3.59109E-11
2.30367E-11 3.56884E-11
2.51785E-11 3.54577E-11
2.74156E-11 3.52192E-11
2.97478E-11 3.49734E-11
3.21752E-11 3.47200E-11
3.46979E-11 3.44592E-11
3.73157E-11 3.41918E-11
4.00286E-11 3.39182E-11
4.28368E-11 3.36385E-11
4.57402E-11 3.33521E-11
4.87388E-11 3.30603E-11
5.18325E-11 3.27432E-11
5.50215E-11 3.24135E-11
5.83057E-11 3.20885E-11
6.16850E-11 3.17684E-11
6.51595E-11 3.14536E-11
6.87293E-11 3.11442E-11
7.23943E-11 3.08404E-11
7.61544E-11 3.05425E-11
1.18991E-10 2.71285E-11
1.71347E-10 2.36653E-11
2.33223E-10 2.03778E-11
3.04617E-10 1.73736E-11
3.85531E-10 1.46704E-11
4.75965E-10 1.22986E-11
5.75917E-10 1.02829E-11
6.85389E-10 8.58662E-12
8.04380E-10 7.16527E-12
9.32891E-10 5.97272E-12
1.07092E-09 4.98904E-12
1.21847E-09 4.17820E-12
1.37554E-09 3.50945E-12
1.54213E-09 2.95396E-12
1.71823E-09 2.49568E-12
1.90386E-09 2.11681E-12
2.09900E-09 1.80267E-12
2.30367E-09 1.54074E-12
2.51785E-09 1.32210E-12
2.74156E-09 1.13922E-12
2.97478E-09 9.85666E-13
3.21752E-09 8.56153E-13
3.46978E-09 7.46509E-13
3.73156E-09 6.53453E-13
4.00286E-09 5.74167E-13
4.28368E-09 5.06347E-13
4.57402E-09 4.48087E-13
4.87388E-09 3.97903E-13
5.18326E-09 3.54436E-13
5.50215E-09 3.16750E-13
5.83057E-09 2.84029E-13
6.16850E-09 2.55443E-13
6.51596E-09 2.30325E-13
6.87293E-09 2.08276E-13
7.23942E-09 1.88848E-13
7.61544E-09 1.71624E-13
1.18991E-08 7.41722E-14
1.71347E-08 3.75633E-14
2.33223E-08 2.11556E-14
3.04617E-08 1.28431E-14
3.85531E-08 8.24534E-15
4.75965E-08 5.52989E-15
5.75917E-08 3.84219E-15
6.85389E-08 2.74918E-15
8.04380E-08 2.01677E-15
9.32891E-08 1.51162E-15
1.07092E-07 1.15443E-15
1.21847E-07 8.96309E-16
1.37554E-07 7.06157E-16
1.54213E-07 5.63664E-16
1.71823E-07 4.55238E-16
1.90386E-07 3.71590E-16
2.09900E-07 3.06246E-16
2.30367E-07 2.54616E-16
2.51785E-07 2.13397E-16
2.74156E-07 1.80173E-16
2.97478E-07 1.53158E-16
3.21752E-07 1.31013E-16
3.46978E-07 1.12723E-16
3.73156E-07 9.75120E-17
4.00286E-07 8.47790E-17
4.28368E-07 7.40558E-17
4.57402E-07 6.49738E-17
4.87388E-07 5.72409E-17
5.18325E-07 5.06240E-17
5.50215E-07 4.49355E-17
5.83057E-07 4.00233E-17
6.16850E-07 3.57640E-17
6.51596E-07 3.20562E-17
6.87293E-07 2.88164E-17
7.23942E-07 2.59755E-17
7.61543E-07 2.34761E-17
1.18991E-06 9.62121E-18
1.71347E-06 4.64077E-18
2.33223E-06 2.50501E-18
3.04617E-06 1.46836E-18
3.85531E-06 9.16664E-19
4.75964E-06 6.01404E-19
5.75916E-06 4.10752E-19
6.85388E-06 2.90008E-19
8.04378E-06 2.10545E-19
9.32888E-06 1.56527E-19
1.07092E-05 1.18773E-19
1.21846E-05 9.17456E-20
1.37553E-05 7.19866E-20
1.54212E-05 5.72716E-20
1.71822E-05 4.61314E-20
1.90385E-05 3.75720E-20
2.09899E-05 3.09096E-20
2.30365E-05 2.56605E-20
2.51783E-05 2.14796E-20
2.74153E-05 1.81165E-20
2.97475E-05 1.53864E-20
3.21749E-05 1.31517E-20
3.46974E-05 1.13084E-20
3.73152E-05 9.77694E-21
4.00281E-05 8.49620E-21
4.28362E-05 7.41847E-21
4.57395E-05 6.50631E-21
4.87380E-05 5.73012E-21
5.18317E-05 5.06628E-21
5.50205E-05 4.49583E-21
5.83045E-05 4.00344E-21
6.16838E-05 3.57664E-21
6.51582E-05 3.20523E-21
6.87277E-05 2.88079E-21
7.23925E-05 2.59639E-21
7.61524E-05 2.34483E-21
9.21439E-05 1.60106E-21
1.09658E-04 1.13009E-21
1.28695E-04 8.20204E-22
1.49255E-04 6.09582E-22
1.71338E-04 4.62406E-22
1.94942E-04 3.57065E-22
2.20070E-04 2.80068E-22
2.46720E-04 2.22739E-22
2.74892E-04 1.79346E-22
3.04586E-04 1.46016E-22
3.35803E-04 1.20075E-22
3.68542E-04 9.96422E-23
4.02802E-04 8.33720E-23
4.38585E-04 7.02875E-23
4.75889E-04 5.96690E-23
5.14715E-04 5.09794E-23
5.55063E-04 4.38134E-23
5.96931E-04 3.78615E-23
6.40321E-04 3.28852E-23
6.85233E-04 2.86988E-23
7.31665E-04 2.51566E-23
7.79618E-04 2.21433E-23
8.29092E-04 1.95670E-23
8.80086E-04 1.73539E-23
9.32601E-04 1.54443E-23
9.86636E-04 1.37896E-23
1.04219E-03 1.23500E-23
1.09927E-03 1.10930E-23
1.15786E-03 9.99144E-24
1.21797E-03 9.02284E-24
1.27961E-03 8.16843E-24
1.34276E-03 7.41245E-24
1.40743E-03 6.74161E-24
1.47362E-03 6.14469E-24
1.54133E-03 5.61213E-24
1.61056E-03 5.13579E-24
1.68131E-03 4.70871E-24
1.75357E-03 4.32492E-24
1.82735E-03 3.97925E-24
1.90265E-03 3.66727E-24
1.97947E-03 3.38511E-24
2.05780E-03 3.12943E-24
2.13765E-03 2.89731E-24
2.21902E-03 2.68619E-24
2.30190E-03 2.49383E-24
2.38630E-03 2.31829E-24
2.47222E-03 2.15782E-24
2.55965E-03 2.01091E-24
2.64859E-03 1.87620E-24
2.73905E-03 1.75251E-24
2.83103E-03 1.63876E-24
2.92452E-03 1.53403E-24
3.01952E-03 1.43747E-24
3.11604E-03 1.34832E-24
3.21407E-03 1.26592E-24
3.31362E-03 1.18967E-24
3.41468E-03 1.11902E-24
3.51725E-03 1.05349E-24
3.62133E-03 9.92643E-25
3.72692E-03 9.36083E-25
3.83403E-03 8.83455E-25
3.94265E-03 8.34436E-25
4.05278E-03 7.88734E-25
4.16442E-03 7.46085E-25
4.27757E-03 7.06248E-25
4.39223E-03 6.69005E-25
4.50840E-03 6.34155E-25
4.62608E-03 6.01519E-25
4.74527E-03 5.70930E-25
4.86597E-03 5.42236E-25
4.98817E-03 5.15299E-25
5.11188E-03 4.89992E-25
5.23711E-03 4.66199E-25
5.36383E-03 4.43812E-25
5.49207E-03 4.22735E-25
5.62181E-03 4.02875E-25
5.75306E-03 3.84151E-25
5.88581E-03 3.66486E-25
6.02007E-03 3.49809E-25
6.15583E-03 3.34055E-25
6.29310E-03 3.19164E-25
6.43187E-03 3.05080E-25
6.57214E-03 2.91751E-25
6.71392E-03 2.79129E-25
6.85720E-03 2.67171E-25
7.00198E-03 2.55835E-25
7.14827E-03 2.45082E-25
7.29605E-03 2.34879E-25
7.44534E-03 2.25191E-25
7.59612E-03 2.15987E-25
7.97965E-03 1.94916E-25
8.37255E-03 1.76305E-25
8.77480E-03 1.59819E-25
9.18641E-03 1.45176E-25
9.60736E-03 1.32136E-25
1.00376E-02 1.20495E-25
1.04773E-02 1.10078E-25
1.09262E-02 1.00735E-25
1.13844E-02 9.23370E-26
1.18520E-02 8.47731E-26
1.23288E-02 7.79468E-26
1.28150E-02 7.17743E-26
1.33104E-02 6.61827E-26
1.38150E-02 6.11085E-26
1.43290E-02 5.64959E-26
1.48521E-02 5.22961E-26
1.53845E-02 4.84661E-26
1.59262E-02 4.49681E-26
1.64770E-02 4.17686E-26
1.70371E-02 3.88380E-26
1.76063E-02 3.61501E-26
1.81848E-02 3.36815E-26
1.87724E-02 3.14115E-26
1.93692E-02 2.93215E-26
1.99751E-02 2.73949E-26
2.05901E-02 2.56170E-26
2.12143E-02 2.39744E-26
2.18476E-02 2.24553E-26
2.24900E-02 2.10488E-26
2.31415E-02 1.97453E-26
2.38021E-02 1.85360E-26
2.44717E-02 1.74132E-26
2.51504E-02 1.63696E-26
2.58382E-02 1.53988E-26
2.65349E-02 1.44949E-26
2.72407E-02 1.36526E-26
2.79555E-02 1.28671E-26
2.86793E-02 1.21339E-26
2.94120E-02 1.14490E-26
3.01537E-02 1.08089E-26
3.09043E-02 1.02100E-26
3.16639E-02 9.64936E-27
3.24324E-02 9.12417E-27
3.32098E-02 8.63184E-27
3.39961E-02 8.17003E-27
3.47912E-02 7.73655E-27
3.55952E-02 7.32941E-27
3.64081E-02 6.94678E-27
3.72297E-02 6.58698E-27
3.80602E-02 6.24844E-27
3.88995E-02 5.92973E-27
3.97476E-02 5.62952E-27
4.06044E-02 5.34659E-27
4.14700E-02 5.07980E-27
4.23443E-02 4.82810E-27
4.32273E-02 4.59053E-27
4.41190E-02 4.36617E-27
4.50194E-02 4.15420E-27
4.59284E-02 3.95384E-27
4.68461E-02 3.76436E-27
4.87074E-02 3.41543E-27
5.06030E-02 3.10258E-27
5.25328E-02 2.82162E-27
5.44967E-02 2.56891E-27
5.64946E-02 2.34127E-27
5.85262E-02 2.13591E-27
6.05914E-02 1.95042E-27
6.26901E-02 1.78264E-27
6.48222E-02 1.63070E-27
6.69873E-02 1.49294E-27
6.91854E-02 1.36788E-27
7.14163E-02 1.25424E-27
7.36799E-02 1.15087E-27
7.59760E-02 1.05673E-27
7.83043E-02 9.70933E-28
8.06647E-02 8.92655E-28
8.30571E-02 8.21176E-28
8.54812E-02 7.55852E-28
8.79369E-02 6.96102E-28
9.04240E-02 6.41408E-28
9.29422E-02 5.91305E-28
9.54915E-02 5.45374E-28
9.80716E-02 5.03239E-28
1.00682E-01 4.64560E-28
1.03323E-01 4.29031E-28
1.05995E-01 3.96375E-28
1.08696E-01 3.66343E-28
1.11427E-01 3.38707E-28
1.14188E-01 3.13264E-28
1.16978E-01 2.89826E-28
1.19797E-01 2.68226E-28
1.22645E-01 2.48308E-28
1.25522E-01 2.29935E-28
1.28428E-01 2.12978E-28
1.31361E-01 1.97322E-28
1.34323E-01 1.82861E-28
1.37313E-01 1.69499E-28
1.40330E-01 1.57147E-28
1.43375E-01 1.45726E-28
1.46447E-01 1.35161E-28
1.49545E-01 1.25385E-28
1.52671E-01 1.16337E-28
1.55823E-01 1.07959E-28
1.59001E-01 1.00200E-28
1.62205E-01 9.30122E-29
1.65435E-01 8.63516E-29
1.68690E-01 8.01781E-29
1.71970E-01 7.44548E-29
1.75276E-01 6.91476E-29
1.78606E-01 6.42252E-29
1.81961E-01 5.96587E-29
1.85340E-01 5.54217E-29
1.88743E-01 5.14896E-29
1.92169E-01 4.78399E-29
1.95619E-01 4.44517E-29
1.99092E-01 4.13058E-29
2.02589E-01 3.83844E-29
2.06107E-01 3.56712E-29
2.09649E-01 3.31509E-29
2.13212E-01 3.08096E-29
2.16797E-01 2.86344E-29
2.20404E-01 2.66132E-29
2.24032E-01 2.47349E-29
2.27680E-01 2.29893E-29
2.31350E-01 2.13669E-29
2.35040E-01 1.98588E-29
2.38751E-01 1.84570E-29
2.42481E-01 1.71538E-29
2.46231E-01 1.59422E-29
2.50000E-01 1.48158E-29
2.53788E-01 1.37685E-29
2.57595E-01 1.27947E-29
2.61421E-01 1.18892E-29
2.65264E-01 1.10473E-29
2.69126E-01 1.02644E-29
2.73005E-01 9.53643E-30
2.76901E-01 8.85949E-30
2.80814E-01 8.23001E-30
2.84744E-01 7.64467E-30
2.88691E-01 7.10038E-30
2.92653E-01 6.59427E-30
2.96632E-01 6.12367E-30
3.00625E-01 5.68610E-30
3.04634E-01 5.27925E-30
3.08658E-01 4.90099E-30
3.12697E-01 4.54931E-30
3.16749E-01 4.22237E-30
3.20816E-01 3.91844E-30
3.24896E-01 3.63592E-30
3.28990E-01 3.37332E-30
3.33097E-01 3.12924E-30
3.37216E-01 2.90240E-30
3.41348E-01 2.69160E-30
3.45492E-01 2.49572E-30
3.49647E-01 2.31372E-30
3.53814E-01 2.14463E-30
3.57992E-01 1.98755E-30
3.62181E-01 1.84164E-30
3.66381E-01 1.70613E-30
3.70590E-01 1.58028E-30
3.74810E-01 1.46343E-30
3.79039E-01 1.35493E-30
3.83277E-01 1.25421E-30
3.87524E-01 1.16073E-30
3.91780E-01 1.07397E-30
3.96044E-01 9.93463E-31
4.00316E-01 9.18770E-31
4.04596E-01 8.49481E-31
4.08882E-01 7.85217E-31
4.13176E-01 7.25622E-31
4.17476E-01 6.70368E-31
4.21783E-01 6.19147E-31
4.26095E-01 5.71675E-31
4.30413E-01 5.27684E-31
4.34737E-01 4.86929E-31
4.39065E-01 4.49178E-31
4.43398E-01 4.14219E-31
4.47736E-01 3.81852E-31
4.52077E-01 3.51891E-31
4.56422E-01 3.24164E-31
4.60770E-01 2.98511E-31
4.65122E-01 2.74784E-31
4.69476E-01 2.52842E-31
4.73832E-01 2.32558E-31
4.78190E-01 2.13811E-31
4.82550E-01 1.96490E-31
4.86912E-01 1.80491E-31
4.91274E-01 1.65718E-31
4.95637E-01 1.52081E-31
5.00000E-01 1.39498E-31
5.04363E-01 1.27890E-31
5.08726E-01 1.17186E-31
5.13088E-01 1.07319E-31
5.17450E-01 9.82272E-32
5.21810E-01 8.98530E-32
5.26168E-01 8.21430E-32
5.30524E-01 7.50473E-32
5.34878E-01 6.85199E-32
5.39230E-01 6.25181E-32
5.43578E-01 5.70021E-32
5.47923E-01 5.19352E-32
5.52264E-01 4.72831E-32
5.56602E-01 4.30141E-32
5.60935E-01 3.90989E-32
5.65263E-01 3.55102E-32
5.69587E-01 3.22228E-32
5.73905E-01 2.92132E-32
5.78217E-01 2.64598E-32
5.82524E-01 2.39425E-32
5.86824E-01 2.16426E-32
5.91118E-01 1.95431E-32
5.95404E-01 1.76279E-32
5.99684E-01 1.58822E-32
6.03956E-01 1.42925E-32
6.08220E-01 1.28461E-32
6.12476E-01 1.15313E-32
6.16723E-01 1.03374E-32
6.20961E-01 9.25442E-33
6.25190E-01 8.27313E-33
6.29410E-01 7.38504E-33
6.33619E-01 6.58230E-33
6.37819E-01 5.85770E-33
6.42008E-01 5.20454E-33
6.46186E-01 4.61668E-33
6.50353E-01 4.08845E-33
6.54508E-01 3.61461E-33
6.58652E-01 3.19037E-33
6.62784E-01 2.81130E-33
6.66903E-01 2.47331E-33
6.71010E-01 2.17268E-33
6.75104E-01 1.90596E-33
6.79184E-01 1.66999E-33
6.83251E-01 1.46186E-33
6.87303E-01 1.27893E-33
6.91342E-01 1.11875E-33
6.95366E-01 9.79082E-34
6.99375E-01 8.57885E-34
7.03368E-01 7.53289E-34
7.07347E-01 6.63584E-34
7.11309E-01 5.87206E-34
7.15256E-01 5.22729E-34
7.19186E-01 4.68852E-34
7.23099E-01 4.24394E-34
7.26995E-01 3.88276E-34
7.30874E-01 3.59516E-34
7.34736E-01 3.37230E-34
7.38579E-01 3.20612E-34
7.42405E-01 3.08927E-34
7.46212E-01 3.01519E-34
7.50000E-01 2.97794E-34
7.53769E-01 2.97202E-34
7.57519E-01 2.99280E-34
7.61249E-01 3.03580E-34
7.64960E-01 3.09712E-34
7.68650E-01 3.17339E-34
7.72320E-01 3.26147E-34
7.75968E-01 3.35853E-34
7.79596E-01 3.46217E-34
7.83203E-01 3.57027E-34
7.86788E-01 3.68085E-34
7.90351E-01 3.79239E-34
7.93893E-01 3.90323E-34
7.97411E-01 4.01231E-34
8.00908E-01 4.11839E-34
8.04381E-01 4.22067E-34
8.07831E-01 4.31830E-34
8.11257E-01 4.41075E-34
8.14660E-01 4.49728E-34
8.18039E-01 4.57759E-34
8.21394E-01 4.65132E-34
8.24724E-01 4.71827E-34
8.28030E-01 4.77813E-34
8.31310E-01 4.83087E-34
8.34565E-01 4.87646E-34
8.37795E-01 4.91485E-34
8.40999E-01 4.94603E-34
8.44177E-01 4.97017E-34
8.47329E-01 4.98729E-34
8.50455E-01 4.99765E-34
8.53553E-01 5.00128E-34
8.56625E-01 4.99843E-34
8.59670E-01 4.98929E-34
8.62687E-01 4.97412E-34
8.65677E-01 4.95319E-34
8.68639E-01 4.92654E-34
8.71572E-01 4.89464E-34
8.74478E-01 4.85762E-34
8.77355E-01 4.81578E-34
8.80203E-01 4.76934E-34
8.83022E-01 4.71858E-34
8.85812E-01 4.66377E-34
8.88573E-01 4.60513E-34
8.91304E-01 4.54290E-34
8.94005E-01 4.47740E-34
8.96677E-01 4.40885E-34
8.99318E-01 4.33743E-34
9.01928E-01 4.26338E-34
9.04508E-01 4.18696E-34
9.07058E-01 4.10843E-34
9.09576E-01 4.02795E-34
9.12063E-01 3.94568E-34
9.14519E-01 3.86191E-34
9.16943E-01 3.77674E-34
9.19335E-01 3.69047E-34
9.21696E-01 3.60320E-34
9.24024E-01 3.51514E-34
9.26320E-01 3.42637E-34
9.28584E-01 3.33712E-34
9.30815E-01 3.24750E-34
9.33013E-01 3.15776E-34
9.35178E-01 3.06789E-34
9.37310E-01 2.97807E-34
9.39409E-01 2.88846E-34
9.41474E-01 2.79914E-34
9.43505E-01 2.71024E-34
9.45503E-01 2.62186E-34
9.47467E-01 2.53410E-34
9.49397E-01 2.44704E-34
9.51293E-01 2.36079E-34
9.53154E-01 2.27546E-34
9.54981E-01 2.19097E-34
9.56773E-01 2.10760E-34
9.58530E-01 2.02531E-34
9.60252E-01 1.94421E-34
9.61940E-01 1.86428E-34
9.63592E-01 1.78565E-34
9.65209E-01 1.70839E-34
9.66790E-01 1.63250E-34
9.68336E-01 1.55803E-34
9.69846E-01 1.48503E-34
9.71321E-01 1.41354E-34
9.72759E-01 1.34358E-34
9.74162E-01 1.27521E-34
9.75528E-01 1.20841E-34
9.76858E-01 1.14334E-34
9.78152E-01 1.07988E-34
9.79410E-01 1.01815E-34
9.80631E-01 9.58074E-35
9.81815E-01 8.99758E-35
9.82963E-01 8.43148E-35
9.84074E-01 7.88352E-35
9.85148E-01 7.35309E-35
9.86185E-01 6.84056E-35
9.87185E-01 6.34619E-35
9.88148E-01 5.86970E-35
9.89074E-01 5.41170E-35
9.89962E-01 4.97200E-35
9.90814E-01 4.55051E-35
9.91627E-01 4.14734E-35
9.92404E-01 3.76329E-35
9.93143E-01 3.39742E-35
9.93844E-01 3.04991E-35
9.94508E-01 2.72129E-35
9.95134E-01 2.41135E-35
9.95722E-01 2.12001E-35
9.96273E-01 1.84769E-35
9.96786E-01 1.59370E-35
9.97261E-01 1.35869E-35
9.97698E-01 1.14240E-35
9.98097E-01 9.44934E-36
9.98459E-01 7.66346E-36
9.98782E-01 6.06411E-36
9.99067E-01 4.65434E-36
9.99315E-01 3.43087E-36
9.99524E-01 2.39702E-36
9.99695E-01 1.55002E-36
9.99829E-01 8.92969E-37
9.99924E-01 4.21237E-37
9.99981E-01 1.39358E-37
1.00000E+00 4.66603E-38
