 #
 # Subroutine ELSEPA. Elastic scattering of electrons and positrons
 #                    by neutral atoms and positive ions
 #
 # Projectile: positron
 # Kinetic energy = 4.50000E+08 eV = 1.65372E+07 a.u.
 #
 # WARNING: High-energy factorization with free-atom DF screening.
 #          Absorption, polarization and exchange corrections are
 #          switched off.
 #          Phase shifts are calculated for the bare nucleus.
 #          Scattering amplitudes are not evaluated.
 #
 # Element:  F,  Z =   9,  atomic weight = 1.89984E+01 g/mol
 #
 # Nuclear model: Fermi distribution
 #                Average radius = 2.85511E-13 cm
 #                Skin thickness = 5.46000E-14 cm
 #
 # Number of electrons =  9
 #
 # Total elastic cross section = 2.84569E-19 cm**2 = 1.01622E-02 a0**2
 # 1st transport cross section = 8.85973E-28 cm**2 = 3.16387E-11 a0**2
 # 2nd transport cross section = 2.65554E-27 cm**2 = 9.48310E-11 a0**2
 #
 #
 # Differential cross section:                       MU=(1-COS(THETA))/2
 #
 #  THETA        MU          DCS          DCS        Sherman      error
 #  (deg)                 (cm**2/sr)   (a0**2/sr)    function
 #----------------------------------------------------------------------
0.00000E+00 2.52455E-10
7.61557E-13 2.48521E-10
1.18994E-12 2.46351E-10
1.71346E-12 2.43739E-10
2.33225E-12 2.40703E-10
3.04617E-12 2.37268E-10
3.85530E-12 2.33464E-10
4.75964E-12 2.29318E-10
5.75917E-12 2.24862E-10
6.85391E-12 2.20127E-10
8.04379E-12 2.14931E-10
9.32893E-12 2.09448E-10
1.07092E-11 2.04190E-10
1.21847E-11 1.98890E-10
1.37554E-11 1.92866E-10
1.54213E-11 1.87200E-10
1.71823E-11 1.81802E-10
1.90386E-11 1.75532E-10
2.09900E-11 1.69701E-10
2.30367E-11 1.64285E-10
2.51785E-11 1.58147E-10
2.74156E-11 1.52363E-10
2.97478E-11 1.47019E-10
3.21752E-11 1.41262E-10
3.46979E-11 1.35694E-10
3.73157E-11 1.30564E-10
4.00286E-11 1.25278E-10
4.28368E-11 1.20048E-10
4.57402E-11 1.15234E-10
4.87388E-11 1.10458E-10
5.18325E-11 1.05641E-10
5.50215E-11 1.01207E-10
5.83057E-11 9.69419E-11
6.16850E-11 9.25767E-11
6.51595E-11 8.85545E-11
6.87293E-11 8.47805E-11
7.23943E-11 8.08749E-11
7.61544E-11 7.72714E-11
1.18991E-10 4.86251E-11
1.71347E-10 3.06320E-11
2.33223E-10 1.95704E-11
3.04617E-10 1.27910E-11
3.85531E-10 8.57835E-12
4.75965E-10 5.90754E-12
5.75917E-10 4.17505E-12
6.85389E-10 3.02380E-12
8.04380E-10 2.23945E-12
9.32891E-10 1.69441E-12
1.07092E-09 1.30593E-12
1.21847E-09 1.02364E-12
1.37554E-09 8.14614E-13
1.54213E-09 6.57101E-13
1.71823E-09 5.36509E-13
1.90386E-09 4.42782E-13
2.09900E-09 3.68990E-13
2.30367E-09 3.10208E-13
2.51785E-09 2.62868E-13
2.74156E-09 2.24363E-13
2.97478E-09 1.92712E-13
3.21752E-09 1.66517E-13
3.46978E-09 1.44673E-13
3.73156E-09 1.26329E-13
4.00286E-09 1.10822E-13
4.28368E-09 9.76200E-14
4.57402E-09 8.63363E-14
4.87388E-09 7.66429E-14
5.18326E-09 6.82759E-14
5.50215E-09 6.10178E-14
5.83057E-09 5.46930E-14
6.16850E-09 4.91668E-14
6.51596E-09 4.43204E-14
6.87293E-09 4.00554E-14
7.23942E-09 3.62874E-14
7.61544E-09 3.29488E-14
1.18991E-08 1.39661E-14
1.71347E-08 6.85935E-15
2.33223E-08 3.74016E-15
3.04617E-08 2.20529E-15
3.85531E-08 1.38164E-15
4.75965E-08 9.08515E-16
5.75917E-08 6.21429E-16
6.85389E-08 4.39199E-16
8.04380E-08 3.19084E-16
9.32891E-08 2.37341E-16
1.07092E-07 1.80165E-16
1.21847E-07 1.39209E-16
1.37554E-07 1.09253E-16
1.54213E-07 8.69364E-17
1.71823E-07 7.00367E-17
1.90386E-07 5.70503E-17
2.09900E-07 4.69387E-17
2.30367E-07 3.89709E-17
2.51785E-07 3.26241E-17
2.74156E-07 2.75182E-17
2.97478E-07 2.33728E-17
3.21752E-07 1.99793E-17
3.46978E-07 1.71799E-17
3.73156E-07 1.48540E-17
4.00286E-07 1.29088E-17
4.28368E-07 1.12718E-17
4.57402E-07 9.88623E-18
4.87388E-07 8.70718E-18
5.18325E-07 7.69877E-18
5.50215E-07 6.83221E-18
5.83057E-07 6.08421E-18
6.16850E-07 5.43583E-18
6.51596E-07 4.87157E-18
6.87293E-07 4.37865E-18
7.23942E-07 3.94653E-18
7.61543E-07 3.56643E-18
1.18991E-06 1.46077E-18
1.71347E-06 7.04435E-19
2.33223E-06 3.80222E-19
3.04617E-06 2.22870E-19
3.85531E-06 1.39131E-19
4.75964E-06 9.12799E-20
5.75916E-06 6.23428E-20
6.85388E-06 4.40163E-20
8.04378E-06 3.19556E-20
9.32888E-06 2.37569E-20
1.07092E-05 1.80268E-20
1.21846E-05 1.39246E-20
1.37553E-05 1.09257E-20
1.54212E-05 8.69234E-21
1.71822E-05 7.00154E-21
1.90385E-05 5.70243E-21
2.09899E-05 4.69125E-21
2.30365E-05 3.89457E-21
2.51783E-05 3.26003E-21
2.74153E-05 2.74959E-21
2.97475E-05 2.33524E-21
3.21749E-05 1.99607E-21
3.46974E-05 1.71630E-21
3.73152E-05 1.48387E-21
4.00281E-05 1.28949E-21
4.28362E-05 1.12592E-21
4.57395E-05 9.87480E-22
4.87380E-05 8.69675E-22
5.18317E-05 7.68922E-22
5.50205E-05 6.82343E-22
5.83045E-05 6.07612E-22
6.16838E-05 5.42835E-22
6.51582E-05 4.86465E-22
6.87277E-05 4.37225E-22
7.23925E-05 3.94060E-22
7.61524E-05 3.54569E-22
9.21439E-05 2.41909E-22
1.09658E-04 1.70600E-22
1.28695E-04 1.23701E-22
1.49255E-04 9.18408E-23
1.71338E-04 6.95896E-23
1.94942E-04 5.36724E-23
2.20070E-04 4.20452E-23
2.46720E-04 3.33936E-23
2.74892E-04 2.68496E-23
3.04586E-04 2.18270E-23
3.35803E-04 1.79207E-23
3.68542E-04 1.48464E-23
4.02802E-04 1.24005E-23
4.38585E-04 1.04353E-23
4.75889E-04 8.84194E-24
5.14715E-04 7.53931E-24
5.55063E-04 6.46617E-24
5.96931E-04 5.57579E-24
6.40321E-04 4.83217E-24
6.85233E-04 4.20731E-24
7.31665E-04 3.67923E-24
7.79618E-04 3.23056E-24
8.29092E-04 2.84744E-24
8.80086E-04 2.51877E-24
9.32601E-04 2.23555E-24
9.86636E-04 1.99048E-24
1.04219E-03 1.77759E-24
1.09927E-03 1.59196E-24
1.15786E-03 1.42955E-24
1.21797E-03 1.28696E-24
1.27961E-03 1.16139E-24
1.34276E-03 1.05047E-24
1.40743E-03 9.52210E-25
1.47362E-03 8.64931E-25
1.54133E-03 7.87203E-25
1.61056E-03 7.17810E-25
1.68131E-03 6.55711E-25
1.75357E-03 6.00014E-25
1.82735E-03 5.49951E-25
1.90265E-03 5.04857E-25
1.97947E-03 4.64160E-25
2.05780E-03 4.27360E-25
2.13765E-03 3.94024E-25
2.21902E-03 3.63771E-25
2.30190E-03 3.36270E-25
2.38630E-03 3.11231E-25
2.47222E-03 2.88396E-25
2.55965E-03 2.67541E-25
2.64859E-03 2.48466E-25
2.73905E-03 2.30995E-25
2.83103E-03 2.14970E-25
2.92452E-03 2.00254E-25
3.01952E-03 1.86721E-25
3.11604E-03 1.74262E-25
3.21407E-03 1.62778E-25
3.31362E-03 1.52181E-25
3.41468E-03 1.42391E-25
3.51725E-03 1.33336E-25
3.62133E-03 1.24954E-25
3.72692E-03 1.17186E-25
3.83403E-03 1.09980E-25
3.94265E-03 1.03290E-25
4.05278E-03 9.70718E-26
4.16442E-03 9.12881E-26
4.27757E-03 8.59037E-26
4.39223E-03 8.08866E-26
4.50840E-03 7.62081E-26
4.62608E-03 7.18419E-26
4.74527E-03 6.77639E-26
4.86597E-03 6.39522E-26
4.98817E-03 6.03870E-26
5.11188E-03 5.70499E-26
5.23711E-03 5.39241E-26
5.36383E-03 5.09944E-26
5.49207E-03 4.82466E-26
5.62181E-03 4.56677E-26
5.75306E-03 4.32460E-26
5.88581E-03 4.09704E-26
6.02007E-03 3.88309E-26
6.15583E-03 3.68182E-26
6.29310E-03 3.49238E-26
6.43187E-03 3.31396E-26
6.57214E-03 3.14584E-26
6.71392E-03 2.98735E-26
6.85720E-03 2.83786E-26
7.00198E-03 2.69678E-26
7.14827E-03 2.56358E-26
7.29605E-03 2.43777E-26
7.44534E-03 2.31887E-26
7.59612E-03 2.20646E-26
7.97965E-03 1.95125E-26
8.37255E-03 1.72863E-26
8.77480E-03 1.53396E-26
9.18641E-03 1.36333E-26
9.60736E-03 1.21346E-26
1.00376E-02 1.08153E-26
1.04773E-02 9.65188E-27
1.09262E-02 8.62392E-27
1.13844E-02 7.71408E-27
1.18520E-02 6.90749E-27
1.23288E-02 6.19132E-27
1.28150E-02 5.55450E-27
1.33104E-02 4.98745E-27
1.38150E-02 4.48187E-27
1.43290E-02 4.03055E-27
1.48521E-02 3.62718E-27
1.53845E-02 3.26629E-27
1.59262E-02 2.94306E-27
1.64770E-02 2.65327E-27
1.70371E-02 2.39324E-27
1.76063E-02 2.15969E-27
1.81848E-02 1.94977E-27
1.87724E-02 1.76094E-27
1.93692E-02 1.59096E-27
1.99751E-02 1.43784E-27
2.05901E-02 1.29983E-27
2.12143E-02 1.17535E-27
2.18476E-02 1.06303E-27
2.24900E-02 9.61627E-28
2.31415E-02 8.70031E-28
2.38021E-02 7.87260E-28
2.44717E-02 7.12435E-28
2.51504E-02 6.44768E-28
2.58382E-02 5.83554E-28
2.65349E-02 5.28161E-28
2.72407E-02 4.78022E-28
2.79555E-02 4.32628E-28
2.86793E-02 3.91522E-28
2.94120E-02 3.54292E-28
3.01537E-02 3.20567E-28
3.09043E-02 2.90013E-28
3.16639E-02 2.62330E-28
3.24324E-02 2.37246E-28
3.32098E-02 2.14516E-28
3.39961E-02 1.93918E-28
3.47912E-02 1.75254E-28
3.55952E-02 1.58342E-28
3.64081E-02 1.43018E-28
3.72297E-02 1.29134E-28
3.80602E-02 1.16557E-28
3.88995E-02 1.05164E-28
3.97476E-02 9.48469E-29
4.06044E-02 8.55045E-29
4.14700E-02 7.70469E-29
4.23443E-02 6.93919E-29
4.32273E-02 6.24652E-29
4.41190E-02 5.61993E-29
4.50194E-02 5.05328E-29
4.59284E-02 4.54101E-29
4.68461E-02 4.07807E-29
4.87074E-02 3.28223E-29
5.06030E-02 2.63387E-29
5.25328E-02 2.10668E-29
5.44967E-02 1.67895E-29
5.64946E-02 1.33276E-29
5.85262E-02 1.05333E-29
6.05914E-02 8.28466E-30
6.26901E-02 6.48126E-30
6.48222E-02 5.04038E-30
6.69873E-02 3.89397E-30
6.91854E-02 2.98614E-30
7.14163E-02 2.27102E-30
7.36799E-02 1.71106E-30
7.59760E-02 1.27554E-30
7.83043E-02 9.39438E-31
8.06647E-02 6.82365E-31
8.30571E-02 4.87788E-31
8.54812E-02 3.42335E-31
8.79369E-02 2.35225E-31
9.04240E-02 1.57802E-31
9.29422E-02 1.03151E-31
9.54915E-02 6.57684E-32
9.80716E-02 4.13064E-32
1.00682E-01 2.63489E-32
1.03323E-01 1.82341E-32
1.05995E-01 1.49064E-32
1.08696E-01 1.47954E-32
1.11427E-01 1.67176E-32
1.14188E-01 1.97949E-32
1.16978E-01 2.33900E-32
1.19797E-01 2.70527E-32
1.22645E-01 3.04774E-32
1.25522E-01 3.34690E-32
1.28428E-01 3.59152E-32
1.31361E-01 3.77649E-32
1.34323E-01 3.90110E-32
1.37313E-01 3.96773E-32
1.40330E-01 3.98079E-32
1.43375E-01 3.94593E-32
1.46447E-01 3.86948E-32
1.49545E-01 3.75798E-32
1.52671E-01 3.61786E-32
1.55823E-01 3.45525E-32
1.59001E-01 3.27583E-32
1.62205E-01 3.08472E-32
1.65435E-01 2.88646E-32
1.68690E-01 2.68500E-32
1.71970E-01 2.48368E-32
1.75276E-01 2.28532E-32
1.78606E-01 2.09219E-32
1.81961E-01 1.90610E-32
1.85340E-01 1.72843E-32
1.88743E-01 1.56021E-32
1.92169E-01 1.40211E-32
1.95619E-01 1.25455E-32
1.99092E-01 1.11769E-32
2.02589E-01 9.91516E-33
2.06107E-01 8.75843E-33
2.09649E-01 7.70365E-33
2.13212E-01 6.74675E-33
2.16797E-01 5.88295E-33
2.20404E-01 5.10697E-33
2.24032E-01 4.41316E-33
2.27680E-01 3.79573E-33
2.31350E-01 3.24882E-33
2.35040E-01 2.76666E-33
2.38751E-01 2.34356E-33
2.42481E-01 1.97407E-33
2.46231E-01 1.65299E-33
2.50000E-01 1.37538E-33
2.53788E-01 1.13662E-33
2.57595E-01 9.32403E-34
2.61421E-01 7.58755E-34
2.65264E-01 6.12016E-34
2.69126E-01 4.88849E-34
2.73005E-01 3.86225E-34
2.76901E-01 3.01402E-34
2.80814E-01 2.31925E-34
2.84744E-01 1.75596E-34
2.88691E-01 1.30464E-34
2.92653E-01 9.48012E-35
2.96632E-01 6.70897E-35
3.00625E-01 4.60010E-35
3.04634E-01 3.03785E-35
3.08658E-01 1.92218E-35
3.12697E-01 1.16710E-35
3.16749E-01 6.99072E-36
3.20816E-01 4.55672E-36
3.24896E-01 3.84323E-36
3.28990E-01 4.41074E-36
3.33097E-01 5.89541E-36
3.37216E-01 7.99924E-36
3.41348E-01 1.04808E-35
3.45492E-01 1.31472E-35
3.49647E-01 1.58479E-35
3.53814E-01 1.84673E-35
3.57992E-01 2.09189E-35
3.62181E-01 2.31407E-35
3.66381E-01 2.50934E-35
3.70590E-01 2.67516E-35
3.74810E-01 2.81040E-35
3.79039E-01 2.91505E-35
3.83277E-01 2.99001E-35
3.87524E-01 3.03654E-35
3.91780E-01 3.05650E-35
3.96044E-01 3.05208E-35
4.00316E-01 3.02569E-35
4.04596E-01 2.97963E-35
4.08882E-01 2.91655E-35
4.13176E-01 2.83878E-35
4.17476E-01 2.74869E-35
4.21783E-01 2.64852E-35
4.26095E-01 2.54038E-35
4.30413E-01 2.42616E-35
4.34737E-01 2.30768E-35
4.39065E-01 2.18654E-35
4.43398E-01 2.06407E-35
4.47736E-01 1.94163E-35
4.52077E-01 1.82027E-35
4.56422E-01 1.70089E-35
4.60770E-01 1.58434E-35
4.65122E-01 1.47125E-35
4.69476E-01 1.36212E-35
4.73832E-01 1.25737E-35
4.78190E-01 1.15734E-35
4.82550E-01 1.06226E-35
4.86912E-01 9.72277E-36
4.91274E-01 8.87439E-36
4.95637E-01 8.07767E-36
5.00000E-01 7.33184E-36
5.04363E-01 6.63697E-36
5.08726E-01 5.99093E-36
5.13088E-01 5.39296E-36
5.17450E-01 4.84067E-36
5.21810E-01 4.33250E-36
5.26168E-01 3.86661E-36
5.30524E-01 3.44019E-36
5.34878E-01 3.05153E-36
5.39230E-01 2.69812E-36
5.43578E-01 2.37786E-36
5.47923E-01 2.08860E-36
5.52264E-01 1.82793E-36
5.56602E-01 1.59390E-36
5.60935E-01 1.38452E-36
5.65263E-01 1.19758E-36
5.69587E-01 1.03134E-36
5.73905E-01 8.84101E-37
5.78217E-01 7.54066E-37
5.82524E-01 6.39772E-37
5.86824E-01 5.39568E-37
5.91118E-01 4.52209E-37
5.95404E-01 3.76350E-37
5.99684E-01 3.10774E-37
6.03956E-01 2.54402E-37
6.08220E-01 2.06318E-37
6.12476E-01 1.65465E-37
6.16723E-01 1.31055E-37
6.20961E-01 1.02313E-37
6.25190E-01 7.85375E-38
6.29410E-01 5.90890E-38
6.33619E-01 4.34015E-38
6.37819E-01 3.09721E-38
6.42008E-01 2.13191E-38
6.46186E-01 1.40528E-38
6.50353E-01 8.79557E-39
6.54508E-01 5.22893E-39
6.58652E-01 3.06708E-39
6.62784E-01 2.05681E-39
6.66903E-01 1.97765E-39
6.71010E-01 2.64881E-39
6.75104E-01 3.88680E-39
6.79184E-01 5.56773E-39
6.83251E-01 7.55534E-39
6.87303E-01 9.74724E-39
6.91342E-01 1.20705E-38
6.95366E-01 1.44604E-38
6.99375E-01 1.68131E-38
7.03368E-01 1.91157E-38
7.07347E-01 2.13370E-38
7.11309E-01 2.34358E-38
7.15256E-01 2.53789E-38
7.19186E-01 2.71539E-38
7.23099E-01 2.87606E-38
7.26995E-01 3.01886E-38
7.30874E-01 3.14168E-38
7.34736E-01 3.24727E-38
7.38579E-01 3.33580E-38
7.42405E-01 3.40534E-38
7.46212E-01 3.45819E-38
7.50000E-01 3.49605E-38
7.53769E-01 3.51525E-38
7.57519E-01 3.52378E-38
7.61249E-01 3.51758E-38
7.64960E-01 3.49777E-38
7.68650E-01 3.46889E-38
7.72320E-01 3.43028E-38
7.75968E-01 3.38113E-38
7.79596E-01 3.32350E-38
7.83203E-01 3.25943E-38
7.86788E-01 3.18826E-38
7.90351E-01 3.11401E-38
7.93893E-01 3.03242E-38
7.97411E-01 2.94920E-38
8.00908E-01 2.86128E-38
8.04381E-01 2.77218E-38
8.07831E-01 2.68076E-38
8.11257E-01 2.59080E-38
8.14660E-01 2.49750E-38
8.18039E-01 2.40472E-38
8.21394E-01 2.31219E-38
8.24724E-01 2.22151E-38
8.28030E-01 2.13043E-38
8.31310E-01 2.04094E-38
8.34565E-01 1.95368E-38
8.37795E-01 1.86814E-38
8.40999E-01 1.78328E-38
8.44177E-01 1.70145E-38
8.47329E-01 1.62092E-38
8.50455E-01 1.54392E-38
8.53553E-01 1.46816E-38
8.56625E-01 1.39475E-38
8.59670E-01 1.32369E-38
8.62687E-01 1.25549E-38
8.65677E-01 1.19088E-38
8.68639E-01 1.12675E-38
8.71572E-01 1.06663E-38
8.74478E-01 1.00835E-38
8.77355E-01 9.52965E-39
8.80203E-01 8.99694E-39
8.83022E-01 8.48851E-39
8.85812E-01 8.00597E-39
8.88573E-01 7.54407E-39
8.91304E-01 7.10048E-39
8.94005E-01 6.68417E-39
8.96677E-01 6.29379E-39
8.99318E-01 5.91805E-39
9.01928E-01 5.55867E-39
9.04508E-01 5.21812E-39
9.07058E-01 4.90216E-39
9.09576E-01 4.60386E-39
9.12063E-01 4.31413E-39
9.14519E-01 4.04601E-39
9.16943E-01 3.78725E-39
9.19335E-01 3.54909E-39
9.21696E-01 3.32251E-39
9.24024E-01 3.11181E-39
9.26320E-01 2.90662E-39
9.28584E-01 2.71508E-39
9.30815E-01 2.53200E-39
9.33013E-01 2.36846E-39
9.35178E-01 2.20765E-39
9.37310E-01 2.05628E-39
9.39409E-01 1.91638E-39
9.41474E-01 1.78322E-39
9.43505E-01 1.65977E-39
9.45503E-01 1.54375E-39
9.47467E-01 1.43657E-39
9.49397E-01 1.33475E-39
9.51293E-01 1.24030E-39
9.53154E-01 1.15626E-39
9.54981E-01 1.06804E-39
9.56773E-01 9.92426E-40
9.58530E-01 9.20172E-40
9.60252E-01 8.54871E-40
9.61940E-01 7.89806E-40
9.63592E-01 7.30265E-40
9.65209E-01 6.77008E-40
9.66790E-01 6.27249E-40
9.68336E-01 5.79757E-40
9.69846E-01 5.35263E-40
9.71321E-01 4.94363E-40
9.72759E-01 4.54802E-40
9.74162E-01 4.18471E-40
9.75528E-01 3.81792E-40
9.76858E-01 3.53665E-40
9.78152E-01 3.23784E-40
9.79410E-01 2.99357E-40
9.80631E-01 2.72669E-40
9.81815E-01 2.49906E-40
9.82963E-01 2.26177E-40
9.84074E-01 2.07118E-40
9.85148E-01 1.88169E-40
9.86185E-01 1.70422E-40
9.87185E-01 1.54853E-40
9.88148E-01 1.38990E-40
9.89074E-01 1.25814E-40
9.89962E-01 1.13661E-40
9.90814E-01 1.01496E-40
9.91627E-01 8.95034E-41
9.92404E-01 8.18929E-41
9.93143E-01 7.28725E-41
9.93844E-01 6.32340E-41
9.94508E-01 5.57157E-41
9.95134E-01 4.88503E-41
9.95722E-01 4.20226E-41
9.96273E-01 3.73492E-41
9.96786E-01 3.09004E-41
9.97261E-01 2.61594E-41
9.97698E-01 2.15428E-41
9.98097E-01 1.76564E-41
9.98459E-01 1.45753E-41
9.98782E-01 1.12024E-41
9.99067E-01 8.98254E-42
9.99315E-01 6.24274E-42
9.99524E-01 4.59674E-42
9.99695E-01 3.00800E-42
9.99829E-01 2.26824E-42
9.99924E-01 1.08555E-42
9.99981E-01 5.42230E-43
1.00000E+00 1.83285E-42
