 #
 # Subroutine ELSEPA. Elastic scattering of electrons and positrons
 #                    by neutral atoms and positive ions
 #
 # Projectile: positron
 # Kinetic energy = 1.75000E+07 eV = 6.43113E+05 a.u.
 #
 # WARNING: High-energy factorization with free-atom DF screening.
 #          Absorption, polarization and exchange corrections are
 #          switched off.
 #          Phase shifts are calculated for the bare nucleus.
 #          Scattering amplitudes are not evaluated.
 #
 # Element:  F,  Z =   9,  atomic weight = 1.89984E+01 g/mol
 #
 # Nuclear model: Fermi distribution
 #                Average radius = 2.85511E-13 cm
 #                Skin thickness = 5.46000E-14 cm
 #
 # Number of electrons =  9
 #
 # Total elastic cross section = 2.85034E-19 cm**2 = 1.01788E-02 a0**2
 # 1st transport cross section = 4.60224E-25 cm**2 = 1.64349E-08 a0**2
 # 2nd transport cross section = 1.33605E-24 cm**2 = 4.77111E-08 a0**2
 #
 #
 # Differential cross section:                       MU=(1-COS(THETA))/2
 #
 #  THETA        MU          DCS          DCS        Sherman      error
 #  (deg)                 (cm**2/sr)   (a0**2/sr)    function
 #----------------------------------------------------------------------
0.00000E+00 4.03505E-13
7.61557E-13 4.03494E-13
1.18994E-12 4.03488E-13
1.71346E-12 4.03481E-13
2.33225E-12 4.03473E-13
3.04617E-12 4.03463E-13
3.85530E-12 4.03452E-13
4.75964E-12 4.03440E-13
5.75917E-12 4.03426E-13
6.85391E-12 4.03411E-13
8.04379E-12 4.03395E-13
9.32893E-12 4.03378E-13
1.07092E-11 4.03359E-13
1.21847E-11 4.03340E-13
1.37554E-11 4.03319E-13
1.54213E-11 4.03296E-13
1.71823E-11 4.03273E-13
1.90386E-11 4.03248E-13
2.09900E-11 4.03222E-13
2.30367E-11 4.03194E-13
2.51785E-11 4.03165E-13
2.74156E-11 4.03136E-13
2.97478E-11 4.03104E-13
3.21752E-11 4.03072E-13
3.46979E-11 4.03038E-13
3.73157E-11 4.03003E-13
4.00286E-11 4.02967E-13
4.28368E-11 4.02929E-13
4.57402E-11 4.02891E-13
4.87388E-11 4.02851E-13
5.18325E-11 4.02809E-13
5.50215E-11 4.02767E-13
5.83057E-11 4.02723E-13
6.16850E-11 4.02678E-13
6.51595E-11 4.02632E-13
6.87293E-11 4.02584E-13
7.23943E-11 4.02536E-13
7.61544E-11 4.02485E-13
1.18991E-10 4.01916E-13
1.71347E-10 4.01223E-13
2.33223E-10 4.00406E-13
3.04617E-10 3.99467E-13
3.85531E-10 3.98406E-13
4.75965E-10 3.97226E-13
5.75917E-10 3.95929E-13
6.85389E-10 3.94515E-13
8.04380E-10 3.92986E-13
9.32891E-10 3.91345E-13
1.07092E-09 3.89597E-13
1.21847E-09 3.87736E-13
1.37554E-09 3.85771E-13
1.54213E-09 3.83705E-13
1.71823E-09 3.81539E-13
1.90386E-09 3.79272E-13
2.09900E-09 3.76911E-13
2.30367E-09 3.74462E-13
2.51785E-09 3.71922E-13
2.74156E-09 3.69293E-13
2.97478E-09 3.66584E-13
3.21752E-09 3.63799E-13
3.46978E-09 3.60932E-13
3.73156E-09 3.57991E-13
4.00286E-09 3.54985E-13
4.28368E-09 3.51916E-13
4.57402E-09 3.48773E-13
4.87388E-09 3.45423E-13
5.18326E-09 3.41854E-13
5.50215E-09 3.38335E-13
5.83057E-09 3.34872E-13
6.16850E-09 3.31465E-13
6.51596E-09 3.28120E-13
6.87293E-09 3.24836E-13
7.23942E-09 3.21617E-13
7.61544E-09 3.18031E-13
1.18991E-08 2.80731E-13
1.71347E-08 2.43716E-13
2.33223E-08 2.08882E-13
3.04617E-08 1.76779E-13
3.85531E-08 1.48185E-13
4.75965E-08 1.23705E-13
5.75917E-08 1.03019E-13
6.85389E-08 8.54808E-14
8.04380E-08 7.09143E-14
9.32891E-08 5.89288E-14
1.07092E-07 4.90813E-14
1.21847E-07 4.09192E-14
1.37554E-07 3.42350E-14
1.54213E-07 2.87529E-14
1.71823E-07 2.42399E-14
1.90386E-07 2.05053E-14
2.09900E-07 1.74225E-14
2.30367E-07 1.48680E-14
2.51785E-07 1.27402E-14
2.74156E-07 1.09618E-14
2.97478E-07 9.47262E-15
3.21752E-07 8.22036E-15
3.46978E-07 7.16189E-15
3.73156E-07 6.26458E-15
4.00286E-07 5.50120E-15
4.28368E-07 4.84913E-15
4.57402E-07 4.28957E-15
4.87388E-07 3.80740E-15
5.18325E-07 3.39074E-15
5.50215E-07 3.03053E-15
5.83057E-07 2.71730E-15
6.16850E-07 2.44294E-15
6.51596E-07 2.20297E-15
6.87293E-07 1.99227E-15
7.23942E-07 1.80606E-15
7.61543E-07 1.64155E-15
1.18991E-06 7.10010E-16
1.71347E-06 3.59752E-16
2.33223E-06 2.02556E-16
3.04617E-06 1.22886E-16
3.85531E-06 7.88303E-17
4.75964E-06 5.28267E-17
5.75916E-06 3.66771E-17
6.85388E-06 2.62265E-17
8.04378E-06 1.92281E-17
9.32888E-06 1.44048E-17
1.07092E-05 1.09964E-17
1.21846E-05 8.53462E-18
1.37553E-05 6.72196E-18
1.54212E-05 5.36418E-18
1.71822E-05 4.33134E-18
1.90385E-05 3.53470E-18
2.09899E-05 2.91265E-18
2.30365E-05 2.42127E-18
2.51783E-05 2.02903E-18
2.74153E-05 1.71293E-18
2.97475E-05 1.45593E-18
3.21749E-05 1.24529E-18
3.46974E-05 1.07135E-18
3.73152E-05 9.26700E-19
4.00281E-05 8.05633E-19
4.28362E-05 7.03685E-19
4.57395E-05 6.17347E-19
4.87380E-05 5.43839E-19
5.18317E-05 4.80945E-19
5.50205E-05 4.26876E-19
5.83045E-05 3.80190E-19
6.16838E-05 3.39711E-19
6.51582E-05 3.04475E-19
6.87277E-05 2.73689E-19
7.23925E-05 2.46695E-19
7.61524E-05 2.22946E-19
9.21439E-05 1.52292E-19
1.09658E-04 1.07530E-19
1.28695E-04 7.80660E-20
1.49255E-04 5.80343E-20
1.71338E-04 4.40336E-20
1.94942E-04 3.40096E-20
2.20070E-04 2.66817E-20
2.46720E-04 2.12249E-20
2.74892E-04 1.70941E-20
3.04586E-04 1.39209E-20
3.35803E-04 1.14508E-20
3.68542E-04 9.50485E-21
4.02802E-04 7.95516E-21
4.38585E-04 6.70870E-21
4.75889E-04 5.69700E-21
5.14715E-04 4.86896E-21
5.55063E-04 4.18598E-21
5.96931E-04 3.61861E-21
6.40321E-04 3.14416E-21
6.85233E-04 2.74494E-21
7.31665E-04 2.40709E-21
7.79618E-04 2.11963E-21
8.29092E-04 1.87381E-21
8.80086E-04 1.66260E-21
9.32601E-04 1.48031E-21
9.86636E-04 1.32231E-21
1.04219E-03 1.18484E-21
1.09927E-03 1.06476E-21
1.15786E-03 9.59505E-22
1.21797E-03 8.66934E-22
1.27961E-03 7.85254E-22
1.34276E-03 7.12965E-22
1.40743E-03 6.48800E-22
1.47362E-03 5.91689E-22
1.54133E-03 5.40721E-22
1.61056E-03 4.95121E-22
1.68131E-03 4.54224E-22
1.75357E-03 4.17460E-22
1.82735E-03 3.84339E-22
1.90265E-03 3.54436E-22
1.97947E-03 3.27382E-22
2.05780E-03 3.02859E-22
2.13765E-03 2.80588E-22
2.21902E-03 2.60324E-22
2.30190E-03 2.41856E-22
2.38630E-03 2.24995E-22
2.47222E-03 2.09577E-22
2.55965E-03 1.95456E-22
2.64859E-03 1.82503E-22
2.73905E-03 1.70604E-22
2.83103E-03 1.59658E-22
2.92452E-03 1.49576E-22
3.01952E-03 1.40276E-22
3.11604E-03 1.31686E-22
3.21407E-03 1.23744E-22
3.31362E-03 1.16390E-22
3.41468E-03 1.09575E-22
3.51725E-03 1.03250E-22
3.62133E-03 9.73742E-23
3.72692E-03 9.19102E-23
3.83403E-03 8.68236E-23
3.94265E-03 8.20836E-23
4.05278E-03 7.76622E-23
4.16442E-03 7.35342E-23
4.27757E-03 6.96764E-23
4.39223E-03 6.60680E-23
4.50840E-03 6.26898E-23
4.62608E-03 5.95245E-23
4.74527E-03 5.65561E-23
4.86597E-03 5.37702E-23
4.98817E-03 5.11535E-23
5.11188E-03 4.86938E-23
5.23711E-03 4.63800E-23
5.36383E-03 4.42017E-23
5.49207E-03 4.21496E-23
5.62181E-03 4.02150E-23
5.75306E-03 3.83900E-23
5.88581E-03 3.66671E-23
6.02007E-03 3.50397E-23
6.15583E-03 3.35014E-23
6.29310E-03 3.20464E-23
6.43187E-03 3.06694E-23
6.57214E-03 2.93654E-23
6.71392E-03 2.81299E-23
6.85720E-03 2.69586E-23
7.00198E-03 2.58475E-23
7.14827E-03 2.47929E-23
7.29605E-03 2.37914E-23
7.44534E-03 2.28400E-23
7.59612E-03 2.19355E-23
7.97965E-03 1.98622E-23
8.37255E-03 1.80277E-23
8.77480E-03 1.63998E-23
9.18641E-03 1.49511E-23
9.60736E-03 1.36586E-23
1.00376E-02 1.25025E-23
1.04773E-02 1.14658E-23
1.09262E-02 1.05342E-23
1.13844E-02 9.69500E-24
1.18520E-02 8.93755E-24
1.23288E-02 8.25246E-24
1.28150E-02 7.63158E-24
1.33104E-02 7.06786E-24
1.38150E-02 6.55508E-24
1.43290E-02 6.08784E-24
1.48521E-02 5.66137E-24
1.53845E-02 5.27148E-24
1.59262E-02 4.91448E-24
1.64770E-02 4.58709E-24
1.70371E-02 4.28643E-24
1.76063E-02 4.00992E-24
1.81848E-02 3.75527E-24
1.87724E-02 3.52044E-24
1.93692E-02 3.30362E-24
1.99751E-02 3.10317E-24
2.05901E-02 2.91763E-24
2.12143E-02 2.74571E-24
2.18476E-02 2.58621E-24
2.24900E-02 2.43808E-24
2.31415E-02 2.30035E-24
2.38021E-02 2.17218E-24
2.44717E-02 2.05277E-24
2.51504E-02 1.94141E-24
2.58382E-02 1.83747E-24
2.65349E-02 1.74036E-24
2.72407E-02 1.64955E-24
2.79555E-02 1.56456E-24
2.86793E-02 1.48494E-24
2.94120E-02 1.41030E-24
3.01537E-02 1.34027E-24
3.09043E-02 1.27450E-24
3.16639E-02 1.21270E-24
3.24324E-02 1.15458E-24
3.32098E-02 1.09988E-24
3.39961E-02 1.04836E-24
3.47912E-02 9.99806E-25
3.55952E-02 9.54013E-25
3.64081E-02 9.10796E-25
3.72297E-02 8.69983E-25
3.80602E-02 8.31417E-25
3.88995E-02 7.94950E-25
3.97476E-02 7.60447E-25
4.06044E-02 7.27784E-25
4.14700E-02 6.96844E-25
4.23443E-02 6.67519E-25
4.32273E-02 6.39710E-25
4.41190E-02 6.13323E-25
4.50194E-02 5.88273E-25
4.59284E-02 5.64480E-25
4.68461E-02 5.41868E-25
4.87074E-02 4.99916E-25
5.06030E-02 4.61916E-25
5.25328E-02 4.27432E-25
5.44967E-02 3.96080E-25
5.64946E-02 3.67527E-25
5.85262E-02 3.41479E-25
6.05914E-02 3.17678E-25
6.26901E-02 2.95896E-25
6.48222E-02 2.75931E-25
6.69873E-02 2.57606E-25
6.91854E-02 2.40763E-25
7.14163E-02 2.25259E-25
7.36799E-02 2.10970E-25
7.59760E-02 1.97784E-25
7.83043E-02 1.85601E-25
8.06647E-02 1.74331E-25
8.30571E-02 1.63893E-25
8.54812E-02 1.54215E-25
8.79369E-02 1.45232E-25
9.04240E-02 1.36886E-25
9.29422E-02 1.29122E-25
9.54915E-02 1.21894E-25
9.80716E-02 1.15157E-25
1.00682E-01 1.08873E-25
1.03323E-01 1.03005E-25
1.05995E-01 9.75214E-26
1.08696E-01 9.23921E-26
1.11427E-01 8.75904E-26
1.14188E-01 8.30915E-26
1.16978E-01 7.88729E-26
1.19797E-01 7.49141E-26
1.22645E-01 7.11963E-26
1.25522E-01 6.77021E-26
1.28428E-01 6.44157E-26
1.31361E-01 6.13226E-26
1.34323E-01 5.84093E-26
1.37313E-01 5.56636E-26
1.40330E-01 5.30741E-26
1.43375E-01 5.06303E-26
1.46447E-01 4.83226E-26
1.49545E-01 4.61421E-26
1.52671E-01 4.40804E-26
1.55823E-01 4.21301E-26
1.59001E-01 4.02839E-26
1.62205E-01 3.85353E-26
1.65435E-01 3.68783E-26
1.68690E-01 3.53073E-26
1.71970E-01 3.38169E-26
1.75276E-01 3.24023E-26
1.78606E-01 3.10589E-26
1.81961E-01 2.97826E-26
1.85340E-01 2.85694E-26
1.88743E-01 2.74156E-26
1.92169E-01 2.63178E-26
1.95619E-01 2.52728E-26
1.99092E-01 2.42776E-26
2.02589E-01 2.33295E-26
2.06107E-01 2.24257E-26
2.09649E-01 2.15639E-26
2.13212E-01 2.07418E-26
2.16797E-01 1.99572E-26
2.20404E-01 1.92081E-26
2.24032E-01 1.84926E-26
2.27680E-01 1.78090E-26
2.31350E-01 1.71555E-26
2.35040E-01 1.65306E-26
2.38751E-01 1.59329E-26
2.42481E-01 1.53610E-26
2.46231E-01 1.48135E-26
2.50000E-01 1.42892E-26
2.53788E-01 1.37870E-26
2.57595E-01 1.33057E-26
2.61421E-01 1.28445E-26
2.65264E-01 1.24021E-26
2.69126E-01 1.19779E-26
2.73005E-01 1.15708E-26
2.76901E-01 1.11801E-26
2.80814E-01 1.08051E-26
2.84744E-01 1.04448E-26
2.88691E-01 1.00988E-26
2.92653E-01 9.76631E-27
2.96632E-01 9.44672E-27
3.00625E-01 9.13944E-27
3.04634E-01 8.84392E-27
3.08658E-01 8.55964E-27
3.12697E-01 8.28609E-27
3.16749E-01 8.02280E-27
3.20816E-01 7.76932E-27
3.24896E-01 7.52522E-27
3.28990E-01 7.29010E-27
3.33097E-01 7.06356E-27
3.37216E-01 6.84524E-27
3.41348E-01 6.63480E-27
3.45492E-01 6.43189E-27
3.49647E-01 6.23621E-27
3.53814E-01 6.04745E-27
3.57992E-01 5.86533E-27
3.62181E-01 5.68958E-27
3.66381E-01 5.51992E-27
3.70590E-01 5.35613E-27
3.74810E-01 5.19795E-27
3.79039E-01 5.04517E-27
3.83277E-01 4.89757E-27
3.87524E-01 4.75494E-27
3.91780E-01 4.61710E-27
3.96044E-01 4.48384E-27
4.00316E-01 4.35500E-27
4.04596E-01 4.23041E-27
4.08882E-01 4.10989E-27
4.13176E-01 3.99331E-27
4.17476E-01 3.88049E-27
4.21783E-01 3.77131E-27
4.26095E-01 3.66563E-27
4.30413E-01 3.56332E-27
4.34737E-01 3.46424E-27
4.39065E-01 3.36829E-27
4.43398E-01 3.27535E-27
4.47736E-01 3.18531E-27
4.52077E-01 3.09806E-27
4.56422E-01 3.01350E-27
4.60770E-01 2.93154E-27
4.65122E-01 2.85209E-27
4.69476E-01 2.77505E-27
4.73832E-01 2.70033E-27
4.78190E-01 2.62787E-27
4.82550E-01 2.55758E-27
4.86912E-01 2.48938E-27
4.91274E-01 2.42320E-27
4.95637E-01 2.35897E-27
5.00000E-01 2.29663E-27
5.04363E-01 2.23612E-27
5.08726E-01 2.17736E-27
5.13088E-01 2.12030E-27
5.17450E-01 2.06489E-27
5.21810E-01 2.01107E-27
5.26168E-01 1.95878E-27
5.30524E-01 1.90798E-27
5.34878E-01 1.85862E-27
5.39230E-01 1.81065E-27
5.43578E-01 1.76402E-27
5.47923E-01 1.71869E-27
5.52264E-01 1.67463E-27
5.56602E-01 1.63178E-27
5.60935E-01 1.59012E-27
5.65263E-01 1.54960E-27
5.69587E-01 1.51018E-27
5.73905E-01 1.47184E-27
5.78217E-01 1.43454E-27
5.82524E-01 1.39824E-27
5.86824E-01 1.36292E-27
5.91118E-01 1.32854E-27
5.95404E-01 1.29508E-27
5.99684E-01 1.26251E-27
6.03956E-01 1.23080E-27
6.08220E-01 1.19993E-27
6.12476E-01 1.16986E-27
6.16723E-01 1.14059E-27
6.20961E-01 1.11207E-27
6.25190E-01 1.08430E-27
6.29410E-01 1.05724E-27
6.33619E-01 1.03088E-27
6.37819E-01 1.00519E-27
6.42008E-01 9.80165E-28
6.46186E-01 9.55775E-28
6.50353E-01 9.32004E-28
6.54508E-01 9.08835E-28
6.58652E-01 8.86249E-28
6.62784E-01 8.64231E-28
6.66903E-01 8.42764E-28
6.71010E-01 8.21833E-28
6.75104E-01 8.01422E-28
6.79184E-01 7.81518E-28
6.83251E-01 7.62105E-28
6.87303E-01 7.43170E-28
6.91342E-01 7.24700E-28
6.95366E-01 7.06682E-28
6.99375E-01 6.89104E-28
7.03368E-01 6.71954E-28
7.07347E-01 6.55219E-28
7.11309E-01 6.38889E-28
7.15256E-01 6.22953E-28
7.19186E-01 6.07400E-28
7.23099E-01 5.92220E-28
7.26995E-01 5.77403E-28
7.30874E-01 5.62939E-28
7.34736E-01 5.48819E-28
7.38579E-01 5.35034E-28
7.42405E-01 5.21575E-28
7.46212E-01 5.08434E-28
7.50000E-01 4.95602E-28
7.53769E-01 4.83072E-28
7.57519E-01 4.70835E-28
7.61249E-01 4.58884E-28
7.64960E-01 4.47212E-28
7.68650E-01 4.35811E-28
7.72320E-01 4.24675E-28
7.75968E-01 4.13797E-28
7.79596E-01 4.03171E-28
7.83203E-01 3.92790E-28
7.86788E-01 3.82648E-28
7.90351E-01 3.72740E-28
7.93893E-01 3.63058E-28
7.97411E-01 3.53599E-28
8.00908E-01 3.44356E-28
8.04381E-01 3.35324E-28
8.07831E-01 3.26498E-28
8.11257E-01 3.17874E-28
8.14660E-01 3.09445E-28
8.18039E-01 3.01208E-28
8.21394E-01 2.93158E-28
8.24724E-01 2.85290E-28
8.28030E-01 2.77601E-28
8.31310E-01 2.70085E-28
8.34565E-01 2.62739E-28
8.37795E-01 2.55560E-28
8.40999E-01 2.48542E-28
8.44177E-01 2.41683E-28
8.47329E-01 2.34979E-28
8.50455E-01 2.28425E-28
8.53553E-01 2.22020E-28
8.56625E-01 2.15759E-28
8.59670E-01 2.09639E-28
8.62687E-01 2.03657E-28
8.65677E-01 1.97810E-28
8.68639E-01 1.92095E-28
8.71572E-01 1.86509E-28
8.74478E-01 1.81049E-28
8.77355E-01 1.75713E-28
8.80203E-01 1.70497E-28
8.83022E-01 1.65400E-28
8.85812E-01 1.60418E-28
8.88573E-01 1.55550E-28
8.91304E-01 1.50792E-28
8.94005E-01 1.46143E-28
8.96677E-01 1.41600E-28
8.99318E-01 1.37161E-28
9.01928E-01 1.32824E-28
9.04508E-01 1.28587E-28
9.07058E-01 1.24447E-28
9.09576E-01 1.20404E-28
9.12063E-01 1.16454E-28
9.14519E-01 1.12596E-28
9.16943E-01 1.08828E-28
9.19335E-01 1.05149E-28
9.21696E-01 1.01557E-28
9.24024E-01 9.80491E-29
9.26320E-01 9.46250E-29
9.28584E-01 9.12828E-29
9.30815E-01 8.80209E-29
9.33013E-01 8.48378E-29
9.35178E-01 8.17321E-29
9.37310E-01 7.87023E-29
9.39409E-01 7.57471E-29
9.41474E-01 7.28651E-29
9.43505E-01 7.00551E-29
9.45503E-01 6.73158E-29
9.47467E-01 6.46460E-29
9.49397E-01 6.20444E-29
9.51293E-01 5.95100E-29
9.53154E-01 5.70416E-29
9.54981E-01 5.46381E-29
9.56773E-01 5.22985E-29
9.58530E-01 5.00217E-29
9.60252E-01 4.78068E-29
9.61940E-01 4.56528E-29
9.63592E-01 4.35587E-29
9.65209E-01 4.15237E-29
9.66790E-01 3.95469E-29
9.68336E-01 3.76273E-29
9.69846E-01 3.57643E-29
9.71321E-01 3.39570E-29
9.72759E-01 3.22046E-29
9.74162E-01 3.05064E-29
9.75528E-01 2.88616E-29
9.76858E-01 2.72696E-29
9.78152E-01 2.57297E-29
9.79410E-01 2.42412E-29
9.80631E-01 2.28036E-29
9.81815E-01 2.14162E-29
9.82963E-01 2.00784E-29
9.84074E-01 1.87896E-29
9.85148E-01 1.75494E-29
9.86185E-01 1.63572E-29
9.87185E-01 1.52126E-29
9.88148E-01 1.41149E-29
9.89074E-01 1.30639E-29
9.89962E-01 1.20590E-29
9.90814E-01 1.10999E-29
9.91627E-01 1.01861E-29
9.92404E-01 9.31723E-30
9.93143E-01 8.49301E-30
9.93844E-01 7.71306E-30
9.94508E-01 6.97705E-30
9.95134E-01 6.28470E-30
9.95722E-01 5.63570E-30
9.96273E-01 5.02981E-30
9.96786E-01 4.46677E-30
9.97261E-01 3.94635E-30
9.97698E-01 3.46834E-30
9.98097E-01 3.03254E-30
9.98459E-01 2.63878E-30
9.98782E-01 2.28690E-30
9.99067E-01 1.97675E-30
9.99315E-01 1.70821E-30
9.99524E-01 1.48116E-30
9.99695E-01 1.29553E-30
9.99829E-01 1.15121E-30
9.99924E-01 1.04820E-30
9.99981E-01 9.86387E-31
1.00000E+00 9.65738E-31
