 #
 # Subroutine ELSEPA. Elastic scattering of electrons and positrons
 #                    by neutral atoms and positive ions
 #
 # Projectile: positron
 # Kinetic energy = 9.00000E+06 eV = 3.30744E+05 a.u.
 #
 # WARNING: High-energy factorization with free-atom DF screening.
 #          Absorption, polarization and exchange corrections are
 #          switched off.
 #          Phase shifts are calculated for the bare nucleus.
 #          Scattering amplitudes are not evaluated.
 #
 # Element:  F,  Z =   9,  atomic weight = 1.89984E+01 g/mol
 #
 # Nuclear model: Fermi distribution
 #                Average radius = 2.85511E-13 cm
 #                Skin thickness = 5.46000E-14 cm
 #
 # Number of electrons =  9
 #
 # Total elastic cross section = 2.85789E-19 cm**2 = 1.02057E-02 a0**2
 # 1st transport cross section = 1.51076E-24 cm**2 = 5.39504E-08 a0**2
 # 2nd transport cross section = 4.36790E-24 cm**2 = 1.55980E-07 a0**2
 #
 #
 # Differential cross section:                       MU=(1-COS(THETA))/2
 #
 #  THETA        MU          DCS          DCS        Sherman      error
 #  (deg)                 (cm**2/sr)   (a0**2/sr)    function
 #----------------------------------------------------------------------
0.00000E+00 1.12519E-13
7.61557E-13 1.12518E-13
1.18994E-12 1.12518E-13
1.71346E-12 1.12517E-13
2.33225E-12 1.12516E-13
3.04617E-12 1.12516E-13
3.85530E-12 1.12515E-13
4.75964E-12 1.12514E-13
5.75917E-12 1.12513E-13
6.85391E-12 1.12511E-13
8.04379E-12 1.12510E-13
9.32893E-12 1.12509E-13
1.07092E-11 1.12507E-13
1.21847E-11 1.12506E-13
1.37554E-11 1.12504E-13
1.54213E-11 1.12502E-13
1.71823E-11 1.12501E-13
1.90386E-11 1.12499E-13
2.09900E-11 1.12497E-13
2.30367E-11 1.12494E-13
2.51785E-11 1.12492E-13
2.74156E-11 1.12490E-13
2.97478E-11 1.12487E-13
3.21752E-11 1.12485E-13
3.46979E-11 1.12482E-13
3.73157E-11 1.12480E-13
4.00286E-11 1.12477E-13
4.28368E-11 1.12474E-13
4.57402E-11 1.12471E-13
4.87388E-11 1.12468E-13
5.18325E-11 1.12464E-13
5.50215E-11 1.12461E-13
5.83057E-11 1.12458E-13
6.16850E-11 1.12454E-13
6.51595E-11 1.12450E-13
6.87293E-11 1.12447E-13
7.23943E-11 1.12443E-13
7.61544E-11 1.12439E-13
1.18991E-10 1.12395E-13
1.71347E-10 1.12340E-13
2.33223E-10 1.12276E-13
3.04617E-10 1.12202E-13
3.85531E-10 1.12119E-13
4.75965E-10 1.12026E-13
5.75917E-10 1.11923E-13
6.85389E-10 1.11811E-13
8.04380E-10 1.11689E-13
9.32891E-10 1.11557E-13
1.07092E-09 1.11417E-13
1.21847E-09 1.11266E-13
1.37554E-09 1.11107E-13
1.54213E-09 1.10938E-13
1.71823E-09 1.10760E-13
1.90386E-09 1.10572E-13
2.09900E-09 1.10376E-13
2.30367E-09 1.10171E-13
2.51785E-09 1.09956E-13
2.74156E-09 1.09734E-13
2.97478E-09 1.09501E-13
3.21752E-09 1.09261E-13
3.46978E-09 1.09012E-13
3.73156E-09 1.08754E-13
4.00286E-09 1.08488E-13
4.28368E-09 1.08214E-13
4.57402E-09 1.07931E-13
4.87388E-09 1.07640E-13
5.18326E-09 1.07342E-13
5.50215E-09 1.07035E-13
5.83057E-09 1.06720E-13
6.16850E-09 1.06399E-13
6.51596E-09 1.06068E-13
6.87293E-09 1.05731E-13
7.23942E-09 1.05387E-13
7.61544E-09 1.05035E-13
1.18991E-08 1.01147E-13
1.71347E-08 9.66720E-14
2.33223E-08 9.15644E-14
3.04617E-08 8.63108E-14
3.85531E-08 8.11041E-14
4.75965E-08 7.54298E-14
5.75917E-08 6.99789E-14
6.85389E-08 6.48268E-14
8.04380E-08 5.95259E-14
9.32891E-08 5.46118E-14
1.07092E-07 5.00878E-14
1.21847E-07 4.56228E-14
1.37554E-07 4.15629E-14
1.54213E-07 3.78817E-14
1.71823E-07 3.43537E-14
1.90386E-07 3.11786E-14
2.09900E-07 2.83238E-14
2.30367E-07 2.56424E-14
2.51785E-07 2.32412E-14
2.74156E-07 2.10911E-14
2.97478E-07 1.90985E-14
3.21752E-07 1.73171E-14
3.46978E-07 1.57241E-14
3.73156E-07 1.42604E-14
4.00286E-07 1.29514E-14
4.28368E-07 1.17802E-14
4.57402E-07 1.07094E-14
4.87388E-07 9.75015E-15
5.18325E-07 8.89028E-15
5.50215E-07 8.10644E-15
5.83057E-07 7.40246E-15
6.16850E-07 6.76980E-15
6.51596E-07 6.19361E-15
6.87293E-07 5.67455E-15
7.23942E-07 5.20661E-15
7.61543E-07 4.78029E-15
1.18991E-06 2.17517E-15
1.71347E-06 1.10638E-15
2.33223E-06 6.18867E-16
3.04617E-06 3.74018E-16
3.85531E-06 2.40308E-16
4.75964E-06 1.62042E-16
5.75916E-06 1.13582E-16
6.85388E-06 8.21560E-17
8.04378E-06 6.09620E-17
9.32888E-06 4.62238E-17
1.07092E-05 3.56995E-17
1.21846E-05 2.80048E-17
1.37553E-05 2.22749E-17
1.54212E-05 1.79358E-17
1.71822E-05 1.45980E-17
1.90385E-05 1.19982E-17
2.09899E-05 9.94994E-18
2.30365E-05 8.31761E-18
2.51783E-05 7.00481E-18
2.74153E-05 5.93969E-18
2.97475E-05 5.06807E-18
3.21749E-05 4.34972E-18
3.46974E-05 3.75358E-18
3.73152E-05 3.25552E-18
4.00281E-05 2.83696E-18
4.28362E-05 2.48324E-18
4.57395E-05 2.18267E-18
4.87380E-05 1.92601E-18
5.18317E-05 1.70583E-18
5.50205E-05 1.51609E-18
5.83045E-05 1.35190E-18
6.16838E-05 1.20927E-18
6.51582E-05 1.08489E-18
6.87277E-05 9.76040E-19
7.23925E-05 8.80467E-19
7.61524E-05 7.96272E-19
9.21439E-05 5.45140E-19
1.09658E-04 3.85500E-19
1.28695E-04 2.80171E-19
1.49255E-04 2.08440E-19
1.71338E-04 1.58243E-19
1.94942E-04 1.22274E-19
2.20070E-04 9.59614E-20
2.46720E-04 7.63561E-20
2.74892E-04 6.15084E-20
3.04586E-04 5.00984E-20
3.35803E-04 4.12142E-20
3.68542E-04 3.42139E-20
4.02802E-04 2.86380E-20
4.38585E-04 2.41525E-20
4.75889E-04 2.05114E-20
5.14715E-04 1.75310E-20
5.55063E-04 1.50725E-20
5.96931E-04 1.30300E-20
6.40321E-04 1.13219E-20
6.85233E-04 9.88444E-21
7.31665E-04 8.66793E-21
7.79618E-04 7.63286E-21
8.29092E-04 6.74770E-21
8.80086E-04 5.98715E-21
9.32601E-04 5.33074E-21
9.86636E-04 4.76182E-21
1.04219E-03 4.26677E-21
1.09927E-03 3.83438E-21
1.15786E-03 3.45536E-21
1.21797E-03 3.12202E-21
1.27961E-03 2.82789E-21
1.34276E-03 2.56757E-21
1.40743E-03 2.33651E-21
1.47362E-03 2.13085E-21
1.54133E-03 1.94731E-21
1.61056E-03 1.78310E-21
1.68131E-03 1.63583E-21
1.75357E-03 1.50344E-21
1.82735E-03 1.38416E-21
1.90265E-03 1.27648E-21
1.97947E-03 1.17905E-21
2.05780E-03 1.09074E-21
2.13765E-03 1.01054E-21
2.21902E-03 9.37563E-22
2.30190E-03 8.71054E-22
2.38630E-03 8.10334E-22
2.47222E-03 7.54809E-22
2.55965E-03 7.03954E-22
2.64859E-03 6.57307E-22
2.73905E-03 6.14456E-22
2.83103E-03 5.75038E-22
2.92452E-03 5.38727E-22
3.01952E-03 5.05234E-22
3.11604E-03 4.74301E-22
3.21407E-03 4.45697E-22
3.31362E-03 4.19215E-22
3.41468E-03 3.94668E-22
3.51725E-03 3.71890E-22
3.62133E-03 3.50729E-22
3.72692E-03 3.31051E-22
3.83403E-03 3.12732E-22
3.94265E-03 2.95661E-22
4.05278E-03 2.79737E-22
4.16442E-03 2.64870E-22
4.27757E-03 2.50976E-22
4.39223E-03 2.37981E-22
4.50840E-03 2.25814E-22
4.62608E-03 2.14414E-22
4.74527E-03 2.03723E-22
4.86597E-03 1.93690E-22
4.98817E-03 1.84265E-22
5.11188E-03 1.75406E-22
5.23711E-03 1.67073E-22
5.36383E-03 1.59227E-22
5.49207E-03 1.51836E-22
5.62181E-03 1.44868E-22
5.75306E-03 1.38295E-22
5.88581E-03 1.32090E-22
6.02007E-03 1.26228E-22
6.15583E-03 1.20688E-22
6.29310E-03 1.15447E-22
6.43187E-03 1.10488E-22
6.57214E-03 1.05791E-22
6.71392E-03 1.01341E-22
6.85720E-03 9.71220E-23
7.00198E-03 9.31199E-23
7.14827E-03 8.93214E-23
7.29605E-03 8.57144E-23
7.44534E-03 8.22872E-23
7.59612E-03 7.90292E-23
7.97965E-03 7.15614E-23
8.37255E-03 6.49536E-23
8.77480E-03 5.90897E-23
9.18641E-03 5.38715E-23
9.60736E-03 4.92157E-23
1.00376E-02 4.50510E-23
1.04773E-02 4.13168E-23
1.09262E-02 3.79607E-23
1.13844E-02 3.49377E-23
1.18520E-02 3.22091E-23
1.23288E-02 2.97411E-23
1.28150E-02 2.75044E-23
1.33104E-02 2.54735E-23
1.38150E-02 2.36261E-23
1.43290E-02 2.19428E-23
1.48521E-02 2.04063E-23
1.53845E-02 1.90016E-23
1.59262E-02 1.77154E-23
1.64770E-02 1.65358E-23
1.70371E-02 1.54525E-23
1.76063E-02 1.44562E-23
1.81848E-02 1.35387E-23
1.87724E-02 1.26926E-23
1.93692E-02 1.19113E-23
1.99751E-02 1.11890E-23
2.05901E-02 1.05204E-23
2.12143E-02 9.90091E-24
2.18476E-02 9.32614E-24
2.24900E-02 8.79232E-24
2.31415E-02 8.29601E-24
2.38021E-02 7.83408E-24
2.44717E-02 7.40374E-24
2.51504E-02 7.00242E-24
2.58382E-02 6.62781E-24
2.65349E-02 6.27782E-24
2.72407E-02 5.95052E-24
2.79555E-02 5.64418E-24
2.86793E-02 5.35721E-24
2.94120E-02 5.08817E-24
3.01537E-02 4.83572E-24
3.09043E-02 4.59867E-24
3.16639E-02 4.37589E-24
3.24324E-02 4.16637E-24
3.32098E-02 3.96918E-24
3.39961E-02 3.78345E-24
3.47912E-02 3.60841E-24
3.55952E-02 3.44331E-24
3.64081E-02 3.28750E-24
3.72297E-02 3.14036E-24
3.80602E-02 3.00130E-24
3.88995E-02 2.86982E-24
3.97476E-02 2.74541E-24
4.06044E-02 2.62764E-24
4.14700E-02 2.51607E-24
4.23443E-02 2.41032E-24
4.32273E-02 2.31004E-24
4.41190E-02 2.21488E-24
4.50194E-02 2.12454E-24
4.59284E-02 2.03873E-24
4.68461E-02 1.95718E-24
4.87074E-02 1.80587E-24
5.06030E-02 1.66881E-24
5.25328E-02 1.54442E-24
5.44967E-02 1.43132E-24
5.64946E-02 1.32831E-24
5.85262E-02 1.23433E-24
6.05914E-02 1.14845E-24
6.26901E-02 1.06985E-24
6.48222E-02 9.97804E-25
6.69873E-02 9.31669E-25
6.91854E-02 8.70876E-25
7.14163E-02 8.14915E-25
7.36799E-02 7.63335E-25
7.59760E-02 7.15733E-25
7.83043E-02 6.71747E-25
8.06647E-02 6.31053E-25
8.30571E-02 5.93362E-25
8.54812E-02 5.58413E-25
8.79369E-02 5.25970E-25
9.04240E-02 4.95822E-25
9.29422E-02 4.67779E-25
9.54915E-02 4.41665E-25
9.80716E-02 4.17327E-25
1.00682E-01 3.94620E-25
1.03323E-01 3.73416E-25
1.05995E-01 3.53599E-25
1.08696E-01 3.35060E-25
1.11427E-01 3.17703E-25
1.14188E-01 3.01440E-25
1.16978E-01 2.86188E-25
1.19797E-01 2.71874E-25
1.22645E-01 2.58430E-25
1.25522E-01 2.45793E-25
1.28428E-01 2.33906E-25
1.31361E-01 2.22718E-25
1.34323E-01 2.12178E-25
1.37313E-01 2.02244E-25
1.40330E-01 1.92874E-25
1.43375E-01 1.84030E-25
1.46447E-01 1.75678E-25
1.49545E-01 1.67785E-25
1.52671E-01 1.60321E-25
1.55823E-01 1.53259E-25
1.59001E-01 1.46574E-25
1.62205E-01 1.40242E-25
1.65435E-01 1.34240E-25
1.68690E-01 1.28549E-25
1.71970E-01 1.23149E-25
1.75276E-01 1.18024E-25
1.78606E-01 1.13156E-25
1.81961E-01 1.08530E-25
1.85340E-01 1.04132E-25
1.88743E-01 9.99495E-26
1.92169E-01 9.59691E-26
1.95619E-01 9.21796E-26
1.99092E-01 8.85703E-26
2.02589E-01 8.51310E-26
2.06107E-01 8.18523E-26
2.09649E-01 7.87254E-26
2.13212E-01 7.57420E-26
2.16797E-01 7.28943E-26
2.20404E-01 7.01751E-26
2.24032E-01 6.75776E-26
2.27680E-01 6.50952E-26
2.31350E-01 6.27221E-26
2.35040E-01 6.04525E-26
2.38751E-01 5.82812E-26
2.42481E-01 5.62031E-26
2.46231E-01 5.42136E-26
2.50000E-01 5.23081E-26
2.53788E-01 5.04825E-26
2.57595E-01 4.87329E-26
2.61421E-01 4.70555E-26
2.65264E-01 4.54469E-26
2.69126E-01 4.39037E-26
2.73005E-01 4.24227E-26
2.76901E-01 4.10011E-26
2.80814E-01 3.96361E-26
2.84744E-01 3.83249E-26
2.88691E-01 3.70651E-26
2.92653E-01 3.58544E-26
2.96632E-01 3.46905E-26
3.00625E-01 3.35712E-26
3.04634E-01 3.24945E-26
3.08658E-01 3.14586E-26
3.12697E-01 3.04616E-26
3.16749E-01 2.95019E-26
3.20816E-01 2.85777E-26
3.24896E-01 2.76876E-26
3.28990E-01 2.68300E-26
3.33097E-01 2.60035E-26
3.37216E-01 2.52069E-26
3.41348E-01 2.44389E-26
3.45492E-01 2.36983E-26
3.49647E-01 2.29839E-26
3.53814E-01 2.22946E-26
3.57992E-01 2.16294E-26
3.62181E-01 2.09873E-26
3.66381E-01 2.03674E-26
3.70590E-01 1.97688E-26
3.74810E-01 1.91906E-26
3.79039E-01 1.86320E-26
3.83277E-01 1.80922E-26
3.87524E-01 1.75705E-26
3.91780E-01 1.70662E-26
3.96044E-01 1.65786E-26
4.00316E-01 1.61070E-26
4.04596E-01 1.56509E-26
4.08882E-01 1.52096E-26
4.13176E-01 1.47825E-26
4.17476E-01 1.43693E-26
4.21783E-01 1.39692E-26
4.26095E-01 1.35819E-26
4.30413E-01 1.32068E-26
4.34737E-01 1.28435E-26
4.39065E-01 1.24916E-26
4.43398E-01 1.21507E-26
4.47736E-01 1.18203E-26
4.52077E-01 1.15000E-26
4.56422E-01 1.11896E-26
4.60770E-01 1.08887E-26
4.65122E-01 1.05968E-26
4.69476E-01 1.03138E-26
4.73832E-01 1.00393E-26
4.78190E-01 9.77291E-27
4.82550E-01 9.51448E-27
4.86912E-01 9.26368E-27
4.91274E-01 9.02026E-27
4.95637E-01 8.78396E-27
5.00000E-01 8.55454E-27
5.04363E-01 8.33177E-27
5.08726E-01 8.11542E-27
5.13088E-01 7.90529E-27
5.17450E-01 7.70115E-27
5.21810E-01 7.50282E-27
5.26168E-01 7.31010E-27
5.30524E-01 7.12280E-27
5.34878E-01 6.94076E-27
5.39230E-01 6.76380E-27
5.43578E-01 6.59175E-27
5.47923E-01 6.42446E-27
5.52264E-01 6.26178E-27
5.56602E-01 6.10356E-27
5.60935E-01 5.94966E-27
5.65263E-01 5.79993E-27
5.69587E-01 5.65426E-27
5.73905E-01 5.51252E-27
5.78217E-01 5.37457E-27
5.82524E-01 5.24031E-27
5.86824E-01 5.10962E-27
5.91118E-01 4.98240E-27
5.95404E-01 4.85853E-27
5.99684E-01 4.73791E-27
6.03956E-01 4.62046E-27
6.08220E-01 4.50606E-27
6.12476E-01 4.39463E-27
6.16723E-01 4.28609E-27
6.20961E-01 4.18034E-27
6.25190E-01 4.07730E-27
6.29410E-01 3.97690E-27
6.33619E-01 3.87906E-27
6.37819E-01 3.78369E-27
6.42008E-01 3.69074E-27
6.46186E-01 3.60013E-27
6.50353E-01 3.51179E-27
6.54508E-01 3.42567E-27
6.58652E-01 3.34168E-27
6.62784E-01 3.25979E-27
6.66903E-01 3.17992E-27
6.71010E-01 3.10201E-27
6.75104E-01 3.02603E-27
6.79184E-01 2.95190E-27
6.83251E-01 2.87958E-27
6.87303E-01 2.80903E-27
6.91342E-01 2.74018E-27
6.95366E-01 2.67300E-27
6.99375E-01 2.60744E-27
7.03368E-01 2.54345E-27
7.07347E-01 2.48099E-27
7.11309E-01 2.42003E-27
7.15256E-01 2.36051E-27
7.19186E-01 2.30241E-27
7.23099E-01 2.24569E-27
7.26995E-01 2.19030E-27
7.30874E-01 2.13622E-27
7.34736E-01 2.08341E-27
7.38579E-01 2.03183E-27
7.42405E-01 1.98146E-27
7.46212E-01 1.93226E-27
7.50000E-01 1.88421E-27
7.53769E-01 1.83726E-27
7.57519E-01 1.79141E-27
7.61249E-01 1.74661E-27
7.64960E-01 1.70284E-27
7.68650E-01 1.66007E-27
7.72320E-01 1.61829E-27
7.75968E-01 1.57746E-27
7.79596E-01 1.53756E-27
7.83203E-01 1.49857E-27
7.86788E-01 1.46047E-27
7.90351E-01 1.42323E-27
7.93893E-01 1.38684E-27
7.97411E-01 1.35126E-27
8.00908E-01 1.31649E-27
8.04381E-01 1.28251E-27
8.07831E-01 1.24929E-27
8.11257E-01 1.21681E-27
8.14660E-01 1.18506E-27
8.18039E-01 1.15403E-27
8.21394E-01 1.12369E-27
8.24724E-01 1.09403E-27
8.28030E-01 1.06503E-27
8.31310E-01 1.03667E-27
8.34565E-01 1.00895E-27
8.37795E-01 9.81851E-28
8.40999E-01 9.55353E-28
8.44177E-01 9.29444E-28
8.47329E-01 9.04112E-28
8.50455E-01 8.79343E-28
8.53553E-01 8.55126E-28
8.56625E-01 8.31447E-28
8.59670E-01 8.08295E-28
8.62687E-01 7.85658E-28
8.65677E-01 7.63525E-28
8.68639E-01 7.41885E-28
8.71572E-01 7.20727E-28
8.74478E-01 7.00040E-28
8.77355E-01 6.79816E-28
8.80203E-01 6.60044E-28
8.83022E-01 6.40713E-28
8.85812E-01 6.21816E-28
8.88573E-01 6.03343E-28
8.91304E-01 5.85285E-28
8.94005E-01 5.67634E-28
8.96677E-01 5.50381E-28
8.99318E-01 5.33518E-28
9.01928E-01 5.17037E-28
9.04508E-01 5.00932E-28
9.07058E-01 4.85193E-28
9.09576E-01 4.69814E-28
9.12063E-01 4.54788E-28
9.14519E-01 4.40108E-28
9.16943E-01 4.25767E-28
9.19335E-01 4.11759E-28
9.21696E-01 3.98078E-28
9.24024E-01 3.84717E-28
9.26320E-01 3.71670E-28
9.28584E-01 3.58932E-28
9.30815E-01 3.46496E-28
9.33013E-01 3.34358E-28
9.35178E-01 3.22512E-28
9.37310E-01 3.10953E-28
9.39409E-01 2.99676E-28
9.41474E-01 2.88675E-28
9.43505E-01 2.77946E-28
9.45503E-01 2.67485E-28
9.47467E-01 2.57287E-28
9.49397E-01 2.47347E-28
9.51293E-01 2.37662E-28
9.53154E-01 2.28227E-28
9.54981E-01 2.19037E-28
9.56773E-01 2.10091E-28
9.58530E-01 2.01382E-28
9.60252E-01 1.92908E-28
9.61940E-01 1.84666E-28
9.63592E-01 1.76651E-28
9.65209E-01 1.68861E-28
9.66790E-01 1.61292E-28
9.68336E-01 1.53941E-28
9.69846E-01 1.46805E-28
9.71321E-01 1.39881E-28
9.72759E-01 1.33167E-28
9.74162E-01 1.26659E-28
9.75528E-01 1.20354E-28
9.76858E-01 1.14251E-28
9.78152E-01 1.08346E-28
9.79410E-01 1.02638E-28
9.80631E-01 9.71240E-29
9.81815E-01 9.18016E-29
9.82963E-01 8.66689E-29
9.84074E-01 8.17236E-29
9.85148E-01 7.69640E-29
9.86185E-01 7.23880E-29
9.87185E-01 6.79938E-29
9.88148E-01 6.37797E-29
9.89074E-01 5.97439E-29
9.89962E-01 5.58849E-29
9.90814E-01 5.22012E-29
9.91627E-01 4.86913E-29
9.92404E-01 4.53536E-29
9.93143E-01 4.21871E-29
9.93844E-01 3.91904E-29
9.94508E-01 3.63622E-29
9.95134E-01 3.37016E-29
9.95722E-01 3.12073E-29
9.96273E-01 2.88786E-29
9.96786E-01 2.67145E-29
9.97261E-01 2.47140E-29
9.97698E-01 2.28764E-29
9.98097E-01 2.12010E-29
9.98459E-01 1.96871E-29
9.98782E-01 1.83342E-29
9.99067E-01 1.71417E-29
9.99315E-01 1.61092E-29
9.99524E-01 1.52361E-29
9.99695E-01 1.45223E-29
9.99829E-01 1.39673E-29
9.99924E-01 1.35712E-29
9.99981E-01 1.33335E-29
1.00000E+00 1.32540E-29
