 #
 # Subroutine ELSEPA. Elastic scattering of electrons and positrons
 #                    by neutral atoms and positive ions
 #
 # Projectile: positron
 # Kinetic energy = 4.00000E+08 eV = 1.46997E+07 a.u.
 #
 # WARNING: High-energy factorization with free-atom DF screening.
 #          Absorption, polarization and exchange corrections are
 #          switched off.
 #          Phase shifts are calculated for the bare nucleus.
 #          Scattering amplitudes are not evaluated.
 #
 # Element:  F,  Z =   9,  atomic weight = 1.89984E+01 g/mol
 #
 # Nuclear model: Fermi distribution
 #                Average radius = 2.85511E-13 cm
 #                Skin thickness = 5.46000E-14 cm
 #
 # Number of electrons =  9
 #
 # Total elastic cross section = 2.84557E-19 cm**2 = 1.01617E-02 a0**2
 # 1st transport cross section = 1.12056E-27 cm**2 = 4.00161E-11 a0**2
 # 2nd transport cross section = 3.35789E-27 cm**2 = 1.19912E-10 a0**2
 #
 #
 # Differential cross section:                       MU=(1-COS(THETA))/2
 #
 #  THETA        MU          DCS          DCS        Sherman      error
 #  (deg)                 (cm**2/sr)   (a0**2/sr)    function
 #----------------------------------------------------------------------
0.00000E+00 1.99527E-10
7.61557E-13 1.97063E-10
1.18994E-12 1.95699E-10
1.71346E-12 1.94052E-10
2.33225E-12 1.92130E-10
3.04617E-12 1.89949E-10
3.85530E-12 1.87521E-10
4.75964E-12 1.84863E-10
5.75917E-12 1.81989E-10
6.85391E-12 1.78913E-10
8.04379E-12 1.75657E-10
9.32893E-12 1.72238E-10
1.07092E-11 1.68399E-10
1.21847E-11 1.64588E-10
1.37554E-11 1.60922E-10
1.54213E-11 1.57181E-10
1.71823E-11 1.52935E-10
1.90386E-11 1.48913E-10
2.09900E-11 1.45112E-10
2.30367E-11 1.40877E-10
2.51785E-11 1.36628E-10
2.74156E-11 1.32647E-10
2.97478E-11 1.28789E-10
3.21752E-11 1.24449E-10
3.46979E-11 1.20405E-10
3.73157E-11 1.16635E-10
4.00286E-11 1.12657E-10
4.28368E-11 1.08656E-10
4.57402E-11 1.04937E-10
4.87388E-11 1.01446E-10
5.18325E-11 9.75797E-11
5.50215E-11 9.39904E-11
5.83057E-11 9.06551E-11
6.16850E-11 8.72819E-11
6.51595E-11 8.38835E-11
6.87293E-11 8.07263E-11
7.23943E-11 7.77902E-11
7.61544E-11 7.46487E-11
1.18991E-10 4.97927E-11
1.71347E-10 3.29021E-11
2.33223E-10 2.18570E-11
3.04617E-10 1.47258E-11
3.85531E-10 1.01046E-11
4.75965E-10 7.07575E-12
5.75917E-10 5.05917E-12
6.85389E-10 3.69221E-12
8.04380E-10 2.74871E-12
9.32891E-10 2.08479E-12
1.07092E-09 1.60819E-12
1.21847E-09 1.26112E-12
1.37554E-09 1.00330E-12
1.54213E-09 8.08599E-13
1.71823E-09 6.59569E-13
1.90386E-09 5.43877E-13
2.09900E-09 4.52853E-13
2.30367E-09 3.80420E-13
2.51785E-09 3.22179E-13
2.74156E-09 2.74860E-13
2.97478E-09 2.36033E-13
3.21752E-09 2.03949E-13
3.46978E-09 1.77231E-13
3.73156E-09 1.54771E-13
4.00286E-09 1.35809E-13
4.28368E-09 1.19706E-13
4.57402E-09 1.05929E-13
4.87388E-09 9.40888E-14
5.18326E-09 8.38744E-14
5.50215E-09 7.50170E-14
5.83057E-09 6.72914E-14
6.16850E-09 6.05422E-14
6.51596E-09 5.46231E-14
6.87293E-09 4.94027E-14
7.23942E-09 4.47919E-14
7.61544E-09 4.07083E-14
1.18991E-08 1.73856E-14
1.71347E-08 8.58498E-15
2.33223E-08 4.69771E-15
3.04617E-08 2.77626E-15
3.85531E-08 1.74196E-15
4.75965E-08 1.14659E-15
5.75917E-08 7.84806E-16
6.85389E-08 5.54927E-16
8.04380E-08 4.03296E-16
9.32891E-08 3.00052E-16
1.07092E-07 2.27808E-16
1.21847E-07 1.76045E-16
1.37554E-07 1.38176E-16
1.54213E-07 1.09960E-16
1.71823E-07 8.85900E-17
1.90386E-07 7.21668E-17
2.09900E-07 5.93781E-17
2.30367E-07 4.93003E-17
2.51785E-07 4.12723E-17
2.74156E-07 3.48136E-17
2.97478E-07 2.95701E-17
3.21752E-07 2.52776E-17
3.46978E-07 2.17364E-17
3.73156E-07 1.87938E-17
4.00286E-07 1.63327E-17
4.28368E-07 1.42615E-17
4.57402E-07 1.25085E-17
4.87388E-07 1.10167E-17
5.18325E-07 9.74083E-18
5.50215E-07 8.64443E-18
5.83057E-07 7.69804E-18
6.16850E-07 6.87768E-18
6.51596E-07 6.16375E-18
6.87293E-07 5.54009E-18
7.23942E-07 4.99335E-18
7.61543E-07 4.51243E-18
1.18991E-06 1.84825E-18
1.71347E-06 8.91293E-19
2.33223E-06 4.81080E-19
3.04617E-06 2.81989E-19
3.85531E-06 1.76037E-19
4.75964E-06 1.15493E-19
5.75916E-06 7.88801E-20
6.85388E-06 5.56923E-20
8.04378E-06 4.04323E-20
9.32888E-06 3.00587E-20
1.07092E-05 2.28086E-20
1.21846E-05 1.76184E-20
1.37553E-05 1.38239E-20
1.54212E-05 1.09981E-20
1.71822E-05 8.85881E-21
1.90385E-05 7.21509E-21
2.09899E-05 5.93568E-21
2.30365E-05 4.92767E-21
2.51783E-05 4.12481E-21
2.74153E-05 3.47897E-21
2.97475E-05 2.95470E-21
3.21749E-05 2.52556E-21
3.46974E-05 2.17158E-21
3.73152E-05 1.87750E-21
4.00281E-05 1.63155E-21
4.28362E-05 1.42459E-21
4.57395E-05 1.24943E-21
4.87380E-05 1.10037E-21
5.18317E-05 9.72892E-22
5.50205E-05 8.63346E-22
5.83045E-05 7.68791E-22
6.16838E-05 6.86832E-22
6.51582E-05 6.15508E-22
6.87277E-05 5.53206E-22
7.23925E-05 4.98591E-22
7.61524E-05 4.49042E-22
9.21439E-05 3.06426E-22
1.09658E-04 2.16146E-22
1.28695E-04 1.56764E-22
1.49255E-04 1.16418E-22
1.71338E-04 8.82369E-23
1.94942E-04 6.80748E-23
2.20070E-04 5.33445E-23
2.46720E-04 4.23822E-23
2.74892E-04 3.40890E-23
3.04586E-04 2.77226E-23
3.35803E-04 2.27703E-23
3.68542E-04 1.88719E-23
4.02802E-04 1.57697E-23
4.38585E-04 1.32766E-23
4.75889E-04 1.12548E-23
5.14715E-04 9.60147E-24
5.55063E-04 8.23905E-24
5.96931E-04 7.10837E-24
6.40321E-04 6.16379E-24
6.85233E-04 5.36983E-24
7.31665E-04 4.69864E-24
7.79618E-04 4.12820E-24
8.29092E-04 3.64095E-24
8.80086E-04 3.22279E-24
9.32601E-04 2.86234E-24
9.86636E-04 2.55034E-24
1.04219E-03 2.27920E-24
1.09927E-03 2.04270E-24
1.15786E-03 1.83568E-24
1.21797E-03 1.65387E-24
1.27961E-03 1.49369E-24
1.34276E-03 1.35213E-24
1.40743E-03 1.22668E-24
1.47362E-03 1.11520E-24
1.54133E-03 1.01587E-24
1.61056E-03 9.27152E-25
1.68131E-03 8.47718E-25
1.75357E-03 7.76438E-25
1.82735E-03 7.12335E-25
1.90265E-03 6.54566E-25
1.97947E-03 6.02400E-25
2.05780E-03 5.55204E-25
2.13765E-03 5.12426E-25
2.21902E-03 4.73582E-25
2.30190E-03 4.38252E-25
2.38630E-03 4.06063E-25
2.47222E-03 3.76692E-25
2.55965E-03 3.49849E-25
2.64859E-03 3.25282E-25
2.73905E-03 3.02765E-25
2.83103E-03 2.82100E-25
2.92452E-03 2.63108E-25
3.01952E-03 2.45632E-25
3.11604E-03 2.29531E-25
3.21407E-03 2.14679E-25
3.31362E-03 2.00963E-25
3.41468E-03 1.88283E-25
3.51725E-03 1.76546E-25
3.62133E-03 1.65673E-25
3.72692E-03 1.55588E-25
3.83403E-03 1.46225E-25
3.94265E-03 1.37525E-25
4.05278E-03 1.29433E-25
4.16442E-03 1.21899E-25
4.27757E-03 1.14879E-25
4.39223E-03 1.08332E-25
4.50840E-03 1.02222E-25
4.62608E-03 9.65139E-26
4.74527E-03 9.11779E-26
4.86597E-03 8.61857E-26
4.98817E-03 8.15117E-26
5.11188E-03 7.71324E-26
5.23711E-03 7.30264E-26
5.36383E-03 6.91740E-26
5.49207E-03 6.55570E-26
5.62181E-03 6.21590E-26
5.75306E-03 5.89646E-26
5.88581E-03 5.59597E-26
6.02007E-03 5.31314E-26
6.15583E-03 5.04678E-26
6.29310E-03 4.79578E-26
6.43187E-03 4.55912E-26
6.57214E-03 4.33587E-26
6.71392E-03 4.12514E-26
6.85720E-03 3.92614E-26
7.00198E-03 3.73812E-26
7.14827E-03 3.56038E-26
7.29605E-03 3.39228E-26
7.44534E-03 3.23322E-26
7.59612E-03 3.08264E-26
7.97965E-03 2.74001E-26
8.37255E-03 2.44013E-26
8.77480E-03 2.17697E-26
9.18641E-03 1.94548E-26
9.60736E-03 1.74138E-26
1.00376E-02 1.56104E-26
1.04773E-02 1.40136E-26
1.09262E-02 1.25970E-26
1.13844E-02 1.13378E-26
1.18520E-02 1.02167E-26
1.23288E-02 9.21675E-27
1.28150E-02 8.32350E-27
1.33104E-02 7.52435E-27
1.38150E-02 6.80835E-27
1.43290E-02 6.16597E-27
1.48521E-02 5.58890E-27
1.53845E-02 5.06984E-27
1.59262E-02 4.60242E-27
1.64770E-02 4.18104E-27
1.70371E-02 3.80075E-27
1.76063E-02 3.45719E-27
1.81848E-02 3.14653E-27
1.87724E-02 2.86535E-27
1.93692E-02 2.61064E-27
1.99751E-02 2.37972E-27
2.05901E-02 2.17019E-27
2.12143E-02 1.97994E-27
2.18476E-02 1.80707E-27
2.24900E-02 1.64989E-27
2.31415E-02 1.50688E-27
2.38021E-02 1.37669E-27
2.44717E-02 1.25811E-27
2.51504E-02 1.15003E-27
2.58382E-02 1.05149E-27
2.65349E-02 9.61586E-28
2.72407E-02 8.79538E-28
2.79555E-02 8.04626E-28
2.86793E-02 7.36201E-28
2.94120E-02 6.73678E-28
3.01537E-02 6.16530E-28
3.09043E-02 5.64278E-28
3.16639E-02 5.16489E-28
3.24324E-02 4.72769E-28
3.32098E-02 4.32762E-28
3.39961E-02 3.96145E-28
3.47912E-02 3.62623E-28
3.55952E-02 3.31930E-28
3.64081E-02 3.03821E-28
3.72297E-02 2.78077E-28
3.80602E-02 2.54494E-28
3.88995E-02 2.32889E-28
3.97476E-02 2.13095E-28
4.06044E-02 1.94959E-28
4.14700E-02 1.78340E-28
4.23443E-02 1.63112E-28
4.32273E-02 1.49158E-28
4.41190E-02 1.36371E-28
4.50194E-02 1.24654E-28
4.59284E-02 1.13918E-28
4.68461E-02 1.04081E-28
4.87074E-02 8.68129E-29
5.06030E-02 7.23238E-29
5.25328E-02 6.01729E-29
5.44967E-02 4.99897E-29
5.64946E-02 4.14621E-29
5.85262E-02 3.43276E-29
6.05914E-02 2.83649E-29
6.26901E-02 2.33877E-29
6.48222E-02 1.92388E-29
6.69873E-02 1.57855E-29
6.91854E-02 1.29161E-29
7.14163E-02 1.05363E-29
7.36799E-02 8.56669E-30
7.59760E-02 6.94021E-30
7.83043E-02 5.60044E-30
8.06647E-02 4.49987E-30
8.30571E-02 3.59852E-30
8.54812E-02 2.86278E-30
8.79369E-02 2.26442E-30
9.04240E-02 1.77978E-30
9.29422E-02 1.38901E-30
9.54915E-02 1.07552E-30
9.80716E-02 8.25459E-31
1.00682E-01 6.27271E-31
1.03323E-01 4.71344E-31
1.05995E-01 3.49702E-31
1.08696E-01 2.55738E-31
1.11427E-01 1.83997E-31
1.14188E-01 1.29991E-31
1.16978E-01 9.00350E-32
1.19797E-01 6.11190E-32
1.22645E-01 4.07935E-32
1.25522E-01 2.70750E-32
1.28428E-01 1.83659E-32
1.31361E-01 1.33878E-32
1.34323E-01 1.11251E-32
1.37313E-01 1.07777E-32
1.40330E-01 1.17217E-32
1.43375E-01 1.34766E-32
1.46447E-01 1.56777E-32
1.49545E-01 1.80539E-32
1.52671E-01 2.04080E-32
1.55823E-01 2.26023E-32
1.59001E-01 2.45451E-32
1.62205E-01 2.61805E-32
1.65435E-01 2.74802E-32
1.68690E-01 2.84363E-32
1.71970E-01 2.90559E-32
1.75276E-01 2.93570E-32
1.78606E-01 2.93644E-32
1.81961E-01 2.91076E-32
1.85340E-01 2.86184E-32
1.88743E-01 2.79293E-32
1.92169E-01 2.70725E-32
1.95619E-01 2.60788E-32
1.99092E-01 2.49771E-32
2.02589E-01 2.37940E-32
2.06107E-01 2.25538E-32
2.09649E-01 2.12780E-32
2.13212E-01 1.99856E-32
2.16797E-01 1.86930E-32
2.20404E-01 1.74143E-32
2.24032E-01 1.61611E-32
2.27680E-01 1.49431E-32
2.31350E-01 1.37680E-32
2.35040E-01 1.26420E-32
2.38751E-01 1.15693E-32
2.42481E-01 1.05533E-32
2.46231E-01 9.59578E-33
2.50000E-01 8.69776E-33
2.53788E-01 7.85933E-33
2.57595E-01 7.07986E-33
2.61421E-01 6.35815E-33
2.65264E-01 5.69250E-33
2.69126E-01 5.08085E-33
2.73005E-01 4.52086E-33
2.76901E-01 4.00996E-33
2.80814E-01 3.54545E-33
2.84744E-01 3.12455E-33
2.88691E-01 2.74445E-33
2.92653E-01 2.40233E-33
2.96632E-01 2.09542E-33
3.00625E-01 1.82102E-33
3.04634E-01 1.57650E-33
3.08658E-01 1.35937E-33
3.12697E-01 1.16722E-33
3.16749E-01 9.97785E-34
3.20816E-01 8.48941E-34
3.24896E-01 7.18679E-34
3.28990E-01 6.05139E-34
3.33097E-01 5.06589E-34
3.37216E-01 4.21428E-34
3.41348E-01 3.48188E-34
3.45492E-01 2.85520E-34
3.49647E-01 2.32192E-34
3.53814E-01 1.87086E-34
3.57992E-01 1.49186E-34
3.62181E-01 1.17579E-34
3.66381E-01 9.14377E-35
3.70590E-01 7.00250E-35
3.74810E-01 5.26819E-35
3.79039E-01 3.88210E-35
3.83277E-01 2.79214E-35
3.87524E-01 1.95252E-35
3.91780E-01 1.32284E-35
3.96044E-01 8.67742E-36
4.00316E-01 5.56408E-36
4.04596E-01 3.62126E-36
4.08882E-01 2.61837E-36
4.13176E-01 2.35737E-36
4.17476E-01 2.66941E-36
4.21783E-01 3.41132E-36
4.26095E-01 4.46284E-36
4.30413E-01 5.72336E-36
4.34737E-01 7.11028E-36
4.39065E-01 8.55604E-36
4.43398E-01 1.00055E-35
4.47736E-01 1.14166E-35
4.52077E-01 1.27556E-35
4.56422E-01 1.39973E-35
4.60770E-01 1.51245E-35
4.65122E-01 1.61249E-35
4.69476E-01 1.69910E-35
4.73832E-01 1.77199E-35
4.78190E-01 1.83121E-35
4.82550E-01 1.87705E-35
4.86912E-01 1.91002E-35
4.91274E-01 1.93072E-35
4.95637E-01 1.93994E-35
5.00000E-01 1.93844E-35
5.04363E-01 1.92728E-35
5.08726E-01 1.90722E-35
5.13088E-01 1.87932E-35
5.17450E-01 1.84436E-35
5.21810E-01 1.80331E-35
5.26168E-01 1.75710E-35
5.30524E-01 1.70638E-35
5.34878E-01 1.65203E-35
5.39230E-01 1.59472E-35
5.43578E-01 1.53516E-35
5.47923E-01 1.47396E-35
5.52264E-01 1.41163E-35
5.56602E-01 1.34871E-35
5.60935E-01 1.28569E-35
5.65263E-01 1.22287E-35
5.69587E-01 1.16066E-35
5.73905E-01 1.09940E-35
5.78217E-01 1.03931E-35
5.82524E-01 9.80671E-36
5.86824E-01 9.23596E-36
5.91118E-01 8.68309E-36
5.95404E-01 8.14903E-36
5.99684E-01 7.63462E-36
6.03956E-01 7.14064E-36
6.08220E-01 6.66826E-36
6.12476E-01 6.21687E-36
6.16723E-01 5.78697E-36
6.20961E-01 5.37850E-36
6.25190E-01 4.99126E-36
6.29410E-01 4.62486E-36
6.33619E-01 4.27894E-36
6.37819E-01 3.95319E-36
6.42008E-01 3.64665E-36
6.46186E-01 3.35912E-36
6.50353E-01 3.08964E-36
6.54508E-01 2.83764E-36
6.58652E-01 2.60230E-36
6.62784E-01 2.38314E-36
6.66903E-01 2.17922E-36
6.71010E-01 1.98956E-36
6.75104E-01 1.81388E-36
6.79184E-01 1.65107E-36
6.83251E-01 1.50062E-36
6.87303E-01 1.36180E-36
6.91342E-01 1.23375E-36
6.95366E-01 1.11580E-36
6.99375E-01 1.00764E-36
7.03368E-01 9.08356E-37
7.07347E-01 8.17334E-37
7.11309E-01 7.34081E-37
7.15256E-01 6.58105E-37
7.19186E-01 5.88863E-37
7.23099E-01 5.25816E-37
7.26995E-01 4.68521E-37
7.30874E-01 4.16606E-37
7.34736E-01 3.69561E-37
7.38579E-01 3.27010E-37
7.42405E-01 2.88663E-37
7.46212E-01 2.54129E-37
7.50000E-01 2.23071E-37
7.53769E-01 1.95297E-37
7.57519E-01 1.70369E-37
7.61249E-01 1.48145E-37
7.64960E-01 1.28378E-37
7.68650E-01 1.10782E-37
7.72320E-01 9.51882E-38
7.75968E-01 8.14348E-38
7.79596E-01 6.93280E-38
7.83203E-01 5.86932E-38
7.86788E-01 4.94029E-38
7.90351E-01 4.12870E-38
7.93893E-01 3.42754E-38
7.97411E-01 2.82051E-38
8.00908E-01 2.30071E-38
8.04381E-01 1.85633E-38
8.07831E-01 1.48012E-38
8.11257E-01 1.16246E-38
8.14660E-01 8.99279E-39
8.18039E-01 6.82245E-39
8.21394E-01 5.05979E-39
8.24724E-01 3.64979E-39
8.28030E-01 2.55254E-39
8.31310E-01 1.72151E-39
8.34565E-01 1.11952E-39
8.37795E-01 7.14674E-40
8.40999E-01 4.75697E-40
8.44177E-01 3.76856E-40
8.47329E-01 3.92824E-40
8.50455E-01 5.06576E-40
8.53553E-01 6.94212E-40
8.56625E-01 9.41875E-40
8.59670E-01 1.23482E-39
8.62687E-01 1.56323E-39
8.65677E-01 1.92086E-39
8.68639E-01 2.28124E-39
8.71572E-01 2.65674E-39
8.74478E-01 3.02756E-39
8.77355E-01 3.39553E-39
8.80203E-01 3.75035E-39
8.83022E-01 4.09101E-39
8.85812E-01 4.41642E-39
8.88573E-01 4.71998E-39
8.91304E-01 4.99767E-39
8.94005E-01 5.25824E-39
8.96677E-01 5.50097E-39
8.99318E-01 5.71342E-39
9.01928E-01 5.89762E-39
9.04508E-01 6.05756E-39
9.07058E-01 6.20246E-39
9.09576E-01 6.32514E-39
9.12063E-01 6.41408E-39
9.14519E-01 6.48986E-39
9.16943E-01 6.53612E-39
9.19335E-01 6.57230E-39
9.21696E-01 6.58643E-39
9.24024E-01 6.58770E-39
9.26320E-01 6.56023E-39
9.28584E-01 6.51999E-39
9.30815E-01 6.45962E-39
9.33013E-01 6.40234E-39
9.35178E-01 6.31797E-39
9.37310E-01 6.22117E-39
9.39409E-01 6.11811E-39
9.41474E-01 6.00096E-39
9.43505E-01 5.87799E-39
9.45503E-01 5.74604E-39
9.47467E-01 5.61028E-39
9.49397E-01 5.46452E-39
9.51293E-01 5.31514E-39
9.53154E-01 5.17163E-39
9.54981E-01 4.99947E-39
9.56773E-01 4.84206E-39
9.58530E-01 4.67785E-39
9.60252E-01 4.51769E-39
9.61940E-01 4.34511E-39
9.63592E-01 4.17561E-39
9.65209E-01 4.01286E-39
9.66790E-01 3.85051E-39
9.68336E-01 3.68605E-39
9.69846E-01 3.52264E-39
9.71321E-01 3.36301E-39
9.72759E-01 3.20124E-39
9.74162E-01 3.04385E-39
9.75528E-01 2.88038E-39
9.76858E-01 2.73984E-39
9.78152E-01 2.58997E-39
9.79410E-01 2.45469E-39
9.80631E-01 2.30910E-39
9.81815E-01 2.17419E-39
9.82963E-01 2.03370E-39
9.84074E-01 1.90783E-39
9.85148E-01 1.78062E-39
9.86185E-01 1.65675E-39
9.87185E-01 1.53969E-39
9.88148E-01 1.42112E-39
9.89074E-01 1.31227E-39
9.89962E-01 1.20733E-39
9.90814E-01 1.10276E-39
9.91627E-01 9.99442E-40
9.92404E-01 9.13978E-40
9.93143E-01 8.24536E-40
9.93844E-01 7.34356E-40
9.94508E-01 6.54013E-40
9.95134E-01 5.78762E-40
9.95722E-01 5.05554E-40
9.96273E-01 4.43932E-40
9.96786E-01 3.77739E-40
9.97261E-01 3.21150E-40
9.97698E-01 2.67929E-40
9.98097E-01 2.20762E-40
9.98459E-01 1.79858E-40
9.98782E-01 1.40631E-40
9.99067E-01 1.09277E-40
9.99315E-01 7.87458E-41
9.99524E-01 5.60346E-41
9.99695E-01 3.52879E-41
9.99829E-01 2.28419E-41
9.99924E-01 8.86835E-42
9.99981E-01 2.84945E-42
1.00000E+00 6.98273E-42
