 #
 # Subroutine ELSEPA. Elastic scattering of electrons and positrons
 #                    by neutral atoms and positive ions
 #
 # Projectile: positron
 # Kinetic energy = 8.00000E+07 eV = 2.93995E+06 a.u.
 #
 # WARNING: High-energy factorization with free-atom DF screening.
 #          Absorption, polarization and exchange corrections are
 #          switched off.
 #          Phase shifts are calculated for the bare nucleus.
 #          Scattering amplitudes are not evaluated.
 #
 # Element:  F,  Z =   9,  atomic weight = 1.89984E+01 g/mol
 #
 # Nuclear model: Fermi distribution
 #                Average radius = 2.85511E-13 cm
 #                Skin thickness = 5.46000E-14 cm
 #
 # Number of electrons =  9
 #
 # Total elastic cross section = 2.84927E-19 cm**2 = 1.01749E-02 a0**2
 # 1st transport cross section = 2.68685E-26 cm**2 = 9.59492E-10 a0**2
 # 2nd transport cross section = 7.92381E-26 cm**2 = 2.82965E-09 a0**2
 #
 #
 # Differential cross section:                       MU=(1-COS(THETA))/2
 #
 #  THETA        MU          DCS          DCS        Sherman      error
 #  (deg)                 (cm**2/sr)   (a0**2/sr)    function
 #----------------------------------------------------------------------
0.00000E+00 8.06277E-12
7.61557E-13 8.05864E-12
1.18994E-12 8.05635E-12
1.71346E-12 8.05355E-12
2.33225E-12 8.05026E-12
3.04617E-12 8.04645E-12
3.85530E-12 8.04215E-12
4.75964E-12 8.03734E-12
5.75917E-12 8.03204E-12
6.85391E-12 8.02624E-12
8.04379E-12 8.01994E-12
9.32893E-12 8.01316E-12
1.07092E-11 8.00587E-12
1.21847E-11 7.99811E-12
1.37554E-11 7.98984E-12
1.54213E-11 7.98110E-12
1.71823E-11 7.97187E-12
1.90386E-11 7.96216E-12
2.09900E-11 7.95198E-12
2.30367E-11 7.94130E-12
2.51785E-11 7.93019E-12
2.74156E-11 7.91856E-12
2.97478E-11 7.90650E-12
3.21752E-11 7.89396E-12
3.46979E-11 7.88097E-12
3.73157E-11 7.86753E-12
4.00286E-11 7.85360E-12
4.28368E-11 7.83929E-12
4.57402E-11 7.82445E-12
4.87388E-11 7.80924E-12
5.18325E-11 7.79354E-12
5.50215E-11 7.77744E-12
5.83057E-11 7.76091E-12
6.16850E-11 7.74392E-12
6.51595E-11 7.72659E-12
6.87293E-11 7.70873E-12
7.23943E-11 7.69057E-12
7.61544E-11 7.67191E-12
1.18991E-10 7.46442E-12
1.71347E-10 7.22199E-12
2.33223E-10 6.94995E-12
3.04617E-10 6.63860E-12
3.85531E-10 6.33547E-12
4.75965E-10 6.00142E-12
5.75917E-10 5.67295E-12
6.85389E-10 5.34125E-12
8.04380E-10 5.00662E-12
9.32891E-10 4.69227E-12
1.07092E-09 4.36705E-12
1.21847E-09 4.07310E-12
1.37554E-09 3.77406E-12
1.54213E-09 3.50108E-12
1.71823E-09 3.23848E-12
1.90386E-09 2.99160E-12
2.09900E-09 2.76436E-12
2.30367E-09 2.54561E-12
2.51785E-09 2.35016E-12
2.74156E-09 2.16023E-12
2.97478E-09 1.99026E-12
3.21752E-09 1.83046E-12
3.46978E-09 1.68424E-12
3.73156E-09 1.55028E-12
4.00286E-09 1.42549E-12
4.28368E-09 1.31343E-12
4.57402E-09 1.20757E-12
4.87388E-09 1.11271E-12
5.18326E-09 1.02446E-12
5.50215E-09 9.44299E-13
5.83057E-09 8.70828E-13
6.16850E-09 8.03218E-13
6.51596E-09 7.41937E-13
6.87293E-09 6.84977E-13
7.23942E-09 6.33510E-13
7.61544E-09 5.85809E-13
1.18991E-08 2.80921E-13
1.71347E-08 1.46461E-13
2.33223E-08 8.26573E-14
3.04617E-08 4.99928E-14
3.85531E-08 3.20554E-14
4.75965E-08 2.15618E-14
5.75917E-08 1.50830E-14
6.85389E-08 1.08987E-14
8.04380E-08 8.08675E-15
9.32891E-08 6.13709E-15
1.07092E-07 4.74622E-15
1.21847E-07 3.73058E-15
1.37554E-07 2.97419E-15
1.54213E-07 2.40014E-15
1.71823E-07 1.95849E-15
1.90386E-07 1.61359E-15
2.09900E-07 1.34124E-15
2.30367E-07 1.12380E-15
2.51785E-07 9.48438E-16
2.74156E-07 8.05877E-16
2.97478E-07 6.88899E-16
3.21752E-07 5.92307E-16
3.46978E-07 5.11952E-16
3.73156E-07 4.44686E-16
4.00286E-07 3.88057E-16
4.28368E-07 3.40090E-16
4.57402E-07 2.99278E-16
4.87388E-07 2.64365E-16
5.18325E-07 2.34371E-16
5.50215E-07 2.08491E-16
5.83057E-07 1.86064E-16
6.16850E-07 1.66561E-16
6.51596E-07 1.49532E-16
6.87293E-07 1.34616E-16
7.23942E-07 1.21506E-16
7.61543E-07 1.09946E-16
1.18991E-06 4.54006E-17
1.71347E-06 2.19709E-17
2.33223E-06 1.18790E-17
3.04617E-06 6.96921E-18
3.85531E-06 4.35289E-18
4.75964E-06 2.85668E-18
5.75916E-06 1.95145E-18
6.85388E-06 1.37797E-18
8.04378E-06 1.00049E-18
9.32888E-06 7.43832E-19
1.07092E-05 5.64429E-19
1.21846E-05 4.35995E-19
1.37553E-05 3.42098E-19
1.54212E-05 2.72171E-19
1.71822E-05 2.19231E-19
1.90385E-05 1.78554E-19
2.09899E-05 1.46893E-19
2.30365E-05 1.21948E-19
2.51783E-05 1.02079E-19
2.74153E-05 8.60966E-20
2.97475E-05 7.31224E-20
3.21749E-05 6.25024E-20
3.46974E-05 5.37421E-20
3.73152E-05 4.64643E-20
4.00281E-05 4.03777E-20
4.28362E-05 3.52559E-20
4.57395E-05 3.09209E-20
4.87380E-05 2.72322E-20
5.18317E-05 2.40773E-20
5.50205E-05 2.13663E-20
5.83045E-05 1.90262E-20
6.16838E-05 1.69979E-20
6.51582E-05 1.52328E-20
6.87277E-05 1.36909E-20
7.23925E-05 1.23393E-20
7.61524E-05 1.11491E-20
9.21439E-05 7.61348E-21
1.09658E-04 5.37452E-21
1.28695E-04 3.90124E-21
1.49255E-04 2.89983E-21
1.71338E-04 2.20003E-21
1.94942E-04 1.69910E-21
2.20070E-04 1.33294E-21
2.46720E-04 1.06028E-21
2.74892E-04 8.53882E-22
3.04586E-04 6.95336E-22
3.35803E-04 5.71923E-22
3.68542E-04 4.74705E-22
4.02802E-04 3.97284E-22
4.38585E-04 3.35015E-22
4.75889E-04 2.84476E-22
5.14715E-04 2.43112E-22
5.55063E-04 2.08996E-22
5.96931E-04 1.80656E-22
6.40321E-04 1.56958E-22
6.85233E-04 1.37019E-22
7.31665E-04 1.20145E-22
7.79618E-04 1.05789E-22
8.29092E-04 9.35127E-23
8.80086E-04 8.29651E-23
9.32601E-04 7.38622E-23
9.86636E-04 6.59731E-23
1.04219E-03 5.91086E-23
1.09927E-03 5.31132E-23
1.15786E-03 4.78583E-23
1.21797E-03 4.32367E-23
1.27961E-03 3.91591E-23
1.34276E-03 3.55505E-23
1.40743E-03 3.23477E-23
1.47362E-03 2.94970E-23
1.54133E-03 2.69532E-23
1.61056E-03 2.46773E-23
1.68131E-03 2.26363E-23
1.75357E-03 2.08018E-23
1.82735E-03 1.91490E-23
1.90265E-03 1.76569E-23
1.97947E-03 1.63071E-23
2.05780E-03 1.50837E-23
2.13765E-03 1.39726E-23
2.21902E-03 1.29618E-23
2.30190E-03 1.20406E-23
2.38630E-03 1.11996E-23
2.47222E-03 1.04307E-23
2.55965E-03 9.72646E-24
2.64859E-03 9.08054E-24
2.73905E-03 8.48725E-24
2.83103E-03 7.94151E-24
2.92452E-03 7.43884E-24
3.01952E-03 6.97522E-24
3.11604E-03 6.54707E-24
3.21407E-03 6.15119E-24
3.31362E-03 5.78470E-24
3.41468E-03 5.44503E-24
3.51725E-03 5.12986E-24
3.62133E-03 4.83711E-24
3.72692E-03 4.56488E-24
3.83403E-03 4.31147E-24
3.94265E-03 4.07536E-24
4.05278E-03 3.85514E-24
4.16442E-03 3.64954E-24
4.27757E-03 3.45743E-24
4.39223E-03 3.27774E-24
4.50840E-03 3.10954E-24
4.62608E-03 2.95196E-24
4.74527E-03 2.80419E-24
4.86597E-03 2.66552E-24
4.98817E-03 2.53529E-24
5.11188E-03 2.41288E-24
5.23711E-03 2.29774E-24
5.36383E-03 2.18937E-24
5.49207E-03 2.08727E-24
5.62181E-03 1.99104E-24
5.75306E-03 1.90027E-24
5.88581E-03 1.81458E-24
6.02007E-03 1.73365E-24
6.15583E-03 1.65717E-24
6.29310E-03 1.58483E-24
6.43187E-03 1.51638E-24
6.57214E-03 1.45157E-24
6.71392E-03 1.39016E-24
6.85720E-03 1.33196E-24
7.00198E-03 1.27675E-24
7.14827E-03 1.22436E-24
7.29605E-03 1.17461E-24
7.44534E-03 1.12735E-24
7.59612E-03 1.08243E-24
7.97965E-03 9.79491E-25
8.37255E-03 8.88437E-25
8.77480E-03 8.07662E-25
9.18641E-03 7.35808E-25
9.60736E-03 6.71720E-25
1.00376E-02 6.14416E-25
1.04773E-02 5.63054E-25
1.09262E-02 5.16911E-25
1.13844E-02 4.75365E-25
1.18520E-02 4.37879E-25
1.23288E-02 4.03988E-25
1.28150E-02 3.73287E-25
1.33104E-02 3.45423E-25
1.38150E-02 3.20089E-25
1.43290E-02 2.97014E-25
1.48521E-02 2.75962E-25
1.53845E-02 2.56725E-25
1.59262E-02 2.39119E-25
1.64770E-02 2.22981E-25
1.70371E-02 2.08168E-25
1.76063E-02 1.94551E-25
1.81848E-02 1.82016E-25
1.87724E-02 1.70464E-25
1.93692E-02 1.59803E-25
1.99751E-02 1.49952E-25
2.05901E-02 1.40839E-25
2.12143E-02 1.32399E-25
2.18476E-02 1.24573E-25
2.24900E-02 1.17309E-25
2.31415E-02 1.10560E-25
2.38021E-02 1.04282E-25
2.44717E-02 9.84366E-26
2.51504E-02 9.29890E-26
2.58382E-02 8.79072E-26
2.65349E-02 8.31622E-26
2.72407E-02 7.87279E-26
2.79555E-02 7.45803E-26
2.86793E-02 7.06976E-26
2.94120E-02 6.70598E-26
3.01537E-02 6.36488E-26
3.09043E-02 6.04480E-26
3.16639E-02 5.74421E-26
3.24324E-02 5.46171E-26
3.32098E-02 5.19603E-26
3.39961E-02 4.94598E-26
3.47912E-02 4.71048E-26
3.55952E-02 4.48854E-26
3.64081E-02 4.27924E-26
3.72297E-02 4.08173E-26
3.80602E-02 3.89523E-26
3.88995E-02 3.71902E-26
3.97476E-02 3.55244E-26
4.06044E-02 3.39485E-26
4.14700E-02 3.24570E-26
4.23443E-02 3.10445E-26
4.32273E-02 2.97060E-26
4.41190E-02 2.84371E-26
4.50194E-02 2.72335E-26
4.59284E-02 2.60912E-26
4.68461E-02 2.50065E-26
4.87074E-02 2.29968E-26
5.06030E-02 2.11795E-26
5.25328E-02 1.95333E-26
5.44967E-02 1.80395E-26
5.64946E-02 1.66815E-26
5.85262E-02 1.54450E-26
6.05914E-02 1.43174E-26
6.26901E-02 1.32876E-26
6.48222E-02 1.23455E-26
6.69873E-02 1.14827E-26
6.91854E-02 1.06912E-26
7.14163E-02 9.96428E-27
7.36799E-02 9.29579E-27
7.59760E-02 8.68027E-27
7.83043E-02 8.11285E-27
8.06647E-02 7.58917E-27
8.30571E-02 7.10531E-27
8.54812E-02 6.65775E-27
8.79369E-02 6.24335E-27
9.04240E-02 5.85925E-27
9.29422E-02 5.50288E-27
9.54915E-02 5.17193E-27
9.80716E-02 4.86430E-27
1.00682E-01 4.57808E-27
1.03323E-01 4.31155E-27
1.05995E-01 4.06315E-27
1.08696E-01 3.83145E-27
1.11427E-01 3.61514E-27
1.14188E-01 3.41306E-27
1.16978E-01 3.22413E-27
1.19797E-01 3.04734E-27
1.22645E-01 2.88182E-27
1.25522E-01 2.72672E-27
1.28428E-01 2.58129E-27
1.31361E-01 2.44484E-27
1.34323E-01 2.31673E-27
1.37313E-01 2.19638E-27
1.40330E-01 2.08323E-27
1.43375E-01 1.97681E-27
1.46447E-01 1.87665E-27
1.49545E-01 1.78233E-27
1.52671E-01 1.69345E-27
1.55823E-01 1.60966E-27
1.59001E-01 1.53063E-27
1.62205E-01 1.45604E-27
1.65435E-01 1.38561E-27
1.68690E-01 1.31908E-27
1.71970E-01 1.25619E-27
1.75276E-01 1.19672E-27
1.78606E-01 1.14047E-27
1.81961E-01 1.08722E-27
1.85340E-01 1.03680E-27
1.88743E-01 9.89037E-28
1.92169E-01 9.43771E-28
1.95619E-01 9.00854E-28
1.99092E-01 8.60148E-28
2.02589E-01 8.21523E-28
2.06107E-01 7.84859E-28
2.09649E-01 7.50042E-28
2.13212E-01 7.16968E-28
2.16797E-01 6.85537E-28
2.20404E-01 6.55658E-28
2.24032E-01 6.27243E-28
2.27680E-01 6.00212E-28
2.31350E-01 5.74489E-28
2.35040E-01 5.50002E-28
2.38751E-01 5.26684E-28
2.42481E-01 5.04472E-28
2.46231E-01 4.83309E-28
2.50000E-01 4.63136E-28
2.53788E-01 4.43904E-28
2.57595E-01 4.25562E-28
2.61421E-01 4.08064E-28
2.65264E-01 3.91367E-28
2.69126E-01 3.75430E-28
2.73005E-01 3.60213E-28
2.76901E-01 3.45681E-28
2.80814E-01 3.31799E-28
2.84744E-01 3.18534E-28
2.88691E-01 3.05856E-28
2.92653E-01 2.93737E-28
2.96632E-01 2.82147E-28
3.00625E-01 2.71063E-28
3.04634E-01 2.60459E-28
3.08658E-01 2.50311E-28
3.12697E-01 2.40599E-28
3.16749E-01 2.31302E-28
3.20816E-01 2.22399E-28
3.24896E-01 2.13873E-28
3.28990E-01 2.05705E-28
3.33097E-01 1.97879E-28
3.37216E-01 1.90379E-28
3.41348E-01 1.83190E-28
3.45492E-01 1.76298E-28
3.49647E-01 1.69689E-28
3.53814E-01 1.63351E-28
3.57992E-01 1.57271E-28
3.62181E-01 1.51437E-28
3.66381E-01 1.45839E-28
3.70590E-01 1.40466E-28
3.74810E-01 1.35309E-28
3.79039E-01 1.30357E-28
3.83277E-01 1.25601E-28
3.87524E-01 1.21034E-28
3.91780E-01 1.16647E-28
3.96044E-01 1.12432E-28
4.00316E-01 1.08382E-28
4.04596E-01 1.04490E-28
4.08882E-01 1.00748E-28
4.13176E-01 9.71512E-29
4.17476E-01 9.36928E-29
4.21783E-01 9.03671E-29
4.26095E-01 8.71686E-29
4.30413E-01 8.40918E-29
4.34737E-01 8.11318E-29
4.39065E-01 7.82837E-29
4.43398E-01 7.55430E-29
4.47736E-01 7.29052E-29
4.52077E-01 7.03661E-29
4.56422E-01 6.79217E-29
4.60770E-01 6.55682E-29
4.65122E-01 6.33019E-29
4.69476E-01 6.11193E-29
4.73832E-01 5.90171E-29
4.78190E-01 5.69920E-29
4.82550E-01 5.50410E-29
4.86912E-01 5.31611E-29
4.91274E-01 5.13496E-29
4.95637E-01 4.96037E-29
5.00000E-01 4.79209E-29
5.04363E-01 4.62987E-29
5.08726E-01 4.47348E-29
5.13088E-01 4.32269E-29
5.17450E-01 4.17728E-29
5.21810E-01 4.03705E-29
5.26168E-01 3.90180E-29
5.30524E-01 3.77133E-29
5.34878E-01 3.64547E-29
5.39230E-01 3.52405E-29
5.43578E-01 3.40688E-29
5.47923E-01 3.29382E-29
5.52264E-01 3.18471E-29
5.56602E-01 3.07940E-29
5.60935E-01 2.97774E-29
5.65263E-01 2.87961E-29
5.69587E-01 2.78486E-29
5.73905E-01 2.69339E-29
5.78217E-01 2.60505E-29
5.82524E-01 2.51975E-29
5.86824E-01 2.43736E-29
5.91118E-01 2.35779E-29
5.95404E-01 2.28093E-29
5.99684E-01 2.20667E-29
6.03956E-01 2.13493E-29
6.08220E-01 2.06561E-29
6.12476E-01 1.99863E-29
6.16723E-01 1.93391E-29
6.20961E-01 1.87136E-29
6.25190E-01 1.81090E-29
6.29410E-01 1.75246E-29
6.33619E-01 1.69596E-29
6.37819E-01 1.64135E-29
6.42008E-01 1.58855E-29
6.46186E-01 1.53750E-29
6.50353E-01 1.48813E-29
6.54508E-01 1.44039E-29
6.58652E-01 1.39422E-29
6.62784E-01 1.34957E-29
6.66903E-01 1.30638E-29
6.71010E-01 1.26460E-29
6.75104E-01 1.22419E-29
6.79184E-01 1.18509E-29
6.83251E-01 1.14726E-29
6.87303E-01 1.11066E-29
6.91342E-01 1.07524E-29
6.95366E-01 1.04096E-29
6.99375E-01 1.00779E-29
7.03368E-01 9.75693E-30
7.07347E-01 9.44621E-30
7.11309E-01 9.14546E-30
7.15256E-01 8.85432E-30
7.19186E-01 8.57249E-30
7.23099E-01 8.29963E-30
7.26995E-01 8.03546E-30
7.30874E-01 7.77967E-30
7.34736E-01 7.53200E-30
7.38579E-01 7.29216E-30
7.42405E-01 7.05990E-30
7.46212E-01 6.83496E-30
7.50000E-01 6.61710E-30
7.53769E-01 6.40609E-30
7.57519E-01 6.20170E-30
7.61249E-01 6.00372E-30
7.64960E-01 5.81192E-30
7.68650E-01 5.62611E-30
7.72320E-01 5.44610E-30
7.75968E-01 5.27169E-30
7.79596E-01 5.10270E-30
7.83203E-01 4.93895E-30
7.86788E-01 4.78028E-30
7.90351E-01 4.62651E-30
7.93893E-01 4.47750E-30
7.97411E-01 4.33308E-30
8.00908E-01 4.19311E-30
8.04381E-01 4.05745E-30
8.07831E-01 3.92596E-30
8.11257E-01 3.79850E-30
8.14660E-01 3.67494E-30
8.18039E-01 3.55517E-30
8.21394E-01 3.43906E-30
8.24724E-01 3.32649E-30
8.28030E-01 3.21736E-30
8.31310E-01 3.11155E-30
8.34565E-01 3.00896E-30
8.37795E-01 2.90949E-30
8.40999E-01 2.81304E-30
8.44177E-01 2.71952E-30
8.47329E-01 2.62883E-30
8.50455E-01 2.54088E-30
8.53553E-01 2.45560E-30
8.56625E-01 2.37290E-30
8.59670E-01 2.29269E-30
8.62687E-01 2.21491E-30
8.65677E-01 2.13947E-30
8.68639E-01 2.06631E-30
8.71572E-01 1.99535E-30
8.74478E-01 1.92653E-30
8.77355E-01 1.85978E-30
8.80203E-01 1.79505E-30
8.83022E-01 1.73226E-30
8.85812E-01 1.67135E-30
8.88573E-01 1.61229E-30
8.91304E-01 1.55500E-30
8.94005E-01 1.49943E-30
8.96677E-01 1.44553E-30
8.99318E-01 1.39326E-30
9.01928E-01 1.34257E-30
9.04508E-01 1.29340E-30
9.07058E-01 1.24571E-30
9.09576E-01 1.19946E-30
9.12063E-01 1.15461E-30
9.14519E-01 1.11111E-30
9.16943E-01 1.06893E-30
9.19335E-01 1.02803E-30
9.21696E-01 9.88369E-31
9.24024E-01 9.49914E-31
9.26320E-01 9.12630E-31
9.28584E-01 8.76484E-31
9.30815E-01 8.41442E-31
9.33013E-01 8.07474E-31
9.35178E-01 7.74550E-31
9.37310E-01 7.42641E-31
9.39409E-01 7.11717E-31
9.41474E-01 6.81753E-31
9.43505E-01 6.52721E-31
9.45503E-01 6.24596E-31
9.47467E-01 5.97353E-31
9.49397E-01 5.70968E-31
9.51293E-01 5.45419E-31
9.53154E-01 5.20683E-31
9.54981E-01 4.96739E-31
9.56773E-01 4.73565E-31
9.58530E-01 4.51142E-31
9.60252E-01 4.29450E-31
9.61940E-01 4.08471E-31
9.63592E-01 3.88186E-31
9.65209E-01 3.68579E-31
9.66790E-01 3.49631E-31
9.68336E-01 3.31328E-31
9.69846E-01 3.13654E-31
9.71321E-01 2.96592E-31
9.72759E-01 2.80130E-31
9.74162E-01 2.64252E-31
9.75528E-01 2.48946E-31
9.76858E-01 2.34198E-31
9.78152E-01 2.19996E-31
9.79410E-01 2.06328E-31
9.80631E-01 1.93183E-31
9.81815E-01 1.80548E-31
9.82963E-01 1.68415E-31
9.84074E-01 1.56772E-31
9.85148E-01 1.45610E-31
9.86185E-01 1.34919E-31
9.87185E-01 1.24691E-31
9.88148E-01 1.14917E-31
9.89074E-01 1.05588E-31
9.89962E-01 9.66976E-32
9.90814E-01 8.82379E-32
9.91627E-01 8.02019E-32
9.92404E-01 7.25824E-32
9.93143E-01 6.53738E-32
9.93844E-01 5.85701E-32
9.94508E-01 5.21651E-32
9.95134E-01 4.61539E-32
9.95722E-01 4.05314E-32
9.96273E-01 3.52929E-32
9.96786E-01 3.04344E-32
9.97261E-01 2.59516E-32
9.97698E-01 2.18408E-32
9.98097E-01 1.80987E-32
9.98459E-01 1.47222E-32
9.98782E-01 1.17086E-32
9.99067E-01 9.05520E-33
9.99315E-01 6.76011E-33
9.99524E-01 4.82119E-33
9.99695E-01 3.23706E-33
9.99829E-01 2.00615E-33
9.99924E-01 1.12787E-33
9.99981E-01 6.01082E-34
1.00000E+00 4.25306E-34
