 #
 # Subroutine ELSEPA. Elastic scattering of electrons and positrons
 #                    by neutral atoms and positive ions
 #
 # Projectile: positron
 # Kinetic energy = 1.00000E+09 eV = 3.67493E+07 a.u.
 #
 # WARNING: High-energy factorization with free-atom DF screening.
 #          Absorption, polarization and exchange corrections are
 #          switched off.
 #          Phase shifts are calculated for the bare nucleus.
 #          Scattering amplitudes are not evaluated.
 #
 # Element:  F,  Z =   9,  atomic weight = 1.89984E+01 g/mol
 #
 # Nuclear model: Fermi distribution
 #                Average radius = 2.85511E-13 cm
 #                Skin thickness = 5.46000E-14 cm
 #
 # Number of electrons =  9
 #
 # Total elastic cross section = 2.84579E-19 cm**2 = 1.01625E-02 a0**2
 # 1st transport cross section = 1.80041E-28 cm**2 = 6.42936E-12 a0**2
 # 2nd transport cross section = 5.40023E-28 cm**2 = 1.92846E-11 a0**2
 #
 #
 # Differential cross section:                       MU=(1-COS(THETA))/2
 #
 #  THETA        MU          DCS          DCS        Sherman      error
 #  (deg)                 (cm**2/sr)   (a0**2/sr)    function
 #----------------------------------------------------------------------
0.00000E+00 1.24514E-09
7.61557E-13 1.15375E-09
1.18994E-12 1.10667E-09
1.71346E-12 1.05116E-09
2.33225E-12 9.93441E-10
3.04617E-12 9.29654E-10
3.85530E-12 8.66119E-10
4.75964E-12 8.04235E-10
5.75917E-12 7.39903E-10
6.85391E-12 6.78612E-10
8.04379E-12 6.21378E-10
9.32893E-12 5.66265E-10
1.07092E-11 5.14004E-10
1.21847E-11 4.66424E-10
1.37554E-11 4.22820E-10
1.54213E-11 3.81537E-10
1.71823E-11 3.44508E-10
1.90386E-11 3.11240E-10
2.09900E-11 2.80456E-10
2.30367E-11 2.52759E-10
2.51785E-11 2.28047E-10
2.74156E-11 2.05702E-10
2.97478E-11 1.85444E-10
3.21752E-11 1.67422E-10
3.46979E-11 1.51343E-10
3.73157E-11 1.36689E-10
4.00286E-11 1.23653E-10
4.28368E-11 1.12025E-10
4.57402E-11 1.01529E-10
4.87388E-11 9.21127E-11
5.18325E-11 8.37023E-11
5.50215E-11 7.61485E-11
5.83057E-11 6.93266E-11
6.16850E-11 6.32174E-11
6.51595E-11 5.77337E-11
6.87293E-11 5.27658E-11
7.23943E-11 4.82973E-11
7.61544E-11 4.42736E-11
1.18991E-10 1.98889E-11
1.71347E-10 1.00648E-11
2.33223E-10 5.62802E-12
3.04617E-10 3.40383E-12
3.85531E-10 2.18895E-12
4.75965E-10 1.47716E-12
5.75917E-10 1.03579E-12
6.85389E-10 7.49159E-13
8.04380E-10 5.55755E-13
9.32891E-10 4.21137E-13
1.07092E-09 3.24993E-13
1.21847E-09 2.54778E-13
1.37554E-09 2.02490E-13
1.54213E-09 1.62895E-13
1.71823E-09 1.32484E-13
1.90386E-09 1.08815E-13
2.09900E-09 9.01736E-14
2.30367E-09 7.53318E-14
2.51785E-09 6.34050E-14
2.74156E-09 5.37348E-14
2.97478E-09 4.58294E-14
3.21752E-09 3.93163E-14
3.46978E-09 3.39144E-14
3.73156E-09 2.94045E-14
4.00286E-09 2.56164E-14
4.28368E-09 2.24159E-14
4.57402E-09 1.96978E-14
4.87388E-09 1.73779E-14
5.18326E-09 1.53883E-14
5.50215E-09 1.36743E-14
5.83057E-09 1.21916E-14
6.16850E-09 1.09039E-14
6.51596E-09 9.78127E-15
6.87293E-09 8.79904E-15
7.23942E-09 7.93671E-15
7.61544E-09 7.17722E-15
1.18991E-08 2.95198E-15
1.71347E-08 1.42603E-15
2.33223E-08 7.70354E-16
3.04617E-08 4.51756E-16
3.85531E-08 2.82095E-16
4.75965E-08 1.85108E-16
5.75917E-08 1.26442E-16
6.85389E-08 8.92778E-17
8.04380E-08 6.48186E-17
9.32891E-08 4.81908E-17
1.07092E-07 3.65690E-17
1.21847E-07 2.82488E-17
1.37554E-07 2.21659E-17
1.54213E-07 1.76356E-17
1.71823E-07 1.42058E-17
1.90386E-07 1.15707E-17
2.09900E-07 9.51927E-18
2.30367E-07 7.90295E-18
2.51785E-07 6.61558E-18
2.74156E-07 5.57999E-18
2.97478E-07 4.73933E-18
3.21752E-07 4.05119E-18
3.46978E-07 3.48353E-18
3.73156E-07 3.01191E-18
4.00286E-07 2.61746E-18
4.28368E-07 2.28552E-18
4.57402E-07 2.00458E-18
4.87388E-07 1.76550E-18
5.18325E-07 1.56103E-18
5.50215E-07 1.38532E-18
5.83057E-07 1.23365E-18
6.16850E-07 1.10218E-18
6.51596E-07 9.87764E-19
6.87293E-07 8.87818E-19
7.23942E-07 8.00199E-19
7.61543E-07 7.23127E-19
1.18991E-06 2.96181E-19
1.71347E-06 1.42828E-19
2.33223E-06 7.70918E-20
3.04617E-06 4.51878E-20
3.85531E-06 2.82093E-20
4.75964E-06 1.85073E-20
5.75916E-06 1.26402E-20
6.85388E-06 8.92445E-21
8.04378E-06 6.47909E-21
9.32888E-06 4.81678E-21
1.07092E-05 3.65498E-21
1.21846E-05 2.82326E-21
1.37553E-05 2.21522E-21
1.54212E-05 1.76240E-21
1.71822E-05 1.41958E-21
1.90385E-05 1.15618E-21
2.09899E-05 9.51164E-22
2.30365E-05 7.89635E-22
2.51783E-05 6.60980E-22
2.74153E-05 5.57487E-22
2.97475E-05 4.73476E-22
3.21749E-05 4.04709E-22
3.46974E-05 3.47985E-22
3.73152E-05 3.00859E-22
4.00281E-05 2.61448E-22
4.28362E-05 2.28283E-22
4.57395E-05 2.00214E-22
4.87380E-05 1.76329E-22
5.18317E-05 1.55901E-22
5.50205E-05 1.38347E-22
5.83045E-05 1.23195E-22
6.16838E-05 1.10061E-22
6.51582E-05 9.86320E-23
6.87277E-05 8.86485E-23
7.23925E-05 7.98966E-23
7.61524E-05 7.06109E-23
9.21439E-05 4.79907E-23
1.09658E-04 3.37018E-23
1.28695E-04 2.43252E-23
1.49255E-04 1.79706E-23
1.71338E-04 1.35442E-23
1.94942E-04 1.03867E-23
2.20070E-04 8.08722E-24
2.46720E-04 6.38173E-24
2.74892E-04 5.09616E-24
3.04586E-04 4.11304E-24
3.35803E-04 3.35140E-24
3.68542E-04 2.75442E-24
4.02802E-04 2.28151E-24
4.38585E-04 1.90325E-24
4.75889E-04 1.59803E-24
5.14715E-04 1.34974E-24
5.55063E-04 1.14626E-24
5.96931E-04 9.78346E-25
6.40321E-04 8.38910E-25
6.85233E-04 7.22435E-25
7.31665E-04 6.24609E-25
7.79618E-04 5.42026E-25
8.29092E-04 4.71979E-25
8.80086E-04 4.12301E-25
9.32601E-04 3.61246E-25
9.86636E-04 3.17397E-25
1.04219E-03 2.79599E-25
1.09927E-03 2.46905E-25
1.15786E-03 2.18534E-25
1.21797E-03 1.93840E-25
1.27961E-03 1.72284E-25
1.34276E-03 1.53416E-25
1.40743E-03 1.36858E-25
1.47362E-03 1.22293E-25
1.54133E-03 1.09450E-25
1.61056E-03 9.81026E-26
1.68131E-03 8.80549E-26
1.75357E-03 7.91409E-26
1.82735E-03 7.12180E-26
1.90265E-03 6.41636E-26
1.97947E-03 5.78721E-26
2.05780E-03 5.22520E-26
2.13765E-03 4.72241E-26
2.21902E-03 4.27196E-26
2.30190E-03 3.86785E-26
2.38630E-03 3.50485E-26
2.47222E-03 3.17837E-26
2.55965E-03 2.88440E-26
2.64859E-03 2.61941E-26
2.73905E-03 2.38029E-26
2.83103E-03 2.16430E-26
2.92452E-03 1.96901E-26
3.01952E-03 1.79228E-26
3.11604E-03 1.63222E-26
3.21407E-03 1.48713E-26
3.31362E-03 1.35552E-26
3.41468E-03 1.23603E-26
3.51725E-03 1.12749E-26
3.62133E-03 1.02882E-26
3.72692E-03 9.39075E-27
3.83403E-03 8.57396E-27
3.94265E-03 7.83019E-27
4.05278E-03 7.15256E-27
4.16442E-03 6.53489E-27
4.27757E-03 5.97163E-27
4.39223E-03 5.45776E-27
4.50840E-03 4.98877E-27
4.62608E-03 4.56058E-27
4.74527E-03 4.16950E-27
4.86597E-03 3.81222E-27
4.98817E-03 3.48571E-27
5.11188E-03 3.18725E-27
5.23711E-03 2.91435E-27
5.36383E-03 2.66479E-27
5.49207E-03 2.43651E-27
5.62181E-03 2.22766E-27
5.75306E-03 2.03657E-27
5.88581E-03 1.86170E-27
6.02007E-03 1.70166E-27
6.15583E-03 1.55517E-27
6.29310E-03 1.42109E-27
6.43187E-03 1.29834E-27
6.57214E-03 1.18598E-27
6.71392E-03 1.08312E-27
6.85720E-03 9.88964E-28
7.00198E-03 9.02772E-28
7.14827E-03 8.23877E-28
7.29605E-03 7.51666E-28
7.44534E-03 6.85579E-28
7.59612E-03 6.25102E-28
7.97965E-03 4.95474E-28
8.37255E-03 3.91770E-28
8.77480E-03 3.08910E-28
9.18641E-03 2.42812E-28
9.60736E-03 1.90184E-28
1.00376E-02 1.48376E-28
1.04773E-02 1.15248E-28
1.09262E-02 8.90768E-29
1.13844E-02 6.84706E-29
1.18520E-02 5.23080E-29
1.23288E-02 3.96855E-29
1.28150E-02 2.98757E-29
1.33104E-02 2.22942E-29
1.38150E-02 1.64714E-29
1.43290E-02 1.20316E-29
1.48521E-02 8.67415E-30
1.53845E-02 6.15949E-30
1.59262E-02 4.29721E-30
1.64770E-02 2.93647E-30
1.70371E-02 1.95826E-30
1.76063E-02 1.26916E-30
1.81848E-02 7.96164E-31
1.87724E-02 4.82589E-31
1.93692E-02 2.84739E-31
1.99751E-02 1.69196E-31
2.05901E-02 1.10651E-31
2.12143E-02 9.01596E-32
2.18476E-02 9.37393E-32
2.24900E-02 1.11252E-31
2.31415E-02 1.35513E-31
2.38021E-02 1.61585E-31
2.44717E-02 1.86221E-31
2.51504E-02 2.07426E-31
2.58382E-02 2.24118E-31
2.65349E-02 2.35865E-31
2.72407E-02 2.42682E-31
2.79555E-02 2.44877E-31
2.86793E-02 2.42940E-31
2.94120E-02 2.37458E-31
3.01537E-02 2.29053E-31
3.09043E-02 2.18341E-31
3.16639E-02 2.05904E-31
3.24324E-02 1.92273E-31
3.32098E-02 1.77917E-31
3.39961E-02 1.63240E-31
3.47912E-02 1.48579E-31
3.55952E-02 1.34210E-31
3.64081E-02 1.20349E-31
3.72297E-02 1.07163E-31
3.80602E-02 9.47678E-32
3.88995E-02 8.32433E-32
3.97476E-02 7.26337E-32
4.06044E-02 6.29555E-32
4.14700E-02 5.42026E-32
4.23443E-02 4.63508E-32
4.32273E-02 3.93626E-32
4.41190E-02 3.31901E-32
4.50194E-02 2.77790E-32
4.59284E-02 2.30707E-32
4.68461E-02 1.90043E-32
4.87074E-02 1.25553E-32
5.06030E-02 7.96415E-33
5.25328E-02 4.80884E-33
5.44967E-02 2.72739E-33
5.64946E-02 1.42234E-33
5.85262E-02 6.58103E-34
6.05914E-02 2.54535E-34
6.26901E-02 7.86618E-35
6.48222E-02 3.59680E-35
6.69873E-02 6.21225E-35
6.91854E-02 1.15637E-34
7.14163E-02 1.71667E-34
7.36799E-02 2.16998E-34
7.59760E-02 2.46146E-34
7.83043E-02 2.58427E-34
8.06647E-02 2.55861E-34
8.30571E-02 2.41722E-34
8.54812E-02 2.19596E-34
8.79369E-02 1.92829E-34
9.04240E-02 1.64232E-34
9.29422E-02 1.35969E-34
9.54915E-02 1.09561E-34
9.80716E-02 8.59600E-35
1.00682E-01 6.56468E-35
1.03323E-01 4.87437E-35
1.05995E-01 3.51166E-35
1.08696E-01 2.44671E-35
1.11427E-01 1.64061E-35
1.14188E-01 1.05099E-35
1.16978E-01 6.36055E-36
1.19797E-01 3.57268E-36
1.22645E-01 1.80775E-36
1.25522E-01 7.81573E-37
1.28428E-01 2.64354E-37
1.31361E-01 7.71504E-38
1.34323E-01 8.61953E-38
1.37313E-01 1.95713E-37
1.40330E-01 3.40884E-37
1.43375E-01 4.80847E-37
1.46447E-01 5.92819E-37
1.49545E-01 6.66783E-37
1.52671E-01 7.01209E-37
1.55823E-01 7.00046E-37
1.59001E-01 6.69901E-37
1.62205E-01 6.18444E-37
1.65435E-01 5.53186E-37
1.68690E-01 4.80838E-37
1.71970E-01 4.06889E-37
1.75276E-01 3.35549E-37
1.78606E-01 2.69697E-37
1.81961E-01 2.11168E-37
1.85340E-01 1.60850E-37
1.88743E-01 1.18972E-37
1.92169E-01 8.51331E-38
1.95619E-01 5.86836E-38
1.99092E-01 3.86602E-38
2.02589E-01 2.40929E-38
2.06107E-01 1.39415E-38
2.09649E-01 7.27660E-39
2.13212E-01 3.23673E-39
2.16797E-01 1.00000E-45
2.20404E-01 1.00000E-45
2.24032E-01 1.00000E-45
2.27680E-01 1.00000E-45
2.31350E-01 1.00000E-45
2.35040E-01 1.00000E-45
2.38751E-01 1.00000E-45
2.42481E-01 1.00000E-45
2.46231E-01 1.00000E-45
2.50000E-01 1.00000E-45
2.53788E-01 1.00000E-45
2.57595E-01 1.00000E-45
2.61421E-01 1.00000E-45
2.65264E-01 1.00000E-45
2.69126E-01 1.00000E-45
2.73005E-01 1.00000E-45
2.76901E-01 1.00000E-45
2.80814E-01 1.00000E-45
2.84744E-01 1.00000E-45
2.88691E-01 1.00000E-45
2.92653E-01 1.00000E-45
2.96632E-01 1.00000E-45
3.00625E-01 1.00000E-45
3.04634E-01 1.00000E-45
3.08658E-01 1.00000E-45
3.12697E-01 1.00000E-45
3.16749E-01 1.00000E-45
3.20816E-01 1.00000E-45
3.24896E-01 1.00000E-45
3.28990E-01 1.00000E-45
3.33097E-01 1.00000E-45
3.37216E-01 1.00000E-45
3.41348E-01 1.00000E-45
3.45492E-01 1.00000E-45
3.49647E-01 1.00000E-45
3.53814E-01 1.00000E-45
3.57992E-01 1.00000E-45
3.62181E-01 1.00000E-45
3.66381E-01 1.00000E-45
3.70590E-01 1.00000E-45
3.74810E-01 1.00000E-45
3.79039E-01 1.00000E-45
3.83277E-01 1.00000E-45
3.87524E-01 1.00000E-45
3.91780E-01 1.00000E-45
3.96044E-01 1.00000E-45
4.00316E-01 1.00000E-45
4.04596E-01 1.00000E-45
4.08882E-01 1.00000E-45
4.13176E-01 1.00000E-45
4.17476E-01 1.00000E-45
4.21783E-01 1.00000E-45
4.26095E-01 1.00000E-45
4.30413E-01 1.00000E-45
4.34737E-01 1.00000E-45
4.39065E-01 1.00000E-45
4.43398E-01 1.00000E-45
4.47736E-01 1.00000E-45
4.52077E-01 1.00000E-45
4.56422E-01 1.00000E-45
4.60770E-01 1.00000E-45
4.65122E-01 1.00000E-45
4.69476E-01 1.00000E-45
4.73832E-01 1.00000E-45
4.78190E-01 1.00000E-45
4.82550E-01 1.00000E-45
4.86912E-01 1.00000E-45
4.91274E-01 1.00000E-45
4.95637E-01 1.00000E-45
5.00000E-01 1.00000E-45
5.04363E-01 1.00000E-45
5.08726E-01 1.00000E-45
5.13088E-01 1.00000E-45
5.17450E-01 1.00000E-45
5.21810E-01 1.00000E-45
5.26168E-01 1.00000E-45
5.30524E-01 1.00000E-45
5.34878E-01 1.00000E-45
5.39230E-01 1.00000E-45
5.43578E-01 1.00000E-45
5.47923E-01 1.00000E-45
5.52264E-01 1.00000E-45
5.56602E-01 1.00000E-45
5.60935E-01 1.00000E-45
5.65263E-01 1.00000E-45
5.69587E-01 1.00000E-45
5.73905E-01 1.00000E-45
5.78217E-01 1.00000E-45
5.82524E-01 1.00000E-45
5.86824E-01 1.00000E-45
5.91118E-01 1.00000E-45
5.95404E-01 1.00000E-45
5.99684E-01 1.00000E-45
6.03956E-01 1.00000E-45
6.08220E-01 1.00000E-45
6.12476E-01 1.00000E-45
6.16723E-01 1.00000E-45
6.20961E-01 1.00000E-45
6.25190E-01 1.00000E-45
6.29410E-01 1.00000E-45
6.33619E-01 1.00000E-45
6.37819E-01 1.00000E-45
6.42008E-01 1.00000E-45
6.46186E-01 1.00000E-45
6.50353E-01 1.00000E-45
6.54508E-01 1.00000E-45
6.58652E-01 1.00000E-45
6.62784E-01 1.00000E-45
6.66903E-01 1.00000E-45
6.71010E-01 1.00000E-45
6.75104E-01 1.00000E-45
6.79184E-01 1.00000E-45
6.83251E-01 1.00000E-45
6.87303E-01 1.00000E-45
6.91342E-01 1.00000E-45
6.95366E-01 1.00000E-45
6.99375E-01 1.00000E-45
7.03368E-01 1.00000E-45
7.07347E-01 1.00000E-45
7.11309E-01 1.00000E-45
7.15256E-01 1.00000E-45
7.19186E-01 1.00000E-45
7.23099E-01 1.00000E-45
7.26995E-01 1.00000E-45
7.30874E-01 1.00000E-45
7.34736E-01 1.00000E-45
7.38579E-01 1.00000E-45
7.42405E-01 1.00000E-45
7.46212E-01 1.00000E-45
7.50000E-01 1.00000E-45
7.53769E-01 1.00000E-45
7.57519E-01 1.00000E-45
7.61249E-01 1.00000E-45
7.64960E-01 1.00000E-45
7.68650E-01 1.00000E-45
7.72320E-01 1.00000E-45
7.75968E-01 1.00000E-45
7.79596E-01 1.00000E-45
7.83203E-01 1.00000E-45
7.86788E-01 1.00000E-45
7.90351E-01 1.00000E-45
7.93893E-01 1.00000E-45
7.97411E-01 1.00000E-45
8.00908E-01 1.00000E-45
8.04381E-01 1.00000E-45
8.07831E-01 1.00000E-45
8.11257E-01 1.00000E-45
8.14660E-01 1.00000E-45
8.18039E-01 1.00000E-45
8.21394E-01 1.00000E-45
8.24724E-01 1.00000E-45
8.28030E-01 1.00000E-45
8.31310E-01 1.00000E-45
8.34565E-01 1.00000E-45
8.37795E-01 1.00000E-45
8.40999E-01 1.00000E-45
8.44177E-01 1.00000E-45
8.47329E-01 1.00000E-45
8.50455E-01 1.00000E-45
8.53553E-01 1.00000E-45
8.56625E-01 1.00000E-45
8.59670E-01 1.00000E-45
8.62687E-01 1.00000E-45
8.65677E-01 1.00000E-45
8.68639E-01 1.00000E-45
8.71572E-01 1.00000E-45
8.74478E-01 1.00000E-45
8.77355E-01 1.00000E-45
8.80203E-01 1.00000E-45
8.83022E-01 1.00000E-45
8.85812E-01 1.00000E-45
8.88573E-01 1.00000E-45
8.91304E-01 1.00000E-45
8.94005E-01 1.00000E-45
8.96677E-01 1.00000E-45
8.99318E-01 1.00000E-45
9.01928E-01 1.00000E-45
9.04508E-01 1.00000E-45
9.07058E-01 1.00000E-45
9.09576E-01 1.00000E-45
9.12063E-01 1.00000E-45
9.14519E-01 1.00000E-45
9.16943E-01 1.00000E-45
9.19335E-01 1.00000E-45
9.21696E-01 1.00000E-45
9.24024E-01 1.00000E-45
9.26320E-01 1.00000E-45
9.28584E-01 1.00000E-45
9.30815E-01 1.00000E-45
9.33013E-01 1.00000E-45
9.35178E-01 1.00000E-45
9.37310E-01 1.00000E-45
9.39409E-01 1.00000E-45
9.41474E-01 1.00000E-45
9.43505E-01 1.00000E-45
9.45503E-01 1.00000E-45
9.47467E-01 1.00000E-45
9.49397E-01 1.00000E-45
9.51293E-01 1.00000E-45
9.53154E-01 1.00000E-45
9.54981E-01 1.00000E-45
9.56773E-01 1.00000E-45
9.58530E-01 1.00000E-45
9.60252E-01 1.00000E-45
9.61940E-01 1.00000E-45
9.63592E-01 1.00000E-45
9.65209E-01 1.00000E-45
9.66790E-01 1.00000E-45
9.68336E-01 1.00000E-45
9.69846E-01 1.00000E-45
9.71321E-01 1.00000E-45
9.72759E-01 1.00000E-45
9.74162E-01 1.00000E-45
9.75528E-01 1.00000E-45
9.76858E-01 1.00000E-45
9.78152E-01 1.00000E-45
9.79410E-01 1.00000E-45
9.80631E-01 1.00000E-45
9.81815E-01 1.00000E-45
9.82963E-01 1.00000E-45
9.84074E-01 1.00000E-45
9.85148E-01 1.00000E-45
9.86185E-01 1.00000E-45
9.87185E-01 1.00000E-45
9.88148E-01 1.00000E-45
9.89074E-01 1.00000E-45
9.89962E-01 1.00000E-45
9.90814E-01 1.00000E-45
9.91627E-01 1.00000E-45
9.92404E-01 1.00000E-45
9.93143E-01 1.00000E-45
9.93844E-01 1.00000E-45
9.94508E-01 1.00000E-45
9.95134E-01 1.00000E-45
9.95722E-01 1.00000E-45
9.96273E-01 1.00000E-45
9.96786E-01 1.00000E-45
9.97261E-01 1.00000E-45
9.97698E-01 1.00000E-45
9.98097E-01 1.00000E-45
9.98459E-01 1.00000E-45
9.98782E-01 1.00000E-45
9.99067E-01 1.00000E-45
9.99315E-01 1.00000E-45
9.99524E-01 1.00000E-45
9.99695E-01 1.00000E-45
9.99829E-01 1.00000E-45
9.99924E-01 1.00000E-45
9.99981E-01 1.00000E-45
1.00000E+00 1.00000E-45
