 #
 # Subroutine ELSEPA. Elastic scattering of electrons and positrons
 #                    by neutral atoms and positive ions
 #
 # Projectile: positron
 # Kinetic energy = 1.25000E+08 eV = 4.59367E+06 a.u.
 #
 # WARNING: High-energy factorization with free-atom DF screening.
 #          Absorption, polarization and exchange corrections are
 #          switched off.
 #          Phase shifts are calculated for the bare nucleus.
 #          Scattering amplitudes are not evaluated.
 #
 # Element:  F,  Z =   9,  atomic weight = 1.89984E+01 g/mol
 #
 # Nuclear model: Fermi distribution
 #                Average radius = 2.85511E-13 cm
 #                Skin thickness = 5.46000E-14 cm
 #
 # Number of electrons =  9
 #
 # Total elastic cross section = 2.84991E-19 cm**2 = 1.01772E-02 a0**2
 # 1st transport cross section = 1.12640E-26 cm**2 = 4.02246E-10 a0**2
 # 2nd transport cross section = 3.34649E-26 cm**2 = 1.19505E-09 a0**2
 #
 #
 # Differential cross section:                       MU=(1-COS(THETA))/2
 #
 #  THETA        MU          DCS          DCS        Sherman      error
 #  (deg)                 (cm**2/sr)   (a0**2/sr)    function
 #----------------------------------------------------------------------
0.00000E+00 1.95946E-11
7.61557E-13 1.95705E-11
1.18994E-12 1.95570E-11
1.71346E-12 1.95405E-11
2.33225E-12 1.95211E-11
3.04617E-12 1.94988E-11
3.85530E-12 1.94736E-11
4.75964E-12 1.94454E-11
5.75917E-12 1.94143E-11
6.85391E-12 1.93804E-11
8.04379E-12 1.93436E-11
9.32893E-12 1.93041E-11
1.07092E-11 1.92617E-11
1.21847E-11 1.92166E-11
1.37554E-11 1.91688E-11
1.54213E-11 1.91181E-11
1.71823E-11 1.90649E-11
1.90386E-11 1.90089E-11
2.09900E-11 1.89504E-11
2.30367E-11 1.88894E-11
2.51785E-11 1.88258E-11
2.74156E-11 1.87598E-11
2.97478E-11 1.86913E-11
3.21752E-11 1.86204E-11
3.46979E-11 1.85470E-11
3.73157E-11 1.84714E-11
4.00286E-11 1.83935E-11
4.28368E-11 1.83134E-11
4.57402E-11 1.82311E-11
4.87388E-11 1.81468E-11
5.18325E-11 1.80604E-11
5.50215E-11 1.79720E-11
5.83057E-11 1.78815E-11
6.16850E-11 1.77890E-11
6.51595E-11 1.76947E-11
6.87293E-11 1.75986E-11
7.23943E-11 1.75007E-11
7.61544E-11 1.74012E-11
1.18991E-10 1.62859E-11
1.71347E-10 1.50996E-11
2.33223E-10 1.38623E-11
3.04617E-10 1.26169E-11
3.85531E-10 1.13818E-11
4.75965E-10 1.01879E-11
5.75917E-10 9.07299E-12
6.85389E-10 8.04750E-12
8.04380E-10 7.11541E-12
9.32891E-10 6.27623E-12
1.07092E-09 5.52643E-12
1.21847E-09 4.86057E-12
1.37554E-09 4.27213E-12
1.54213E-09 3.74906E-12
1.71823E-09 3.29144E-12
1.90386E-09 2.89190E-12
2.09900E-09 2.54343E-12
2.30367E-09 2.23969E-12
2.51785E-09 1.97495E-12
2.74156E-09 1.74413E-12
2.97478E-09 1.54283E-12
3.21752E-09 1.36683E-12
3.46978E-09 1.21289E-12
3.73156E-09 1.07846E-12
4.00286E-09 9.60896E-13
4.28368E-09 8.57915E-13
4.57402E-09 7.67558E-13
4.87388E-09 6.88143E-13
5.18326E-09 6.18222E-13
5.50215E-09 5.56551E-13
5.83057E-09 5.01986E-13
6.16850E-09 4.53704E-13
6.51596E-09 4.10905E-13
6.87293E-09 3.72891E-13
7.23942E-09 3.39061E-13
7.61544E-09 3.08896E-13
1.18991E-08 1.34037E-13
1.71347E-08 6.73725E-14
2.33223E-08 3.77665E-14
3.04617E-08 2.29391E-14
3.85531E-08 1.47948E-14
4.75965E-08 9.99117E-15
5.75917E-08 6.99620E-15
6.85389E-08 5.04603E-15
8.04380E-08 3.73008E-15
9.32891E-08 2.81547E-15
1.07092E-07 2.16360E-15
1.21847E-07 1.68900E-15
1.37554E-07 1.33703E-15
1.54213E-07 1.07166E-15
1.71823E-07 8.68627E-16
1.90386E-07 7.11196E-16
2.09900E-07 5.87679E-16
2.30367E-07 4.89718E-16
2.51785E-07 4.11248E-16
2.74156E-07 3.47814E-16
2.97478E-07 2.96097E-16
3.21752E-07 2.53607E-16
3.46978E-07 2.18445E-16
3.73156E-07 1.89151E-16
4.00286E-07 1.64592E-16
4.28368E-07 1.43879E-16
4.57402E-07 1.26316E-16
4.87388E-07 1.11347E-16
5.18325E-07 9.85251E-17
5.50215E-07 8.74930E-17
5.83057E-07 7.79596E-17
6.16850E-07 6.96876E-17
6.51596E-07 6.24823E-17
6.87293E-07 5.61832E-17
7.23942E-07 5.06571E-17
7.61543E-07 4.57930E-17
1.18991E-06 1.87925E-17
1.71347E-06 9.06944E-18
2.33223E-06 4.89703E-18
3.04617E-06 2.87096E-18
3.85531E-06 1.79241E-18
4.75964E-06 1.17598E-18
5.75916E-06 8.03186E-19
6.85388E-06 5.67085E-19
8.04378E-06 4.11704E-19
9.32888E-06 3.06077E-19
1.07092E-05 2.32253E-19
1.21846E-05 1.79403E-19
1.37553E-05 1.40766E-19
1.54212E-05 1.11992E-19
1.71822E-05 9.02077E-20
1.90385E-05 7.34702E-20
2.09899E-05 6.04423E-20
2.30365E-05 5.01779E-20
2.51783E-05 4.20025E-20
2.74153E-05 3.54260E-20
2.97475E-05 3.00875E-20
3.21749E-05 2.57177E-20
3.46974E-05 2.21131E-20
3.73152E-05 1.91184E-20
4.00281E-05 1.66140E-20
4.28362E-05 1.45066E-20
4.57395E-05 1.27229E-20
4.87380E-05 1.12051E-20
5.18317E-05 9.90694E-21
5.50205E-05 8.79144E-21
5.83045E-05 7.82859E-21
6.16838E-05 6.99400E-21
6.51582E-05 6.26772E-21
6.87277E-05 5.63330E-21
7.23925E-05 5.07715E-21
7.61524E-05 4.58662E-21
9.21439E-05 3.13197E-21
1.09658E-04 2.21083E-21
1.28695E-04 1.60472E-21
1.49255E-04 1.19274E-21
1.71338E-04 9.04851E-22
1.94942E-04 6.98785E-22
2.20070E-04 5.48158E-22
2.46720E-04 4.36000E-22
2.74892E-04 3.51103E-22
3.04586E-04 2.85890E-22
3.35803E-04 2.35130E-22
3.68542E-04 1.95145E-22
4.02802E-04 1.63304E-22
4.38585E-04 1.37696E-22
4.75889E-04 1.16912E-22
5.14715E-04 9.99031E-23
5.55063E-04 8.58749E-23
5.96931E-04 7.42223E-23
6.40321E-04 6.44789E-23
6.85233E-04 5.62813E-23
7.31665E-04 4.93445E-23
7.79618E-04 4.34430E-23
8.29092E-04 3.83968E-23
8.80086E-04 3.40614E-23
9.32601E-04 3.03201E-23
9.86636E-04 2.70779E-23
1.04219E-03 2.42570E-23
1.09927E-03 2.17934E-23
1.15786E-03 1.96342E-23
1.21797E-03 1.77354E-23
1.27961E-03 1.60603E-23
1.34276E-03 1.45779E-23
1.40743E-03 1.32623E-23
1.47362E-03 1.20915E-23
1.54133E-03 1.10467E-23
1.61056E-03 1.01122E-23
1.68131E-03 9.27413E-24
1.75357E-03 8.52090E-24
1.82735E-03 7.84239E-24
1.90265E-03 7.22990E-24
1.97947E-03 6.67587E-24
2.05780E-03 6.17374E-24
2.13765E-03 5.71780E-24
2.21902E-03 5.30304E-24
2.30190E-03 4.92508E-24
2.38630E-03 4.58008E-24
2.47222E-03 4.26466E-24
2.55965E-03 3.97582E-24
2.64859E-03 3.71093E-24
2.73905E-03 3.46765E-24
2.83103E-03 3.24389E-24
2.92452E-03 3.03782E-24
3.01952E-03 2.84778E-24
3.11604E-03 2.67230E-24
3.21407E-03 2.51007E-24
3.31362E-03 2.35990E-24
3.41468E-03 2.22075E-24
3.51725E-03 2.09164E-24
3.62133E-03 1.97173E-24
3.72692E-03 1.86025E-24
3.83403E-03 1.75649E-24
3.94265E-03 1.65982E-24
4.05278E-03 1.56967E-24
4.16442E-03 1.48552E-24
4.27757E-03 1.40691E-24
4.39223E-03 1.33339E-24
4.50840E-03 1.26457E-24
4.62608E-03 1.20012E-24
4.74527E-03 1.13968E-24
4.86597E-03 1.08298E-24
4.98817E-03 1.02974E-24
5.11188E-03 9.79698E-25
5.23711E-03 9.32640E-25
5.36383E-03 8.88352E-25
5.49207E-03 8.46641E-25
5.62181E-03 8.07329E-25
5.75306E-03 7.70254E-25
5.88581E-03 7.35265E-25
6.02007E-03 7.02223E-25
6.15583E-03 6.71000E-25
6.29310E-03 6.41477E-25
6.43187E-03 6.13545E-25
6.57214E-03 5.87103E-25
6.71392E-03 5.62057E-25
6.85720E-03 5.38318E-25
7.00198E-03 5.15807E-25
7.14827E-03 4.94449E-25
7.29605E-03 4.74173E-25
7.44534E-03 4.54915E-25
7.59612E-03 4.36614E-25
7.97965E-03 3.94690E-25
8.37255E-03 3.57626E-25
8.77480E-03 3.24763E-25
9.18641E-03 2.95547E-25
9.60736E-03 2.69503E-25
1.00376E-02 2.46230E-25
1.04773E-02 2.25382E-25
1.09262E-02 2.06664E-25
1.13844E-02 1.89822E-25
1.18520E-02 1.74635E-25
1.23288E-02 1.60914E-25
1.28150E-02 1.48492E-25
1.33104E-02 1.37226E-25
1.38150E-02 1.26990E-25
1.43290E-02 1.17674E-25
1.48521E-02 1.09180E-25
1.53845E-02 1.01425E-25
1.59262E-02 9.43323E-26
1.64770E-02 8.78362E-26
1.70371E-02 8.18779E-26
1.76063E-02 7.64053E-26
1.81848E-02 7.13721E-26
1.87724E-02 6.67369E-26
1.93692E-02 6.24629E-26
1.99751E-02 5.85172E-26
2.05901E-02 5.48703E-26
2.12143E-02 5.14957E-26
2.18476E-02 4.83696E-26
2.24900E-02 4.54706E-26
2.31415E-02 4.27794E-26
2.38021E-02 4.02786E-26
2.44717E-02 3.79525E-26
2.51504E-02 3.57867E-26
2.58382E-02 3.37684E-26
2.65349E-02 3.18859E-26
2.72407E-02 3.01284E-26
2.79555E-02 2.84862E-26
2.86793E-02 2.69506E-26
2.94120E-02 2.55134E-26
3.01537E-02 2.41673E-26
3.09043E-02 2.29055E-26
3.16639E-02 2.17219E-26
3.24324E-02 2.06109E-26
3.32098E-02 1.95672E-26
3.39961E-02 1.85860E-26
3.47912E-02 1.76631E-26
3.55952E-02 1.67944E-26
3.64081E-02 1.59761E-26
3.72297E-02 1.52050E-26
3.80602E-02 1.44777E-26
3.88995E-02 1.37914E-26
3.97476E-02 1.31435E-26
4.06044E-02 1.25314E-26
4.14700E-02 1.19528E-26
4.23443E-02 1.14056E-26
4.32273E-02 1.08878E-26
4.41190E-02 1.03976E-26
4.50194E-02 9.93321E-27
4.59284E-02 9.49315E-27
4.68461E-02 9.07591E-27
4.87074E-02 8.30448E-27
5.06030E-02 7.60902E-27
5.25328E-02 6.98096E-27
5.44967E-02 6.41278E-27
5.64946E-02 5.89795E-27
5.85262E-02 5.43072E-27
6.05914E-02 5.00605E-27
6.26901E-02 4.61951E-27
6.48222E-02 4.26718E-27
6.69873E-02 3.94560E-27
6.91854E-02 3.65171E-27
7.14163E-02 3.38279E-27
7.36799E-02 3.13643E-27
7.59760E-02 2.91046E-27
7.83043E-02 2.70298E-27
8.06647E-02 2.51226E-27
8.30571E-02 2.33676E-27
8.54812E-02 2.17511E-27
8.79369E-02 2.02607E-27
9.04240E-02 1.88852E-27
9.29422E-02 1.76148E-27
9.54915E-02 1.64402E-27
9.80716E-02 1.53534E-27
1.00682E-01 1.43469E-27
1.03323E-01 1.34141E-27
1.05995E-01 1.25489E-27
1.08696E-01 1.17458E-27
1.11427E-01 1.09999E-27
1.14188E-01 1.03064E-27
1.16978E-01 9.66146E-28
1.19797E-01 9.06112E-28
1.22645E-01 8.50197E-28
1.25522E-01 7.98086E-28
1.28428E-01 7.49492E-28
1.31361E-01 7.04150E-28
1.34323E-01 6.61818E-28
1.37313E-01 6.22275E-28
1.40330E-01 5.85318E-28
1.43375E-01 5.50758E-28
1.46447E-01 5.18426E-28
1.49545E-01 4.88161E-28
1.52671E-01 4.59818E-28
1.55823E-01 4.33263E-28
1.59001E-01 4.08372E-28
1.62205E-01 3.85030E-28
1.65435E-01 3.63131E-28
1.68690E-01 3.42578E-28
1.71970E-01 3.23281E-28
1.75276E-01 3.05155E-28
1.78606E-01 2.88122E-28
1.81961E-01 2.72112E-28
1.85340E-01 2.57056E-28
1.88743E-01 2.42894E-28
1.92169E-01 2.29567E-28
1.95619E-01 2.17022E-28
1.99092E-01 2.05210E-28
2.02589E-01 1.94084E-28
2.06107E-01 1.83600E-28
2.09649E-01 1.73720E-28
2.13212E-01 1.64405E-28
2.16797E-01 1.55621E-28
2.20404E-01 1.47334E-28
2.24032E-01 1.39516E-28
2.27680E-01 1.32136E-28
2.31350E-01 1.25170E-28
2.35040E-01 1.18592E-28
2.38751E-01 1.12378E-28
2.42481E-01 1.06508E-28
2.46231E-01 1.00961E-28
2.50000E-01 9.57186E-29
2.53788E-01 9.07622E-29
2.57595E-01 8.60754E-29
2.61421E-01 8.16427E-29
2.65264E-01 7.74495E-29
2.69126E-01 7.34819E-29
2.73005E-01 6.97272E-29
2.76901E-01 6.61733E-29
2.80814E-01 6.28087E-29
2.84744E-01 5.96228E-29
2.88691E-01 5.66056E-29
2.92653E-01 5.37477E-29
2.96632E-01 5.10401E-29
3.00625E-01 4.84747E-29
3.04634E-01 4.60434E-29
3.08658E-01 4.37389E-29
3.12697E-01 4.15543E-29
3.16749E-01 3.94831E-29
3.20816E-01 3.75190E-29
3.24896E-01 3.56562E-29
3.28990E-01 3.38893E-29
3.33097E-01 3.22132E-29
3.37216E-01 3.06228E-29
3.41348E-01 2.91138E-29
3.45492E-01 2.76816E-29
3.49647E-01 2.63222E-29
3.53814E-01 2.50318E-29
3.57992E-01 2.38067E-29
3.62181E-01 2.26435E-29
3.66381E-01 2.15390E-29
3.70590E-01 2.04899E-29
3.74810E-01 1.94935E-29
3.79039E-01 1.85470E-29
3.83277E-01 1.76479E-29
3.87524E-01 1.67935E-29
3.91780E-01 1.59818E-29
3.96044E-01 1.52103E-29
4.00316E-01 1.44771E-29
4.04596E-01 1.37803E-29
4.08882E-01 1.31178E-29
4.13176E-01 1.24881E-29
4.17476E-01 1.18894E-29
4.21783E-01 1.13201E-29
4.26095E-01 1.07788E-29
4.30413E-01 1.02640E-29
4.34737E-01 9.77434E-30
4.39065E-01 9.30865E-30
4.43398E-01 8.86568E-30
4.47736E-01 8.44428E-30
4.52077E-01 8.04338E-30
4.56422E-01 7.66195E-30
4.60770E-01 7.29901E-30
4.65122E-01 6.95365E-30
4.69476E-01 6.62499E-30
4.73832E-01 6.31221E-30
4.78190E-01 6.01450E-30
4.82550E-01 5.73114E-30
4.86912E-01 5.46140E-30
4.91274E-01 5.20463E-30
4.95637E-01 4.96017E-30
5.00000E-01 4.72742E-30
5.04363E-01 4.50582E-30
5.08726E-01 4.29481E-30
5.13088E-01 4.09387E-30
5.17450E-01 3.90251E-30
5.21810E-01 3.72027E-30
5.26168E-01 3.54670E-30
5.30524E-01 3.38138E-30
5.34878E-01 3.22391E-30
5.39230E-01 3.07390E-30
5.43578E-01 2.93100E-30
5.47923E-01 2.79486E-30
5.52264E-01 2.66516E-30
5.56602E-01 2.54158E-30
5.60935E-01 2.42383E-30
5.65263E-01 2.31162E-30
5.69587E-01 2.20470E-30
5.73905E-01 2.10281E-30
5.78217E-01 2.00571E-30
5.82524E-01 1.91316E-30
5.86824E-01 1.82495E-30
5.91118E-01 1.74087E-30
5.95404E-01 1.66073E-30
5.99684E-01 1.58434E-30
6.03956E-01 1.51151E-30
6.08220E-01 1.44208E-30
6.12476E-01 1.37589E-30
6.16723E-01 1.31279E-30
6.20961E-01 1.25262E-30
6.25190E-01 1.19525E-30
6.29410E-01 1.14054E-30
6.33619E-01 1.08838E-30
6.37819E-01 1.03863E-30
6.42008E-01 9.91189E-31
6.46186E-01 9.45944E-31
6.50353E-01 9.02793E-31
6.54508E-01 8.61637E-31
6.58652E-01 8.22381E-31
6.62784E-01 7.84937E-31
6.66903E-01 7.49219E-31
6.71010E-01 7.15147E-31
6.75104E-01 6.82643E-31
6.79184E-01 6.51635E-31
6.83251E-01 6.22052E-31
6.87303E-01 5.93827E-31
6.91342E-01 5.66897E-31
6.95366E-01 5.41202E-31
6.99375E-01 5.16685E-31
7.03368E-01 4.93289E-31
7.07347E-01 4.70964E-31
7.11309E-01 4.49659E-31
7.15256E-01 4.29328E-31
7.19186E-01 4.09924E-31
7.23099E-01 3.91405E-31
7.26995E-01 3.73730E-31
7.30874E-01 3.56860E-31
7.34736E-01 3.40757E-31
7.38579E-01 3.25386E-31
7.42405E-01 3.10714E-31
7.46212E-01 2.96707E-31
7.50000E-01 2.83336E-31
7.53769E-01 2.70571E-31
7.57519E-01 2.58384E-31
7.61249E-01 2.46749E-31
7.64960E-01 2.35640E-31
7.68650E-01 2.25033E-31
7.72320E-01 2.14905E-31
7.75968E-01 2.05234E-31
7.79596E-01 1.95999E-31
7.83203E-01 1.87180E-31
7.86788E-01 1.78758E-31
7.90351E-01 1.70716E-31
7.93893E-01 1.63034E-31
7.97411E-01 1.55698E-31
8.00908E-01 1.48692E-31
8.04381E-01 1.41999E-31
8.07831E-01 1.35607E-31
8.11257E-01 1.29501E-31
8.14660E-01 1.23668E-31
8.18039E-01 1.18097E-31
8.21394E-01 1.12774E-31
8.24724E-01 1.07689E-31
8.28030E-01 1.02832E-31
8.31310E-01 9.81905E-32
8.34565E-01 9.37563E-32
8.37795E-01 8.95196E-32
8.40999E-01 8.54716E-32
8.44177E-01 8.16037E-32
8.47329E-01 7.79077E-32
8.50455E-01 7.43759E-32
8.53553E-01 7.10010E-32
8.56625E-01 6.77758E-32
8.59670E-01 6.46936E-32
8.62687E-01 6.17480E-32
8.65677E-01 5.89328E-32
8.68639E-01 5.62423E-32
8.71572E-01 5.36708E-32
8.74478E-01 5.12129E-32
8.77355E-01 4.88636E-32
8.80203E-01 4.66180E-32
8.83022E-01 4.44716E-32
8.85812E-01 4.24197E-32
8.88573E-01 4.04584E-32
8.91304E-01 3.85835E-32
8.94005E-01 3.67911E-32
8.96677E-01 3.50775E-32
8.99318E-01 3.34394E-32
9.01928E-01 3.18733E-32
9.04508E-01 3.03761E-32
9.07058E-01 2.89446E-32
9.09576E-01 2.75760E-32
9.12063E-01 2.62676E-32
9.14519E-01 2.50165E-32
9.16943E-01 2.38204E-32
9.19335E-01 2.26767E-32
9.21696E-01 2.15832E-32
9.24024E-01 2.05376E-32
9.26320E-01 1.95380E-32
9.28584E-01 1.85822E-32
9.30815E-01 1.76683E-32
9.33013E-01 1.67945E-32
9.35178E-01 1.59591E-32
9.37310E-01 1.51603E-32
9.39409E-01 1.43966E-32
9.41474E-01 1.36665E-32
9.43505E-01 1.29685E-32
9.45503E-01 1.23012E-32
9.47467E-01 1.16632E-32
9.49397E-01 1.10534E-32
9.51293E-01 1.04705E-32
9.53154E-01 9.91335E-33
9.54981E-01 9.38091E-33
9.56773E-01 8.87202E-33
9.58530E-01 8.38575E-33
9.60252E-01 7.92111E-33
9.61940E-01 7.47724E-33
9.63592E-01 7.05322E-33
9.65209E-01 6.64821E-33
9.66790E-01 6.26143E-33
9.68336E-01 5.89215E-33
9.69846E-01 5.53963E-33
9.71321E-01 5.20317E-33
9.72759E-01 4.88214E-33
9.74162E-01 4.57589E-33
9.75528E-01 4.28386E-33
9.76858E-01 4.00540E-33
9.78152E-01 3.74006E-33
9.79410E-01 3.48727E-33
9.80631E-01 3.24659E-33
9.81815E-01 3.01752E-33
9.82963E-01 2.79964E-33
9.84074E-01 2.59249E-33
9.85148E-01 2.39570E-33
9.86185E-01 2.20889E-33
9.87185E-01 2.03170E-33
9.88148E-01 1.86379E-33
9.89074E-01 1.70482E-33
9.89962E-01 1.55450E-33
9.90814E-01 1.41255E-33
9.91627E-01 1.27870E-33
9.92404E-01 1.15264E-33
9.93143E-01 1.03420E-33
9.93844E-01 9.23135E-34
9.94508E-01 8.19208E-34
9.95134E-01 7.22234E-34
9.95722E-01 6.32034E-34
9.96273E-01 5.48417E-34
9.96786E-01 4.71257E-34
9.97261E-01 4.00376E-34
9.97698E-01 3.35654E-34
9.98097E-01 2.76963E-34
9.98459E-01 2.24187E-34
9.98782E-01 1.77239E-34
9.99067E-01 1.36015E-34
9.99315E-01 1.00452E-34
9.99524E-01 7.04663E-35
9.99695E-01 4.60160E-35
9.99829E-01 2.70374E-35
9.99924E-01 1.35205E-35
9.99981E-01 5.41364E-36
1.00000E+00 2.70232E-36
