 #
 # Subroutine ELSEPA. Elastic scattering of electrons and positrons
 #                    by neutral atoms and positive ions
 #
 # Projectile: positron
 # Kinetic energy = 5.00000E+08 eV = 1.83747E+07 a.u.
 #
 # WARNING: High-energy factorization with free-atom DF screening.
 #          Absorption, polarization and exchange corrections are
 #          switched off.
 #          Phase shifts are calculated for the bare nucleus.
 #          Scattering amplitudes are not evaluated.
 #
 # Element:  F,  Z =   9,  atomic weight = 1.89984E+01 g/mol
 #
 # Nuclear model: Fermi distribution
 #                Average radius = 2.85511E-13 cm
 #                Skin thickness = 5.46000E-14 cm
 #
 # Number of electrons =  9
 #
 # Total elastic cross section = 2.84604E-19 cm**2 = 1.01634E-02 a0**2
 # 1st transport cross section = 7.18020E-28 cm**2 = 2.56410E-11 a0**2
 # 2nd transport cross section = 2.15249E-27 cm**2 = 7.68669E-11 a0**2
 #
 #
 # Differential cross section:                       MU=(1-COS(THETA))/2
 #
 #  THETA        MU          DCS          DCS        Sherman      error
 #  (deg)                 (cm**2/sr)   (a0**2/sr)    function
 #----------------------------------------------------------------------
0.00000E+00 3.11602E-10
7.61557E-13 3.05627E-10
1.18994E-12 3.02344E-10
1.71346E-12 2.98405E-10
2.33225E-12 2.93844E-10
3.04617E-12 2.88711E-10
3.85530E-12 2.83050E-10
4.75964E-12 2.76917E-10
5.75917E-12 2.70362E-10
6.85391E-12 2.63013E-10
8.04379E-12 2.55609E-10
9.32893E-12 2.48565E-10
1.07092E-11 2.40496E-10
1.21847E-11 2.32589E-10
1.37554E-11 2.25221E-10
1.54213E-11 2.16674E-10
1.71823E-11 2.08709E-10
1.90386E-11 2.01174E-10
2.09900E-11 1.92775E-10
2.30367E-11 1.85082E-10
2.51785E-11 1.77619E-10
2.74156E-11 1.69734E-10
2.97478E-11 1.62536E-10
3.21752E-11 1.55403E-10
3.46979E-11 1.48195E-10
3.73157E-11 1.41621E-10
4.00286E-11 1.34994E-10
4.28368E-11 1.28538E-10
4.57402E-11 1.22645E-10
4.87388E-11 1.16628E-10
5.18325E-11 1.10932E-10
5.50215E-11 1.05726E-10
5.83057E-11 1.00360E-10
6.16850E-11 9.53945E-11
6.51595E-11 9.08106E-11
6.87293E-11 8.61280E-11
7.23943E-11 8.18369E-11
7.61544E-11 7.78041E-11
1.18991E-10 4.63480E-11
1.71347E-10 2.79919E-11
2.33223E-10 1.73207E-11
3.04617E-10 1.10600E-11
3.85531E-10 7.29458E-12
4.75965E-10 4.96793E-12
5.75917E-10 3.48633E-12
6.85389E-10 2.51393E-12
8.04380E-10 1.85928E-12
9.32891E-10 1.40573E-12
1.07092E-09 1.08380E-12
1.21847E-09 8.50191E-13
1.37554E-09 6.77212E-13
1.54213E-09 5.46752E-13
1.71823E-09 4.46754E-13
1.90386E-09 3.68965E-13
2.09900E-09 3.07643E-13
2.30367E-09 2.58719E-13
2.51785E-09 2.19261E-13
2.74156E-09 1.87123E-13
2.97478E-09 1.60713E-13
3.21752E-09 1.38816E-13
3.46978E-09 1.20542E-13
3.73156E-09 1.05190E-13
4.00286E-09 9.22107E-14
4.28368E-09 8.11746E-14
4.57402E-09 7.17405E-14
4.87388E-09 6.36359E-14
5.18326E-09 5.66413E-14
5.50215E-09 5.05759E-14
5.83057E-09 4.52968E-14
6.16850E-09 4.06859E-14
6.51596E-09 3.66443E-14
6.87293E-09 3.30897E-14
7.23942E-09 2.99534E-14
7.61544E-09 2.71779E-14
1.18991E-08 1.14461E-14
1.71347E-08 5.59837E-15
2.33223E-08 3.04481E-15
3.04617E-08 1.79247E-15
3.85531E-08 1.12188E-15
4.75965E-08 7.37230E-16
5.75917E-08 5.04052E-16
6.85389E-08 3.56136E-16
8.04380E-08 2.58685E-16
9.32891E-08 1.92387E-16
1.07092E-07 1.46024E-16
1.21847E-07 1.12820E-16
1.37554E-07 8.85374E-17
1.54213E-07 7.04491E-17
1.71823E-07 5.67523E-17
1.90386E-07 4.62278E-17
2.09900E-07 3.80335E-17
2.30367E-07 3.15767E-17
2.51785E-07 2.64332E-17
2.74156E-07 2.22955E-17
2.97478E-07 1.89367E-17
3.21752E-07 1.61872E-17
3.46978E-07 1.39191E-17
3.73156E-07 1.20347E-17
4.00286E-07 1.04586E-17
4.28368E-07 9.13234E-18
4.57402E-07 8.00977E-18
4.87388E-07 7.05451E-18
5.18325E-07 6.23750E-18
5.50215E-07 5.53541E-18
5.83057E-07 4.92938E-18
6.16850E-07 4.40407E-18
6.51596E-07 3.94690E-18
6.87293E-07 3.54754E-18
7.23942E-07 3.19744E-18
7.61543E-07 2.88948E-18
1.18991E-06 1.18350E-18
1.71347E-06 5.70723E-19
2.33223E-06 3.08050E-19
3.04617E-06 1.80566E-19
3.85531E-06 1.12722E-19
4.75964E-06 7.39536E-20
5.75916E-06 5.05091E-20
6.85388E-06 3.56613E-20
8.04378E-06 2.58899E-20
9.32888E-06 1.92474E-20
1.07092E-05 1.46050E-20
1.21846E-05 1.12815E-20
1.37553E-05 8.85183E-21
1.54212E-05 7.04239E-21
1.71822E-05 5.67253E-21
1.90385E-05 4.62001E-21
2.09899E-05 3.80077E-21
2.30365E-05 3.15532E-21
2.51783E-05 2.64122E-21
2.74153E-05 2.22767E-21
2.97475E-05 1.89197E-21
3.21749E-05 1.61719E-21
3.46974E-05 1.39052E-21
3.73152E-05 1.20221E-21
4.00281E-05 1.04472E-21
4.28362E-05 9.12202E-22
4.57395E-05 8.00040E-22
4.87380E-05 7.04597E-22
5.18317E-05 6.22968E-22
5.50205E-05 5.52823E-22
5.83045E-05 4.92277E-22
6.16838E-05 4.39796E-22
6.51582E-05 3.94126E-22
6.87277E-05 3.54232E-22
7.23925E-05 3.19261E-22
7.61524E-05 2.86966E-22
9.21439E-05 1.95742E-22
1.09658E-04 1.38008E-22
1.28695E-04 1.00042E-22
1.49255E-04 7.42535E-23
1.71338E-04 5.62458E-23
1.94942E-04 4.33661E-23
2.20070E-04 3.39594E-23
2.46720E-04 2.69614E-23
2.74892E-04 2.16692E-23
3.04586E-04 1.76082E-23
3.35803E-04 1.44505E-23
3.68542E-04 1.19659E-23
4.02802E-04 9.98964E-24
4.38585E-04 8.40218E-24
4.75889E-04 7.11545E-24
5.14715E-04 6.06379E-24
5.55063E-04 5.19765E-24
5.96931E-04 4.47925E-24
6.40321E-04 3.87945E-24
6.85233E-04 3.37560E-24
7.31665E-04 2.94994E-24
7.79618E-04 2.58841E-24
8.29092E-04 2.27982E-24
8.80086E-04 2.01518E-24
9.32601E-04 1.78723E-24
9.86636E-04 1.59006E-24
1.04219E-03 1.41886E-24
1.09927E-03 1.26965E-24
1.15786E-03 1.13915E-24
1.21797E-03 1.02463E-24
1.27961E-03 9.23833E-25
1.34276E-03 8.34837E-25
1.40743E-03 7.56038E-25
1.47362E-03 6.86081E-25
1.54133E-03 6.23813E-25
1.61056E-03 5.68251E-25
1.68131E-03 5.18558E-25
1.75357E-03 4.74013E-25
1.82735E-03 4.33997E-25
1.90265E-03 3.97975E-25
1.97947E-03 3.65485E-25
2.05780E-03 3.36125E-25
2.13765E-03 3.09545E-25
2.21902E-03 2.85440E-25
2.30190E-03 2.63542E-25
2.38630E-03 2.43618E-25
2.47222E-03 2.25462E-25
2.55965E-03 2.08891E-25
2.64859E-03 1.93746E-25
2.73905E-03 1.79884E-25
2.83103E-03 1.67180E-25
2.92452E-03 1.55523E-25
3.01952E-03 1.44812E-25
3.11604E-03 1.34959E-25
3.21407E-03 1.25884E-25
3.31362E-03 1.17517E-25
3.41468E-03 1.09794E-25
3.51725E-03 1.02658E-25
3.62133E-03 9.60574E-26
3.72692E-03 8.99463E-26
3.83403E-03 8.42828E-26
3.94265E-03 7.90294E-26
4.05278E-03 7.41518E-26
4.16442E-03 6.96194E-26
4.27757E-03 6.54040E-26
4.39223E-03 6.14803E-26
4.50840E-03 5.78252E-26
4.62608E-03 5.44177E-26
4.74527E-03 5.12386E-26
4.86597E-03 4.82705E-26
4.98817E-03 4.54973E-26
5.11188E-03 4.29045E-26
5.23711E-03 4.04788E-26
5.36383E-03 3.82078E-26
5.49207E-03 3.60804E-26
5.62181E-03 3.40863E-26
5.75306E-03 3.22160E-26
5.88581E-03 3.04608E-26
6.02007E-03 2.88126E-26
6.15583E-03 2.72642E-26
6.29310E-03 2.58086E-26
6.43187E-03 2.44396E-26
6.57214E-03 2.31514E-26
6.71392E-03 2.19386E-26
6.85720E-03 2.07963E-26
7.00198E-03 1.97198E-26
7.14827E-03 1.87049E-26
7.29605E-03 1.77477E-26
7.44534E-03 1.68444E-26
7.59612E-03 1.59917E-26
7.97965E-03 1.40609E-26
8.37255E-03 1.23834E-26
8.77480E-03 1.09225E-26
9.18641E-03 9.64740E-27
9.60736E-03 8.53228E-27
1.00376E-02 7.55518E-27
1.04773E-02 6.69747E-27
1.09262E-02 5.94330E-27
1.13844E-02 5.27911E-27
1.18520E-02 4.69329E-27
1.23288E-02 4.17589E-27
1.28150E-02 3.71832E-27
1.33104E-02 3.31315E-27
1.38150E-02 2.95398E-27
1.43290E-02 2.63525E-27
1.48521E-02 2.35212E-27
1.53845E-02 2.10039E-27
1.59262E-02 1.87636E-27
1.64770E-02 1.67685E-27
1.70371E-02 1.49902E-27
1.76063E-02 1.34042E-27
1.81848E-02 1.19888E-27
1.87724E-02 1.07248E-27
1.93692E-02 9.59559E-28
1.99751E-02 8.58616E-28
2.05901E-02 7.68347E-28
2.12143E-02 6.87591E-28
2.18476E-02 6.15320E-28
2.24900E-02 5.50624E-28
2.31415E-02 4.92693E-28
2.38021E-02 4.40808E-28
2.44717E-02 3.94329E-28
2.51504E-02 3.52688E-28
2.58382E-02 3.15377E-28
2.65349E-02 2.81943E-28
2.72407E-02 2.51982E-28
2.79555E-02 2.25134E-28
2.86793E-02 2.01076E-28
2.94120E-02 1.79520E-28
3.01537E-02 1.60207E-28
3.09043E-02 1.42907E-28
3.16639E-02 1.27413E-28
3.24324E-02 1.13538E-28
3.32098E-02 1.01117E-28
3.39961E-02 9.00001E-29
3.47912E-02 8.00541E-29
3.55952E-02 7.11584E-29
3.64081E-02 6.32053E-29
3.72297E-02 5.60979E-29
3.80602E-02 4.97491E-29
3.88995E-02 4.40808E-29
3.97476E-02 3.90227E-29
4.06044E-02 3.45118E-29
4.14700E-02 3.04913E-29
4.23443E-02 2.69103E-29
4.32273E-02 2.37229E-29
4.41190E-02 2.08881E-29
4.50194E-02 1.83688E-29
4.59284E-02 1.61319E-29
4.68461E-02 1.41474E-29
4.87074E-02 1.08313E-29
5.06030E-02 8.23734E-30
5.25328E-02 6.21777E-30
5.44967E-02 4.65379E-30
5.64946E-02 3.44996E-30
5.85262E-02 2.52971E-30
6.05914E-02 1.83180E-30
6.26901E-02 1.30736E-30
6.48222E-02 9.17488E-31
6.69873E-02 6.31326E-31
6.91854E-02 4.24505E-31
7.14163E-02 2.77850E-31
7.36799E-02 1.76354E-31
7.59760E-02 1.08338E-31
7.83043E-02 6.47704E-32
8.06647E-02 3.87249E-32
8.30571E-02 2.49340E-32
8.54812E-02 1.94361E-32
8.79369E-02 1.92900E-32
9.04240E-02 2.23472E-32
9.29422E-02 2.70702E-32
9.54915E-02 3.23882E-32
9.80716E-02 3.75834E-32
1.00682E-01 4.22010E-32
1.03323E-01 4.59799E-32
1.05995E-01 4.87979E-32
1.08696E-01 5.06301E-32
1.11427E-01 5.15173E-32
1.14188E-01 5.15421E-32
1.16978E-01 5.08107E-32
1.19797E-01 4.94406E-32
1.22645E-01 4.75516E-32
1.25522E-01 4.52586E-32
1.28428E-01 4.26687E-32
1.31361E-01 3.98781E-32
1.34323E-01 3.69710E-32
1.37313E-01 3.40195E-32
1.40330E-01 3.10835E-32
1.43375E-01 2.82117E-32
1.46447E-01 2.54426E-32
1.49545E-01 2.28051E-32
1.52671E-01 2.03200E-32
1.55823E-01 1.80012E-32
1.59001E-01 1.58567E-32
1.62205E-01 1.38894E-32
1.65435E-01 1.20982E-32
1.68690E-01 1.04791E-32
1.71970E-01 9.02540E-33
1.75276E-01 7.72875E-33
1.78606E-01 6.57949E-33
1.81961E-01 5.56722E-33
1.85340E-01 4.68107E-33
1.88743E-01 3.91013E-33
1.92169E-01 3.24354E-33
1.95619E-01 2.67085E-33
1.99092E-01 2.18199E-33
2.02589E-01 1.76751E-33
2.06107E-01 1.41856E-33
2.09649E-01 1.12699E-33
2.13212E-01 8.85300E-34
2.16797E-01 6.86704E-34
2.20404E-01 5.25076E-34
2.24032E-01 3.94935E-34
2.27680E-01 2.91417E-34
2.31350E-01 2.10232E-34
2.35040E-01 1.47622E-34
2.38751E-01 1.00315E-34
2.42481E-01 6.54915E-35
2.46231E-01 4.07287E-35
2.50000E-01 2.39671E-35
2.53788E-01 1.34675E-35
2.57595E-01 7.77402E-36
2.61421E-01 5.67927E-36
2.65264E-01 6.19217E-36
2.69126E-01 8.50859E-36
2.73005E-01 1.19842E-35
2.76901E-01 1.61123E-35
2.80814E-01 2.04999E-35
2.84744E-01 2.48513E-35
2.88691E-01 2.89503E-35
2.92653E-01 3.26466E-35
2.96632E-01 3.58421E-35
3.00625E-01 3.84809E-35
3.04634E-01 4.05415E-35
3.08658E-01 4.20270E-35
3.12697E-01 4.29593E-35
3.16749E-01 4.33737E-35
3.20816E-01 4.33150E-35
3.24896E-01 4.28347E-35
3.28990E-01 4.19858E-35
3.33097E-01 4.08227E-35
3.37216E-01 3.93988E-35
3.41348E-01 3.77647E-35
3.45492E-01 3.59676E-35
3.49647E-01 3.40520E-35
3.53814E-01 3.20573E-35
3.57992E-01 3.00184E-35
3.62181E-01 2.79656E-35
3.66381E-01 2.59268E-35
3.70590E-01 2.39236E-35
3.74810E-01 2.19743E-35
3.79039E-01 2.00942E-35
3.83277E-01 1.82960E-35
3.87524E-01 1.65875E-35
3.91780E-01 1.49749E-35
3.96044E-01 1.34625E-35
4.00316E-01 1.20527E-35
4.04596E-01 1.07448E-35
4.08882E-01 9.53883E-36
4.13176E-01 8.43191E-36
4.17476E-01 7.42100E-36
4.21783E-01 6.50218E-36
4.26095E-01 5.67108E-36
4.30413E-01 4.92268E-36
4.34737E-01 4.25207E-36
4.39065E-01 3.65399E-36
4.43398E-01 3.12285E-36
4.47736E-01 2.65377E-36
4.52077E-01 2.24138E-36
4.56422E-01 1.88068E-36
4.60770E-01 1.56695E-36
4.65122E-01 1.29559E-36
4.69476E-01 1.06219E-36
4.73832E-01 8.62728E-37
4.78190E-01 6.93491E-37
4.82550E-01 5.50971E-37
4.86912E-01 4.31966E-37
4.91274E-01 3.33489E-37
4.95637E-01 2.52879E-37
5.00000E-01 1.87668E-37
5.04363E-01 1.35785E-37
5.08726E-01 9.51743E-38
5.13088E-01 6.41658E-38
5.17450E-01 4.11677E-38
5.21810E-01 2.48491E-38
5.26168E-01 1.40192E-38
5.30524E-01 7.62750E-39
5.34878E-01 4.78344E-39
5.39230E-01 4.71686E-39
5.43578E-01 6.76520E-39
5.47923E-01 1.03622E-38
5.52264E-01 1.50547E-38
5.56602E-01 2.04401E-38
5.60935E-01 2.61845E-38
5.65263E-01 3.20669E-38
5.69587E-01 3.78635E-38
5.73905E-01 4.33947E-38
5.78217E-01 4.85628E-38
5.82524E-01 5.32462E-38
5.86824E-01 5.74364E-38
5.91118E-01 6.10505E-38
5.95404E-01 6.40930E-38
5.99684E-01 6.65766E-38
6.03956E-01 6.85067E-38
6.08220E-01 6.98466E-38
6.12476E-01 7.07019E-38
6.16723E-01 7.10727E-38
6.20961E-01 7.09967E-38
6.25190E-01 7.05144E-38
6.29410E-01 6.96752E-38
6.33619E-01 6.85158E-38
6.37819E-01 6.70565E-38
6.42008E-01 6.53792E-38
6.46186E-01 6.34736E-38
6.50353E-01 6.14098E-38
6.54508E-01 5.92049E-38
6.58652E-01 5.69008E-38
6.62784E-01 5.44945E-38
6.66903E-01 5.20331E-38
6.71010E-01 4.95722E-38
6.75104E-01 4.70686E-38
6.79184E-01 4.45942E-38
6.83251E-01 4.21319E-38
6.87303E-01 3.97012E-38
6.91342E-01 3.73357E-38
6.95366E-01 3.50504E-38
6.99375E-01 3.28005E-38
7.03368E-01 3.06371E-38
7.07347E-01 2.85699E-38
7.11309E-01 2.65909E-38
7.15256E-01 2.46939E-38
7.19186E-01 2.28852E-38
7.23099E-01 2.11738E-38
7.26995E-01 1.95559E-38
7.30874E-01 1.80192E-38
7.34736E-01 1.65795E-38
7.38579E-01 1.52332E-38
7.42405E-01 1.39639E-38
7.46212E-01 1.27783E-38
7.50000E-01 1.16777E-38
7.53769E-01 1.06368E-38
7.57519E-01 9.68584E-39
7.61249E-01 8.79766E-39
7.64960E-01 7.97009E-39
7.68650E-01 7.21391E-39
7.72320E-01 6.51840E-39
7.75968E-01 5.87342E-39
7.79596E-01 5.28008E-39
7.83203E-01 4.73875E-39
7.86788E-01 4.24110E-39
7.90351E-01 3.79376E-39
7.93893E-01 3.37841E-39
7.97411E-01 3.00671E-39
8.00908E-01 2.66531E-39
8.04381E-01 2.35921E-39
8.07831E-01 2.08142E-39
8.11257E-01 1.83700E-39
8.14660E-01 1.61143E-39
8.18039E-01 1.41046E-39
8.21394E-01 1.23054E-39
8.24724E-01 1.07211E-39
8.28030E-01 9.28581E-40
8.31310E-01 8.01570E-40
8.34565E-01 6.90157E-40
8.37795E-01 5.91673E-40
8.40999E-01 5.03175E-40
8.44177E-01 4.26752E-40
8.47329E-01 3.58766E-40
8.50455E-01 3.00950E-40
8.53553E-01 2.49581E-40
8.56625E-01 2.05152E-40
8.59670E-01 1.66905E-40
8.62687E-01 1.34565E-40
8.65677E-01 1.07988E-40
8.68639E-01 8.42476E-41
8.71572E-01 6.53957E-41
8.74478E-01 4.95184E-41
8.77355E-01 3.67980E-41
8.80203E-01 1.00000E-45
8.83022E-01 1.00000E-45
8.85812E-01 1.00000E-45
8.88573E-01 1.00000E-45
8.91304E-01 1.00000E-45
8.94005E-01 1.00000E-45
8.96677E-01 1.00000E-45
8.99318E-01 1.00000E-45
9.01928E-01 1.00000E-45
9.04508E-01 1.00000E-45
9.07058E-01 1.00000E-45
9.09576E-01 1.00000E-45
9.12063E-01 1.00000E-45
9.14519E-01 1.00000E-45
9.16943E-01 1.00000E-45
9.19335E-01 1.00000E-45
9.21696E-01 1.00000E-45
9.24024E-01 1.00000E-45
9.26320E-01 1.00000E-45
9.28584E-01 1.00000E-45
9.30815E-01 1.00000E-45
9.33013E-01 1.00000E-45
9.35178E-01 1.00000E-45
9.37310E-01 1.00000E-45
9.39409E-01 1.00000E-45
9.41474E-01 1.00000E-45
9.43505E-01 1.00000E-45
9.45503E-01 1.00000E-45
9.47467E-01 1.00000E-45
9.49397E-01 1.00000E-45
9.51293E-01 1.00000E-45
9.53154E-01 1.00000E-45
9.54981E-01 1.00000E-45
9.56773E-01 1.00000E-45
9.58530E-01 1.00000E-45
9.60252E-01 1.00000E-45
9.61940E-01 1.00000E-45
9.63592E-01 1.00000E-45
9.65209E-01 1.00000E-45
9.66790E-01 1.00000E-45
9.68336E-01 1.00000E-45
9.69846E-01 1.00000E-45
9.71321E-01 1.00000E-45
9.72759E-01 1.00000E-45
9.74162E-01 1.00000E-45
9.75528E-01 1.00000E-45
9.76858E-01 1.00000E-45
9.78152E-01 1.00000E-45
9.79410E-01 1.00000E-45
9.80631E-01 1.00000E-45
9.81815E-01 1.00000E-45
9.82963E-01 1.00000E-45
9.84074E-01 1.00000E-45
9.85148E-01 1.00000E-45
9.86185E-01 1.00000E-45
9.87185E-01 1.00000E-45
9.88148E-01 1.00000E-45
9.89074E-01 1.00000E-45
9.89962E-01 1.00000E-45
9.90814E-01 1.00000E-45
9.91627E-01 1.00000E-45
9.92404E-01 1.00000E-45
9.93143E-01 1.00000E-45
9.93844E-01 1.00000E-45
9.94508E-01 1.00000E-45
9.95134E-01 1.00000E-45
9.95722E-01 1.00000E-45
9.96273E-01 1.00000E-45
9.96786E-01 1.00000E-45
9.97261E-01 1.00000E-45
9.97698E-01 1.00000E-45
9.98097E-01 1.00000E-45
9.98459E-01 1.00000E-45
9.98782E-01 1.00000E-45
9.99067E-01 1.00000E-45
9.99315E-01 1.00000E-45
9.99524E-01 1.00000E-45
9.99695E-01 1.00000E-45
9.99829E-01 1.00000E-45
9.99924E-01 1.00000E-45
9.99981E-01 1.00000E-45
1.00000E+00 1.00000E-45
