 #
 # Subroutine ELSEPA. Elastic scattering of electrons and positrons
 #                    by neutral atoms and positive ions
 #
 # Projectile: positron
 # Kinetic energy = 1.50000E+08 eV = 5.51240E+06 a.u.
 #
 # WARNING: High-energy factorization with free-atom DF screening.
 #          Absorption, polarization and exchange corrections are
 #          switched off.
 #          Phase shifts are calculated for the bare nucleus.
 #          Scattering amplitudes are not evaluated.
 #
 # Element:  F,  Z =   9,  atomic weight = 1.89984E+01 g/mol
 #
 # Nuclear model: Fermi distribution
 #                Average radius = 2.85511E-13 cm
 #                Skin thickness = 5.46000E-14 cm
 #
 # Number of electrons =  9
 #
 # Total elastic cross section = 2.84855E-19 cm**2 = 1.01724E-02 a0**2
 # 1st transport cross section = 7.86614E-27 cm**2 = 2.80905E-10 a0**2
 # 2nd transport cross section = 2.34287E-26 cm**2 = 8.36653E-10 a0**2
 #
 #
 # Differential cross section:                       MU=(1-COS(THETA))/2
 #
 #  THETA        MU          DCS          DCS        Sherman      error
 #  (deg)                 (cm**2/sr)   (a0**2/sr)    function
 #----------------------------------------------------------------------
0.00000E+00 2.81780E-11
7.61557E-13 2.81281E-11
1.18994E-12 2.81003E-11
1.71346E-12 2.80664E-11
2.33225E-12 2.80264E-11
3.04617E-12 2.79803E-11
3.85530E-12 2.79283E-11
4.75964E-12 2.78703E-11
5.75917E-12 2.78065E-11
6.85391E-12 2.77369E-11
8.04379E-12 2.76615E-11
9.32893E-12 2.75804E-11
1.07092E-11 2.74937E-11
1.21847E-11 2.74015E-11
1.37554E-11 2.73038E-11
1.54213E-11 2.72008E-11
1.71823E-11 2.70925E-11
1.90386E-11 2.69790E-11
2.09900E-11 2.68604E-11
2.30367E-11 2.67369E-11
2.51785E-11 2.66086E-11
2.74156E-11 2.64755E-11
2.97478E-11 2.63379E-11
3.21752E-11 2.61957E-11
3.46979E-11 2.60492E-11
3.73157E-11 2.58984E-11
4.00286E-11 2.57435E-11
4.28368E-11 2.55846E-11
4.57402E-11 2.54219E-11
4.87388E-11 2.52555E-11
5.18325E-11 2.50854E-11
5.50215E-11 2.49119E-11
5.83057E-11 2.47349E-11
6.16850E-11 2.45547E-11
6.51595E-11 2.43714E-11
6.87293E-11 2.41806E-11
7.23943E-11 2.39714E-11
7.61544E-11 2.37645E-11
1.18991E-10 2.17215E-11
1.71347E-10 1.95617E-11
2.33223E-10 1.73963E-11
3.04617E-10 1.53102E-11
3.85531E-10 1.33613E-11
4.75965E-10 1.15839E-11
5.75917E-10 9.99304E-12
6.85389E-10 8.58982E-12
8.04380E-10 7.36611E-12
9.32891E-10 6.30821E-12
1.07092E-09 5.39959E-12
1.21847E-09 4.62292E-12
1.37554E-09 3.96125E-12
1.54213E-09 3.39733E-12
1.71823E-09 2.91896E-12
1.90386E-09 2.51325E-12
2.09900E-09 2.16911E-12
2.30367E-09 1.87693E-12
2.51785E-09 1.62854E-12
2.74156E-09 1.41702E-12
2.97478E-09 1.23654E-12
3.21752E-09 1.08223E-12
3.46978E-09 9.49977E-13
3.73156E-09 8.36365E-13
4.00286E-09 7.38520E-13
4.28368E-09 6.54036E-13
4.57402E-09 5.80895E-13
4.87388E-09 5.17406E-13
5.18326E-09 4.62145E-13
5.50215E-09 4.13915E-13
5.83057E-09 3.71700E-13
6.16850E-09 3.34660E-13
6.51596E-09 3.02075E-13
6.87293E-09 2.73316E-13
7.23942E-09 2.47836E-13
7.61544E-09 2.25308E-13
1.18991E-08 9.71325E-14
1.71347E-08 4.90051E-14
2.33223E-08 2.75745E-14
3.04617E-08 1.67716E-14
3.85531E-08 1.08040E-14
4.75965E-08 7.27499E-15
5.75917E-08 5.07588E-15
6.85389E-08 3.64593E-15
8.04380E-08 2.68398E-15
9.32891E-08 2.01797E-15
1.07092E-07 1.54517E-15
1.21847E-07 1.20238E-15
1.37554E-07 9.49127E-16
1.54213E-07 7.58817E-16
1.71823E-07 6.13694E-16
1.90386E-07 5.01515E-16
2.09900E-07 4.13726E-16
2.30367E-07 3.44265E-16
2.51785E-07 2.88738E-16
2.74156E-07 2.43932E-16
2.97478E-07 2.07466E-16
3.21752E-07 1.77548E-16
3.46978E-07 1.52821E-16
3.73156E-07 1.32243E-16
4.00286E-07 1.15008E-16
4.28368E-07 1.00487E-16
4.57402E-07 8.81829E-17
4.87388E-07 7.77028E-17
5.18325E-07 6.87322E-17
5.50215E-07 6.10180E-17
5.83057E-07 5.43550E-17
6.16850E-07 4.85761E-17
6.51596E-07 4.35445E-17
6.87293E-07 3.91471E-17
7.23942E-07 3.52907E-17
7.61543E-07 3.18973E-17
1.18991E-06 1.30782E-17
1.71347E-06 6.30931E-18
2.33223E-06 3.40611E-18
3.04617E-06 1.99662E-18
3.85531E-06 1.24645E-18
4.75964E-06 8.17775E-19
5.75916E-06 5.58533E-19
6.85388E-06 3.94348E-19
8.04378E-06 2.86296E-19
9.32888E-06 2.12843E-19
1.07092E-05 1.61506E-19
1.21846E-05 1.24755E-19
1.37553E-05 9.78868E-20
1.54212E-05 7.78775E-20
1.71822E-05 6.27292E-20
1.90385E-05 5.10901E-20
2.09899E-05 4.20307E-20
2.30365E-05 3.48930E-20
2.51783E-05 2.92079E-20
2.74153E-05 2.46347E-20
2.97475E-05 2.09224E-20
3.21749E-05 1.78836E-20
3.46974E-05 1.53771E-20
3.73152E-05 1.32946E-20
4.00281E-05 1.15531E-20
4.28362E-05 1.00876E-20
4.57395E-05 8.84727E-21
4.87380E-05 7.79180E-21
5.18317E-05 6.88911E-21
5.50205E-05 6.11341E-21
5.83045E-05 5.44387E-21
6.16838E-05 4.86351E-21
6.51582E-05 4.35846E-21
6.87277E-05 3.91730E-21
7.23925E-05 3.53056E-21
7.61524E-05 3.18901E-21
9.21439E-05 2.17755E-21
1.09658E-04 1.53707E-21
1.28695E-04 1.11563E-21
1.49255E-04 8.29182E-22
1.71338E-04 6.29018E-22
1.94942E-04 4.85747E-22
2.20070E-04 3.81023E-22
2.46720E-04 3.03047E-22
2.74892E-04 2.44025E-22
3.04586E-04 1.98689E-22
3.35803E-04 1.63402E-22
3.68542E-04 1.35606E-22
4.02802E-04 1.13472E-22
4.38585E-04 9.56719E-23
4.75889E-04 8.12255E-23
5.14715E-04 6.94029E-23
5.55063E-04 5.96528E-23
5.96931E-04 5.15542E-23
6.40321E-04 4.47827E-23
6.85233E-04 3.90858E-23
7.31665E-04 3.42653E-23
7.79618E-04 3.01644E-23
8.29092E-04 2.66580E-23
8.80086E-04 2.36457E-23
9.32601E-04 2.10463E-23
9.86636E-04 1.87937E-23
1.04219E-03 1.68340E-23
1.09927E-03 1.51226E-23
1.15786E-03 1.36228E-23
1.21797E-03 1.23039E-23
1.27961E-03 1.11404E-23
1.34276E-03 1.01109E-23
1.40743E-03 9.19723E-24
1.47362E-03 8.38418E-24
1.54133E-03 7.65875E-24
1.61056E-03 7.00985E-24
1.68131E-03 6.42801E-24
1.75357E-03 5.90509E-24
1.82735E-03 5.43408E-24
1.90265E-03 5.00893E-24
1.97947E-03 4.62439E-24
2.05780E-03 4.27590E-24
2.13765E-03 3.95949E-24
2.21902E-03 3.67168E-24
2.30190E-03 3.40943E-24
2.38630E-03 3.17007E-24
2.47222E-03 2.95124E-24
2.55965E-03 2.75088E-24
2.64859E-03 2.56715E-24
2.73905E-03 2.39842E-24
2.83103E-03 2.24325E-24
2.92452E-03 2.10035E-24
3.01952E-03 1.96858E-24
3.11604E-03 1.84692E-24
3.21407E-03 1.73446E-24
3.31362E-03 1.63037E-24
3.41468E-03 1.53392E-24
3.51725E-03 1.44445E-24
3.62133E-03 1.36136E-24
3.72692E-03 1.28411E-24
3.83403E-03 1.21223E-24
3.94265E-03 1.14527E-24
4.05278E-03 1.08283E-24
4.16442E-03 1.02455E-24
4.27757E-03 9.70105E-25
4.39223E-03 9.19200E-25
4.50840E-03 8.71560E-25
4.62608E-03 8.26939E-25
4.74527E-03 7.85110E-25
4.86597E-03 7.45868E-25
4.98817E-03 7.09023E-25
5.11188E-03 6.74402E-25
5.23711E-03 6.41847E-25
5.36383E-03 6.11212E-25
5.49207E-03 5.82363E-25
5.62181E-03 5.55178E-25
5.75306E-03 5.29543E-25
5.88581E-03 5.05353E-25
6.02007E-03 4.82512E-25
6.15583E-03 4.60932E-25
6.29310E-03 4.40531E-25
6.43187E-03 4.21231E-25
6.57214E-03 4.02963E-25
6.71392E-03 3.85662E-25
6.85720E-03 3.69267E-25
7.00198E-03 3.53722E-25
7.14827E-03 3.38975E-25
7.29605E-03 3.24978E-25
7.44534E-03 3.11685E-25
7.59612E-03 2.99056E-25
7.97965E-03 2.70131E-25
8.37255E-03 2.44569E-25
8.77480E-03 2.21915E-25
9.18641E-03 2.01783E-25
9.60736E-03 1.83845E-25
1.00376E-02 1.67823E-25
1.04773E-02 1.53477E-25
1.09262E-02 1.40603E-25
1.13844E-02 1.29024E-25
1.18520E-02 1.18589E-25
1.23288E-02 1.09166E-25
1.28150E-02 1.00640E-25
1.33104E-02 9.29108E-26
1.38150E-02 8.58923E-26
1.43290E-02 7.95080E-26
1.48521E-02 7.36910E-26
1.53845E-02 6.83824E-26
1.59262E-02 6.35304E-26
1.64770E-02 5.90892E-26
1.70371E-02 5.50182E-26
1.76063E-02 5.12814E-26
1.81848E-02 4.78468E-26
1.87724E-02 4.46859E-26
1.93692E-02 4.17733E-26
1.99751E-02 3.90862E-26
2.05901E-02 3.66043E-26
2.12143E-02 3.43094E-26
2.18476E-02 3.21850E-26
2.24900E-02 3.02164E-26
2.31415E-02 2.83902E-26
2.38021E-02 2.66945E-26
2.44717E-02 2.51185E-26
2.51504E-02 2.36523E-26
2.58382E-02 2.22870E-26
2.65349E-02 2.10145E-26
2.72407E-02 1.98276E-26
2.79555E-02 1.87194E-26
2.86793E-02 1.76841E-26
2.94120E-02 1.67160E-26
3.01537E-02 1.58100E-26
3.09043E-02 1.49615E-26
3.16639E-02 1.41663E-26
3.24324E-02 1.34205E-26
3.32098E-02 1.27206E-26
3.39961E-02 1.20633E-26
3.47912E-02 1.14456E-26
3.55952E-02 1.08647E-26
3.64081E-02 1.03181E-26
3.72297E-02 9.80349E-27
3.80602E-02 9.31866E-27
3.88995E-02 8.86163E-27
3.97476E-02 8.43058E-27
4.06044E-02 8.02379E-27
4.14700E-02 7.63969E-27
4.23443E-02 7.27682E-27
4.32273E-02 6.93385E-27
4.41190E-02 6.60950E-27
4.50194E-02 6.30261E-27
4.59284E-02 6.01212E-27
4.68461E-02 5.73700E-27
4.87074E-02 5.22924E-27
5.06030E-02 4.77259E-27
5.25328E-02 4.36122E-27
5.44967E-02 3.99002E-27
5.64946E-02 3.65455E-27
5.85262E-02 3.35090E-27
6.05914E-02 3.07567E-27
6.26901E-02 2.82585E-27
6.48222E-02 2.59879E-27
6.69873E-02 2.39215E-27
6.91854E-02 2.20387E-27
7.14163E-02 2.03211E-27
7.36799E-02 1.87525E-27
7.59760E-02 1.73183E-27
7.83043E-02 1.60057E-27
8.06647E-02 1.48032E-27
8.30571E-02 1.37003E-27
8.54812E-02 1.26880E-27
8.79369E-02 1.17580E-27
9.04240E-02 1.09027E-27
9.29422E-02 1.01156E-27
9.54915E-02 9.39064E-28
9.80716E-02 8.72235E-28
1.00682E-01 8.10586E-28
1.03323E-01 7.53673E-28
1.05995E-01 7.01097E-28
1.08696E-01 6.52493E-28
1.11427E-01 6.07531E-28
1.14188E-01 5.65913E-28
1.16978E-01 5.27367E-28
1.19797E-01 4.91644E-28
1.22645E-01 4.58519E-28
1.25522E-01 4.27785E-28
1.28428E-01 3.99256E-28
1.31361E-01 3.72759E-28
1.34323E-01 3.48137E-28
1.37313E-01 3.25246E-28
1.40330E-01 3.03956E-28
1.43375E-01 2.84144E-28
1.46447E-01 2.65701E-28
1.49545E-01 2.48524E-28
1.52671E-01 2.32521E-28
1.55823E-01 2.17604E-28
1.59001E-01 2.03696E-28
1.62205E-01 1.90723E-28
1.65435E-01 1.78617E-28
1.68690E-01 1.67317E-28
1.71970E-01 1.56767E-28
1.75276E-01 1.46912E-28
1.78606E-01 1.37704E-28
1.81961E-01 1.29098E-28
1.85340E-01 1.21053E-28
1.88743E-01 1.13530E-28
1.92169E-01 1.06493E-28
1.95619E-01 9.99081E-29
1.99092E-01 9.37458E-29
2.02589E-01 8.79771E-29
2.06107E-01 8.25758E-29
2.09649E-01 7.75171E-29
2.13212E-01 7.27784E-29
2.16797E-01 6.83383E-29
2.20404E-01 6.41774E-29
2.24032E-01 6.02771E-29
2.27680E-01 5.66205E-29
2.31350E-01 5.31917E-29
2.35040E-01 4.99759E-29
2.38751E-01 4.69594E-29
2.42481E-01 4.41294E-29
2.46231E-01 4.14738E-29
2.50000E-01 3.89816E-29
2.53788E-01 3.66424E-29
2.57595E-01 3.44464E-29
2.61421E-01 3.23845E-29
2.65264E-01 3.04484E-29
2.69126E-01 2.86301E-29
2.73005E-01 2.69222E-29
2.76901E-01 2.53179E-29
2.80814E-01 2.38106E-29
2.84744E-01 2.23944E-29
2.88691E-01 2.10636E-29
2.92653E-01 1.98130E-29
2.96632E-01 1.86375E-29
3.00625E-01 1.75325E-29
3.04634E-01 1.64939E-29
3.08658E-01 1.55173E-29
3.12697E-01 1.45992E-29
3.16749E-01 1.37359E-29
3.20816E-01 1.29240E-29
3.24896E-01 1.21605E-29
3.28990E-01 1.14425E-29
3.33097E-01 1.07671E-29
3.37216E-01 1.01318E-29
3.41348E-01 9.53424E-30
3.45492E-01 8.97207E-30
3.49647E-01 8.44318E-30
3.53814E-01 7.94559E-30
3.57992E-01 7.47742E-30
3.62181E-01 7.03691E-30
3.66381E-01 6.62240E-30
3.70590E-01 6.23235E-30
3.74810E-01 5.86530E-30
3.79039E-01 5.51987E-30
3.83277E-01 5.19480E-30
3.87524E-01 4.88886E-30
3.91780E-01 4.60092E-30
3.96044E-01 4.32992E-30
4.00316E-01 4.07486E-30
4.04596E-01 3.83478E-30
4.08882E-01 3.60881E-30
4.13176E-01 3.39612E-30
4.17476E-01 3.19592E-30
4.21783E-01 3.00747E-30
4.26095E-01 2.83008E-30
4.30413E-01 2.66311E-30
4.34737E-01 2.50594E-30
4.39065E-01 2.35799E-30
4.43398E-01 2.21872E-30
4.47736E-01 2.08762E-30
4.52077E-01 1.96422E-30
4.56422E-01 1.84806E-30
4.60770E-01 1.73872E-30
4.65122E-01 1.63579E-30
4.69476E-01 1.53891E-30
4.73832E-01 1.44771E-30
4.78190E-01 1.36187E-30
4.82550E-01 1.28106E-30
4.86912E-01 1.20501E-30
4.91274E-01 1.13342E-30
4.95637E-01 1.06604E-30
5.00000E-01 1.00263E-30
5.04363E-01 9.42939E-31
5.08726E-01 8.86763E-31
5.13088E-01 8.33892E-31
5.17450E-01 7.84135E-31
5.21810E-01 7.37308E-31
5.26168E-01 6.93241E-31
5.30524E-01 6.51771E-31
5.34878E-01 6.12748E-31
5.39230E-01 5.76027E-31
5.43578E-01 5.41475E-31
5.47923E-01 5.08965E-31
5.52264E-01 4.78376E-31
5.56602E-01 4.49596E-31
5.60935E-01 4.22521E-31
5.65263E-01 3.97049E-31
5.69587E-01 3.73086E-31
5.73905E-01 3.50545E-31
5.78217E-01 3.29342E-31
5.82524E-01 3.09399E-31
5.86824E-01 2.90641E-31
5.91118E-01 2.72999E-31
5.95404E-01 2.56407E-31
5.99684E-01 2.40805E-31
6.03956E-01 2.26133E-31
6.08220E-01 2.12337E-31
6.12476E-01 1.99366E-31
6.16723E-01 1.87170E-31
6.20961E-01 1.75705E-31
6.25190E-01 1.64927E-31
6.29410E-01 1.54795E-31
6.33619E-01 1.45272E-31
6.37819E-01 1.36322E-31
6.42008E-01 1.27910E-31
6.46186E-01 1.20005E-31
6.50353E-01 1.12577E-31
6.54508E-01 1.05598E-31
6.58652E-01 9.90405E-32
6.62784E-01 9.28803E-32
6.66903E-01 8.70935E-32
6.71010E-01 8.16579E-32
6.75104E-01 7.65528E-32
6.79184E-01 7.17583E-32
6.83251E-01 6.72560E-32
6.87303E-01 6.30286E-32
6.91342E-01 5.90594E-32
6.95366E-01 5.53332E-32
6.99375E-01 5.18355E-32
7.03368E-01 4.85524E-32
7.07347E-01 4.54712E-32
7.11309E-01 4.25797E-32
7.15256E-01 3.98666E-32
7.19186E-01 3.73211E-32
7.23099E-01 3.49332E-32
7.26995E-01 3.26932E-32
7.30874E-01 3.05924E-32
7.34736E-01 2.86223E-32
7.38579E-01 2.67749E-32
7.42405E-01 2.50428E-32
7.46212E-01 2.34191E-32
7.50000E-01 2.18971E-32
7.53769E-01 2.04708E-32
7.57519E-01 1.91341E-32
7.61249E-01 1.78817E-32
7.64960E-01 1.67085E-32
7.68650E-01 1.56094E-32
7.72320E-01 1.45801E-32
7.75968E-01 1.36162E-32
7.79596E-01 1.27138E-32
7.83203E-01 1.18689E-32
7.86788E-01 1.10782E-32
7.90351E-01 1.03381E-32
7.93893E-01 9.64562E-33
7.97411E-01 8.99777E-33
8.00908E-01 8.39177E-33
8.04381E-01 7.82502E-33
8.07831E-01 7.29506E-33
8.11257E-01 6.79958E-33
8.14660E-01 6.33645E-33
8.18039E-01 5.90361E-33
8.21394E-01 5.49917E-33
8.24724E-01 5.12132E-33
8.28030E-01 4.76841E-33
8.31310E-01 4.43883E-33
8.34565E-01 4.13111E-33
8.37795E-01 3.84386E-33
8.40999E-01 3.57578E-33
8.44177E-01 3.32562E-33
8.47329E-01 3.09226E-33
8.50455E-01 2.87460E-33
8.53553E-01 2.67164E-33
8.56625E-01 2.48243E-33
8.59670E-01 2.30607E-33
8.62687E-01 2.14173E-33
8.65677E-01 1.98862E-33
8.68639E-01 1.84602E-33
8.71572E-01 1.71323E-33
8.74478E-01 1.58961E-33
8.77355E-01 1.47455E-33
8.80203E-01 1.36749E-33
8.83022E-01 1.26789E-33
8.85812E-01 1.17527E-33
8.88573E-01 1.08915E-33
8.91304E-01 1.00910E-33
8.94005E-01 9.34712E-34
8.96677E-01 8.65598E-34
8.99318E-01 8.01407E-34
9.01928E-01 7.41804E-34
9.04508E-01 6.86475E-34
9.07058E-01 6.35125E-34
9.09576E-01 5.87483E-34
9.12063E-01 5.43295E-34
9.14519E-01 5.02319E-34
9.16943E-01 4.64334E-34
9.19335E-01 4.29128E-34
9.21696E-01 3.96508E-34
9.24024E-01 3.66293E-34
9.26320E-01 3.38313E-34
9.28584E-01 3.12408E-34
9.30815E-01 2.88431E-34
9.33013E-01 2.66243E-34
9.35178E-01 2.45717E-34
9.37310E-01 2.26732E-34
9.39409E-01 2.09177E-34
9.41474E-01 1.92947E-34
9.43505E-01 1.77945E-34
9.45503E-01 1.64082E-34
9.47467E-01 1.51273E-34
9.49397E-01 1.39440E-34
9.51293E-01 1.28511E-34
9.53154E-01 1.18417E-34
9.54981E-01 1.09096E-34
9.56773E-01 1.00491E-34
9.58530E-01 9.25459E-35
9.60252E-01 8.52115E-35
9.61940E-01 7.84404E-35
9.63592E-01 7.21903E-35
9.65209E-01 6.64213E-35
9.66790E-01 6.10959E-35
9.68336E-01 5.61794E-35
9.69846E-01 5.16407E-35
9.71321E-01 4.74501E-35
9.72759E-01 4.35803E-35
9.74162E-01 4.00065E-35
9.75528E-01 3.67050E-35
9.76858E-01 3.36567E-35
9.78152E-01 3.08393E-35
9.79410E-01 2.82367E-35
9.80631E-01 2.58298E-35
9.81815E-01 2.36054E-35
9.82963E-01 2.15475E-35
9.84074E-01 1.96457E-35
9.85148E-01 1.78861E-35
9.86185E-01 1.62583E-35
9.87185E-01 1.47528E-35
9.88148E-01 1.33594E-35
9.89074E-01 1.20711E-35
9.89962E-01 1.08797E-35
9.90814E-01 9.77768E-36
9.91627E-01 8.75864E-36
9.92404E-01 7.81922E-36
9.93143E-01 6.95121E-36
9.93844E-01 6.15023E-36
9.94508E-01 5.41344E-36
9.95134E-01 4.73619E-36
9.95722E-01 4.11461E-36
9.96273E-01 3.54704E-36
9.96786E-01 3.02794E-36
9.97261E-01 2.55710E-36
9.97698E-01 2.13129E-36
9.98097E-01 1.74885E-36
9.98459E-01 1.40807E-36
9.98782E-01 1.10668E-36
9.99067E-01 8.44247E-37
9.99315E-01 6.18515E-37
9.99524E-01 4.29634E-37
9.99695E-01 2.75833E-37
9.99829E-01 1.57402E-37
9.99924E-01 7.24920E-38
9.99981E-01 2.19484E-38
1.00000E+00 5.26328E-39
