 #
 # Subroutine ELSEPA. Elastic scattering of electrons and positrons
 #                    by neutral atoms and positive ions
 #
 # Projectile: positron
 # Kinetic energy = 3.50000E+07 eV = 1.28623E+06 a.u.
 #
 # WARNING: High-energy factorization with free-atom DF screening.
 #          Absorption, polarization and exchange corrections are
 #          switched off.
 #          Phase shifts are calculated for the bare nucleus.
 #          Scattering amplitudes are not evaluated.
 #
 # Element: Xe,  Z =  54,  atomic weight = 1.31290E+02 g/mol
 #
 # Nuclear model: Fermi distribution
 #                Average radius = 5.43827E-13 cm
 #                Skin thickness = 5.46000E-14 cm
 #
 # Number of electrons = 54
 #
 # Total elastic cross section = 5.86956E-18 cm**2 = 2.09606E-01 a0**2
 # 1st transport cross section = 4.02684E-24 cm**2 = 1.43801E-07 a0**2
 # 2nd transport cross section = 1.17749E-23 cm**2 = 4.20489E-07 a0**2
 #
 #
 # Differential cross section:                       MU=(1-COS(THETA))/2
 #
 #  THETA        MU          DCS          DCS        Sherman      error
 #  (deg)                 (cm**2/sr)   (a0**2/sr)    function
 #----------------------------------------------------------------------
0.00000E+00 5.40968E-11
7.61557E-13 5.40853E-11
1.18994E-12 5.40790E-11
1.71346E-12 5.40712E-11
2.33225E-12 5.40620E-11
3.04617E-12 5.40515E-11
3.85530E-12 5.40395E-11
4.75964E-12 5.40262E-11
5.75917E-12 5.40114E-11
6.85391E-12 5.39953E-11
8.04379E-12 5.39778E-11
9.32893E-12 5.39588E-11
1.07092E-11 5.39385E-11
1.21847E-11 5.39169E-11
1.37554E-11 5.38938E-11
1.54213E-11 5.38694E-11
1.71823E-11 5.38435E-11
1.90386E-11 5.38164E-11
2.09900E-11 5.37878E-11
2.30367E-11 5.37579E-11
2.51785E-11 5.37266E-11
2.74156E-11 5.36939E-11
2.97478E-11 5.36600E-11
3.21752E-11 5.36246E-11
3.46979E-11 5.35879E-11
3.73157E-11 5.35499E-11
4.00286E-11 5.35105E-11
4.28368E-11 5.34698E-11
4.57402E-11 5.34277E-11
4.87388E-11 5.33844E-11
5.18325E-11 5.33397E-11
5.50215E-11 5.32937E-11
5.83057E-11 5.32463E-11
6.16850E-11 5.31977E-11
6.51595E-11 5.31478E-11
6.87293E-11 5.30966E-11
7.23943E-11 5.30441E-11
7.61544E-11 5.29903E-11
1.18991E-10 5.23831E-11
1.71347E-10 5.16550E-11
2.33223E-10 5.08063E-11
3.04617E-10 4.98620E-11
3.85531E-10 4.88204E-11
4.75965E-10 4.76879E-11
5.75917E-10 4.64933E-11
6.85389E-10 4.52241E-11
8.04380E-10 4.39012E-11
9.32891E-10 4.25523E-11
1.07092E-09 4.11491E-11
1.21847E-09 3.97318E-11
1.37554E-09 3.83193E-11
1.54213E-09 3.68702E-11
1.71823E-09 3.54421E-11
1.90386E-09 3.40338E-11
2.09900E-09 3.26199E-11
2.30367E-09 3.12456E-11
2.51785E-09 2.98998E-11
2.74156E-09 2.85730E-11
2.97478E-09 2.72963E-11
3.21752E-09 2.60522E-11
3.46978E-09 2.48440E-11
3.73156E-09 2.36898E-11
4.00286E-09 2.25692E-11
4.28368E-09 2.14939E-11
4.57402E-09 2.04721E-11
4.87388E-09 1.94829E-11
5.18326E-09 1.85425E-11
5.50215E-09 1.76520E-11
5.83057E-09 1.67921E-11
6.16850E-09 1.59802E-11
6.51596E-09 1.52109E-11
6.87293E-09 1.44740E-11
7.23942E-09 1.37794E-11
7.61544E-09 1.31207E-11
1.18991E-08 8.17878E-12
1.71347E-08 5.33194E-12
2.33223E-08 3.61133E-12
3.04617E-08 2.57607E-12
3.85531E-08 1.88562E-12
4.75965E-08 1.40782E-12
5.75917E-08 1.07598E-12
6.85389E-08 8.29132E-13
8.04380E-08 6.47745E-13
9.32891E-08 5.13468E-13
1.07092E-07 4.09884E-13
1.21847E-07 3.31486E-13
1.37554E-07 2.71256E-13
1.54213E-07 2.23818E-13
1.71823E-07 1.86744E-13
1.90386E-07 1.57297E-13
2.09900E-07 1.33538E-13
2.30367E-07 1.14328E-13
2.51785E-07 9.85843E-14
2.74156E-07 8.55171E-14
2.97478E-07 7.46484E-14
3.21752E-07 6.54838E-14
3.46978E-07 5.76965E-14
3.73156E-07 5.10736E-14
4.00286E-07 4.53580E-14
4.28368E-07 4.04257E-14
4.57402E-07 3.61605E-14
4.87388E-07 3.24015E-14
5.18325E-07 2.91193E-14
5.50215E-07 2.62458E-14
5.83057E-07 2.36956E-14
6.16850E-07 2.14506E-14
6.51596E-07 1.94631E-14
6.87293E-07 1.76886E-14
7.23942E-07 1.61124E-14
7.61543E-07 1.47039E-14
1.18991E-06 6.44661E-15
1.71347E-06 3.25004E-15
2.33223E-06 1.81595E-15
3.04617E-06 1.09572E-15
3.85531E-06 6.99870E-16
4.75964E-06 4.67744E-16
5.75916E-06 3.24117E-16
6.85388E-06 2.31469E-16
8.04378E-06 1.69609E-16
9.32888E-06 1.27022E-16
1.07092E-05 9.69787E-17
1.21846E-05 7.52989E-17
1.37553E-05 5.93419E-17
1.54212E-05 4.73948E-17
1.71822E-05 3.83059E-17
1.90385E-05 3.12849E-17
2.09899E-05 2.58191E-17
2.30365E-05 2.14940E-17
2.51783E-05 1.80354E-17
2.74153E-05 1.52429E-17
2.97475E-05 1.29695E-17
3.21749E-05 1.11046E-17
3.46974E-05 9.56376E-18
3.73152E-05 8.28201E-18
4.00281E-05 7.20862E-18
4.28362E-05 6.30386E-18
4.57395E-05 5.53672E-18
4.87380E-05 4.88258E-18
5.18317E-05 4.32199E-18
5.50205E-05 3.83941E-18
5.83045E-05 3.42220E-18
6.16838E-05 3.06017E-18
6.51582E-05 2.74481E-18
6.87277E-05 2.46909E-18
7.23925E-05 2.22718E-18
7.61524E-05 2.01423E-18
9.21439E-05 1.37903E-18
1.09658E-04 9.75370E-19
1.28695E-04 7.09109E-19
1.49255E-04 5.27679E-19
1.71338E-04 4.00699E-19
1.94942E-04 3.09663E-19
2.20070E-04 2.43045E-19
2.46720E-04 1.93396E-19
2.74892E-04 1.55782E-19
3.04586E-04 1.26874E-19
3.35803E-04 1.04361E-19
3.68542E-04 8.66204E-20
4.02802E-04 7.24889E-20
4.38585E-04 6.11207E-20
4.75889E-04 5.18931E-20
5.14715E-04 4.43400E-20
5.55063E-04 3.81104E-20
5.96931E-04 3.29356E-20
6.40321E-04 2.86085E-20
6.85233E-04 2.49681E-20
7.31665E-04 2.18876E-20
7.79618E-04 1.92670E-20
8.29092E-04 1.70264E-20
8.80086E-04 1.51016E-20
9.32601E-04 1.34408E-20
9.86636E-04 1.20016E-20
1.04219E-03 1.07496E-20
1.09927E-03 9.65632E-21
1.15786E-03 8.69826E-21
1.21797E-03 7.85584E-21
1.27961E-03 7.11275E-21
1.34276E-03 6.45528E-21
1.40743E-03 5.87186E-21
1.47362E-03 5.35272E-21
1.54133E-03 4.88956E-21
1.61056E-03 4.47529E-21
1.68131E-03 4.10387E-21
1.75357E-03 3.77009E-21
1.82735E-03 3.46947E-21
1.90265E-03 3.19813E-21
1.97947E-03 2.95274E-21
2.05780E-03 2.73036E-21
2.13765E-03 2.52847E-21
2.21902E-03 2.34484E-21
2.30190E-03 2.17753E-21
2.38630E-03 2.02483E-21
2.47222E-03 1.88524E-21
2.55965E-03 1.75743E-21
2.64859E-03 1.64024E-21
2.73905E-03 1.53262E-21
2.83103E-03 1.43365E-21
2.92452E-03 1.34252E-21
3.01952E-03 1.25848E-21
3.11604E-03 1.18090E-21
3.21407E-03 1.10918E-21
3.31362E-03 1.04280E-21
3.41468E-03 9.81295E-22
3.51725E-03 9.24241E-22
3.62133E-03 8.71257E-22
3.72692E-03 8.22000E-22
3.83403E-03 7.76159E-22
3.94265E-03 7.33457E-22
4.05278E-03 6.93641E-22
4.16442E-03 6.56477E-22
4.27757E-03 6.21758E-22
4.39223E-03 5.89293E-22
4.50840E-03 5.58911E-22
4.62608E-03 5.30453E-22
4.74527E-03 5.03775E-22
4.86597E-03 4.78745E-22
4.98817E-03 4.55242E-22
5.11188E-03 4.33158E-22
5.23711E-03 4.12390E-22
5.36383E-03 3.92846E-22
5.49207E-03 3.74440E-22
5.62181E-03 3.57093E-22
5.75306E-03 3.40734E-22
5.88581E-03 3.25298E-22
6.02007E-03 3.10720E-22
6.15583E-03 2.96945E-22
6.29310E-03 2.83921E-22
6.43187E-03 2.71600E-22
6.57214E-03 2.59936E-22
6.71392E-03 2.48888E-22
6.85720E-03 2.38417E-22
7.00198E-03 2.28487E-22
7.14827E-03 2.19067E-22
7.29605E-03 2.10125E-22
7.44534E-03 2.01630E-22
7.59612E-03 1.93558E-22
7.97965E-03 1.75068E-22
8.37255E-03 1.58720E-22
8.77480E-03 1.44225E-22
9.18641E-03 1.31338E-22
9.60736E-03 1.19849E-22
1.00376E-02 1.09582E-22
1.04773E-02 1.00383E-22
1.09262E-02 9.21233E-23
1.13844E-02 8.46897E-23
1.18520E-02 7.79855E-23
1.23288E-02 7.19270E-23
1.28150E-02 6.64410E-23
1.33104E-02 6.14641E-23
1.38150E-02 5.69410E-23
1.43290E-02 5.28230E-23
1.48521E-02 4.90675E-23
1.53845E-02 4.56372E-23
1.59262E-02 4.24988E-23
1.64770E-02 3.96232E-23
1.70371E-02 3.69846E-23
1.76063E-02 3.45597E-23
1.81848E-02 3.23285E-23
1.87724E-02 3.02728E-23
1.93692E-02 2.83762E-23
1.99751E-02 2.66244E-23
2.05901E-02 2.50044E-23
2.12143E-02 2.35044E-23
2.18476E-02 2.21140E-23
2.24900E-02 2.08238E-23
2.31415E-02 1.96253E-23
2.38021E-02 1.85108E-23
2.44717E-02 1.74734E-23
2.51504E-02 1.65069E-23
2.58382E-02 1.56054E-23
2.65349E-02 1.47639E-23
2.72407E-02 1.39777E-23
2.79555E-02 1.32425E-23
2.86793E-02 1.25543E-23
2.94120E-02 1.19098E-23
3.01537E-02 1.13055E-23
3.09043E-02 1.07385E-23
3.16639E-02 1.02062E-23
3.24324E-02 9.70595E-24
3.32098E-02 9.23558E-24
3.39961E-02 8.79295E-24
3.47912E-02 8.37615E-24
3.55952E-02 7.98338E-24
3.64081E-02 7.61303E-24
3.72297E-02 7.26359E-24
3.80602E-02 6.93365E-24
3.88995E-02 6.62195E-24
3.97476E-02 6.32729E-24
4.06044E-02 6.04858E-24
4.14700E-02 5.78480E-24
4.23443E-02 5.53501E-24
4.32273E-02 5.29832E-24
4.41190E-02 5.07394E-24
4.50194E-02 4.86111E-24
4.59284E-02 4.65913E-24
4.68461E-02 4.46735E-24
4.87074E-02 4.11199E-24
5.06030E-02 3.79066E-24
5.25328E-02 3.49956E-24
5.44967E-02 3.23537E-24
5.64946E-02 2.99518E-24
5.85262E-02 2.77644E-24
6.05914E-02 2.57692E-24
6.26901E-02 2.39464E-24
6.48222E-02 2.22786E-24
6.69873E-02 2.07505E-24
6.91854E-02 1.93484E-24
7.14163E-02 1.80601E-24
7.36799E-02 1.68748E-24
7.59760E-02 1.57829E-24
7.83043E-02 1.47759E-24
8.06647E-02 1.38459E-24
8.30571E-02 1.29862E-24
8.54812E-02 1.21905E-24
8.79369E-02 1.14532E-24
9.04240E-02 1.07694E-24
9.29422E-02 1.01345E-24
9.54915E-02 9.54444E-25
9.80716E-02 8.99549E-25
1.00682E-01 8.48432E-25
1.03323E-01 8.00789E-25
1.05995E-01 7.56346E-25
1.08696E-01 7.14850E-25
1.11427E-01 6.76074E-25
1.14188E-01 6.39810E-25
1.16978E-01 6.05868E-25
1.19797E-01 5.74074E-25
1.22645E-01 5.44269E-25
1.25522E-01 5.16309E-25
1.28428E-01 4.90061E-25
1.31361E-01 4.65401E-25
1.34323E-01 4.42218E-25
1.37313E-01 4.20410E-25
1.40330E-01 3.99880E-25
1.43375E-01 3.80541E-25
1.46447E-01 3.62313E-25
1.49545E-01 3.45122E-25
1.52671E-01 3.28899E-25
1.55823E-01 3.13580E-25
1.59001E-01 2.99107E-25
1.62205E-01 2.85425E-25
1.65435E-01 2.72485E-25
1.68690E-01 2.60238E-25
1.71970E-01 2.48642E-25
1.75276E-01 2.37657E-25
1.78606E-01 2.27246E-25
1.81961E-01 2.17373E-25
1.85340E-01 2.08006E-25
1.88743E-01 1.99114E-25
1.92169E-01 1.90671E-25
1.95619E-01 1.82650E-25
1.99092E-01 1.75025E-25
2.02589E-01 1.67775E-25
2.06107E-01 1.60878E-25
2.09649E-01 1.54314E-25
2.13212E-01 1.48065E-25
2.16797E-01 1.42112E-25
2.20404E-01 1.36440E-25
2.24032E-01 1.31033E-25
2.27680E-01 1.25877E-25
2.31350E-01 1.20958E-25
2.35040E-01 1.16264E-25
2.38751E-01 1.11783E-25
2.42481E-01 1.07504E-25
2.46231E-01 1.03416E-25
2.50000E-01 9.95087E-26
2.53788E-01 9.57737E-26
2.57595E-01 9.22019E-26
2.61421E-01 8.87850E-26
2.65264E-01 8.55154E-26
2.69126E-01 8.23856E-26
2.73005E-01 7.93888E-26
2.76901E-01 7.65184E-26
2.80814E-01 7.37683E-26
2.84744E-01 7.11326E-26
2.88691E-01 6.86059E-26
2.92653E-01 6.61830E-26
2.96632E-01 6.38589E-26
3.00625E-01 6.16291E-26
3.04634E-01 5.94890E-26
3.08658E-01 5.74346E-26
3.12697E-01 5.54619E-26
3.16749E-01 5.35671E-26
3.20816E-01 5.17468E-26
3.24896E-01 4.99975E-26
3.28990E-01 4.83160E-26
3.33097E-01 4.66994E-26
3.37216E-01 4.51447E-26
3.41348E-01 4.36493E-26
3.45492E-01 4.22105E-26
3.49647E-01 4.08259E-26
3.53814E-01 3.94931E-26
3.57992E-01 3.82099E-26
3.62181E-01 3.69742E-26
3.66381E-01 3.57840E-26
3.70590E-01 3.46374E-26
3.74810E-01 3.35324E-26
3.79039E-01 3.24675E-26
3.83277E-01 3.14409E-26
3.87524E-01 3.04511E-26
3.91780E-01 2.94965E-26
3.96044E-01 2.85757E-26
4.00316E-01 2.76874E-26
4.04596E-01 2.68302E-26
4.08882E-01 2.60029E-26
4.13176E-01 2.52043E-26
4.17476E-01 2.44333E-26
4.21783E-01 2.36888E-26
4.26095E-01 2.29697E-26
4.30413E-01 2.22750E-26
4.34737E-01 2.16039E-26
4.39065E-01 2.09553E-26
4.43398E-01 2.03285E-26
4.47736E-01 1.97226E-26
4.52077E-01 1.91368E-26
4.56422E-01 1.85703E-26
4.60770E-01 1.80225E-26
4.65122E-01 1.74926E-26
4.69476E-01 1.69799E-26
4.73832E-01 1.64839E-26
4.78190E-01 1.60039E-26
4.82550E-01 1.55393E-26
4.86912E-01 1.50896E-26
4.91274E-01 1.46542E-26
4.95637E-01 1.42326E-26
5.00000E-01 1.38243E-26
5.04363E-01 1.34289E-26
5.08726E-01 1.30458E-26
5.13088E-01 1.26747E-26
5.17450E-01 1.23151E-26
5.21810E-01 1.19666E-26
5.26168E-01 1.16288E-26
5.30524E-01 1.13014E-26
5.34878E-01 1.09840E-26
5.39230E-01 1.06762E-26
5.43578E-01 1.03778E-26
5.47923E-01 1.00883E-26
5.52264E-01 9.80756E-27
5.56602E-01 9.53521E-27
5.60935E-01 9.27099E-27
5.65263E-01 9.01461E-27
5.69587E-01 8.76581E-27
5.73905E-01 8.52435E-27
5.78217E-01 8.28997E-27
5.82524E-01 8.06246E-27
5.86824E-01 7.84157E-27
5.91118E-01 7.62710E-27
5.95404E-01 7.41884E-27
5.99684E-01 7.21657E-27
6.03956E-01 7.02012E-27
6.08220E-01 6.82930E-27
6.12476E-01 6.64391E-27
6.16723E-01 6.46380E-27
6.20961E-01 6.28879E-27
6.25190E-01 6.11872E-27
6.29410E-01 5.95343E-27
6.33619E-01 5.79278E-27
6.37819E-01 5.63662E-27
6.42008E-01 5.48482E-27
6.46186E-01 5.33722E-27
6.50353E-01 5.19372E-27
6.54508E-01 5.05417E-27
6.58652E-01 4.91846E-27
6.62784E-01 4.78647E-27
6.66903E-01 4.65809E-27
6.71010E-01 4.53321E-27
6.75104E-01 4.41172E-27
6.79184E-01 4.29352E-27
6.83251E-01 4.17852E-27
6.87303E-01 4.06661E-27
6.91342E-01 3.95770E-27
6.95366E-01 3.85171E-27
6.99375E-01 3.74856E-27
7.03368E-01 3.64814E-27
7.07347E-01 3.55040E-27
7.11309E-01 3.45524E-27
7.15256E-01 3.36259E-27
7.19186E-01 3.27239E-27
7.23099E-01 3.18455E-27
7.26995E-01 3.09902E-27
7.30874E-01 3.01572E-27
7.34736E-01 2.93459E-27
7.38579E-01 2.85557E-27
7.42405E-01 2.77860E-27
7.46212E-01 2.70362E-27
7.50000E-01 2.63058E-27
7.53769E-01 2.55942E-27
7.57519E-01 2.49009E-27
7.61249E-01 2.42253E-27
7.64960E-01 2.35671E-27
7.68650E-01 2.29256E-27
7.72320E-01 2.23005E-27
7.75968E-01 2.16913E-27
7.79596E-01 2.10976E-27
7.83203E-01 2.05189E-27
7.86788E-01 1.99548E-27
7.90351E-01 1.94049E-27
7.93893E-01 1.88689E-27
7.97411E-01 1.83464E-27
8.00908E-01 1.78369E-27
8.04381E-01 1.73403E-27
8.07831E-01 1.68561E-27
8.11257E-01 1.63839E-27
8.14660E-01 1.59236E-27
8.18039E-01 1.54747E-27
8.21394E-01 1.50370E-27
8.24724E-01 1.46101E-27
8.28030E-01 1.41938E-27
8.31310E-01 1.37879E-27
8.34565E-01 1.33920E-27
8.37795E-01 1.30059E-27
8.40999E-01 1.26294E-27
8.44177E-01 1.22621E-27
8.47329E-01 1.19039E-27
8.50455E-01 1.15546E-27
8.53553E-01 1.12138E-27
8.56625E-01 1.08815E-27
8.59670E-01 1.05573E-27
8.62687E-01 1.02411E-27
8.65677E-01 9.93273E-28
8.68639E-01 9.63193E-28
8.71572E-01 9.33852E-28
8.74478E-01 9.05234E-28
8.77355E-01 8.77321E-28
8.80203E-01 8.50096E-28
8.83022E-01 8.23542E-28
8.85812E-01 7.97642E-28
8.88573E-01 7.72383E-28
8.91304E-01 7.47747E-28
8.94005E-01 7.23721E-28
8.96677E-01 7.00290E-28
8.99318E-01 6.77441E-28
9.01928E-01 6.55159E-28
9.04508E-01 6.33431E-28
9.07058E-01 6.12246E-28
9.09576E-01 5.91590E-28
9.12063E-01 5.71451E-28
9.14519E-01 5.51818E-28
9.16943E-01 5.32680E-28
9.19335E-01 5.14024E-28
9.21696E-01 4.95842E-28
9.24024E-01 4.78121E-28
9.26320E-01 4.60853E-28
9.28584E-01 4.44027E-28
9.30815E-01 4.27634E-28
9.33013E-01 4.11664E-28
9.35178E-01 3.96109E-28
9.37310E-01 3.80960E-28
9.39409E-01 3.66208E-28
9.41474E-01 3.51846E-28
9.43505E-01 3.37864E-28
9.45503E-01 3.24256E-28
9.47467E-01 3.11014E-28
9.49397E-01 2.98131E-28
9.51293E-01 2.85600E-28
9.53154E-01 2.73413E-28
9.54981E-01 2.61564E-28
9.56773E-01 2.50047E-28
9.58530E-01 2.38856E-28
9.60252E-01 2.27984E-28
9.61940E-01 2.17425E-28
9.63592E-01 2.07175E-28
9.65209E-01 1.97227E-28
9.66790E-01 1.87576E-28
9.68336E-01 1.78216E-28
9.69846E-01 1.69144E-28
9.71321E-01 1.60354E-28
9.72759E-01 1.51841E-28
9.74162E-01 1.43602E-28
9.75528E-01 1.35630E-28
9.76858E-01 1.27924E-28
9.78152E-01 1.20477E-28
9.79410E-01 1.13288E-28
9.80631E-01 1.06350E-28
9.81815E-01 9.96624E-29
9.82963E-01 9.32200E-29
9.84074E-01 8.70198E-29
9.85148E-01 8.10586E-29
9.86185E-01 7.53334E-29
9.87185E-01 6.98412E-29
9.88148E-01 6.45791E-29
9.89074E-01 5.95444E-29
9.89962E-01 5.47345E-29
9.90814E-01 5.01470E-29
9.91627E-01 4.57796E-29
9.92404E-01 4.16298E-29
9.93143E-01 3.76958E-29
9.93844E-01 3.39753E-29
9.94508E-01 3.04665E-29
9.95134E-01 2.71677E-29
9.95722E-01 2.40772E-29
9.96273E-01 2.11933E-29
9.96786E-01 1.85146E-29
9.97261E-01 1.60397E-29
9.97698E-01 1.37674E-29
9.98097E-01 1.16966E-29
9.98459E-01 9.82610E-30
9.98782E-01 8.15506E-30
9.99067E-01 6.68259E-30
9.99315E-01 5.40795E-30
9.99524E-01 4.33051E-30
9.99695E-01 3.44971E-30
9.99829E-01 2.76510E-30
9.99924E-01 2.27634E-30
9.99981E-01 1.98318E-30
1.00000E+00 1.88548E-30
