 #
 # Subroutine ELSEPA. Elastic scattering of electrons and positrons
 #                    by neutral atoms and positive ions
 #
 # Projectile: positron
 # Kinetic energy = 1.75000E+07 eV = 6.43113E+05 a.u.
 #
 # WARNING: High-energy factorization with free-atom DF screening.
 #          Absorption, polarization and exchange corrections are
 #          switched off.
 #          Phase shifts are calculated for the bare nucleus.
 #          Scattering amplitudes are not evaluated.
 #
 # Element: Xe,  Z =  54,  atomic weight = 1.31290E+02 g/mol
 #
 # Nuclear model: Fermi distribution
 #                Average radius = 5.43827E-13 cm
 #                Skin thickness = 5.46000E-14 cm
 #
 # Number of electrons = 54
 #
 # Total elastic cross section = 5.87030E-18 cm**2 = 2.09632E-01 a0**2
 # 1st transport cross section = 1.42179E-23 cm**2 = 5.07730E-07 a0**2
 # 2nd transport cross section = 4.13284E-23 cm**2 = 1.47586E-06 a0**2
 #
 #
 # Differential cross section:                       MU=(1-COS(THETA))/2
 #
 #  THETA        MU          DCS          DCS        Sherman      error
 #  (deg)                 (cm**2/sr)   (a0**2/sr)    function
 #----------------------------------------------------------------------
0.00000E+00 1.39162E-11
7.61557E-13 1.39154E-11
1.18994E-12 1.39150E-11
1.71346E-12 1.39145E-11
2.33225E-12 1.39139E-11
3.04617E-12 1.39132E-11
3.85530E-12 1.39124E-11
4.75964E-12 1.39115E-11
5.75917E-12 1.39105E-11
6.85391E-12 1.39094E-11
8.04379E-12 1.39083E-11
9.32893E-12 1.39070E-11
1.07092E-11 1.39057E-11
1.21847E-11 1.39042E-11
1.37554E-11 1.39027E-11
1.54213E-11 1.39011E-11
1.71823E-11 1.38993E-11
1.90386E-11 1.38975E-11
2.09900E-11 1.38956E-11
2.30367E-11 1.38936E-11
2.51785E-11 1.38915E-11
2.74156E-11 1.38893E-11
2.97478E-11 1.38871E-11
3.21752E-11 1.38847E-11
3.46979E-11 1.38822E-11
3.73157E-11 1.38797E-11
4.00286E-11 1.38771E-11
4.28368E-11 1.38743E-11
4.57402E-11 1.38715E-11
4.87388E-11 1.38686E-11
5.18325E-11 1.38656E-11
5.50215E-11 1.38625E-11
5.83057E-11 1.38593E-11
6.16850E-11 1.38560E-11
6.51595E-11 1.38527E-11
6.87293E-11 1.38492E-11
7.23943E-11 1.38456E-11
7.61544E-11 1.38420E-11
1.18991E-10 1.38006E-11
1.71347E-10 1.37503E-11
2.33223E-10 1.36912E-11
3.04617E-10 1.36235E-11
3.85531E-10 1.35474E-11
4.75965E-10 1.34631E-11
5.75917E-10 1.33708E-11
6.85389E-10 1.32707E-11
8.04380E-10 1.31619E-11
9.32891E-10 1.30468E-11
1.07092E-09 1.29265E-11
1.21847E-09 1.27972E-11
1.37554E-09 1.26623E-11
1.54213E-09 1.25237E-11
1.71823E-09 1.23767E-11
1.90386E-09 1.22249E-11
2.09900E-09 1.20711E-11
2.30367E-09 1.19097E-11
2.51785E-09 1.17442E-11
2.74156E-09 1.15781E-11
2.97478E-09 1.14057E-11
3.21752E-09 1.12297E-11
3.46978E-09 1.10546E-11
3.73156E-09 1.08744E-11
4.00286E-09 1.06912E-11
4.28368E-09 1.05100E-11
4.57402E-09 1.03252E-11
4.87388E-09 1.01376E-11
5.18326E-09 9.95321E-12
5.50215E-09 9.76656E-12
5.83057E-09 9.57748E-12
6.16850E-09 9.39241E-12
6.51596E-09 9.20648E-12
6.87293E-09 9.01832E-12
7.23942E-09 8.83483E-12
7.61544E-09 8.65177E-12
1.18991E-08 6.90643E-12
1.71347E-08 5.41601E-12
2.33223E-08 4.21627E-12
3.04617E-08 3.28306E-12
3.85531E-08 2.57354E-12
4.75965E-08 2.03821E-12
5.75917E-08 1.63363E-12
6.85389E-08 1.32565E-12
8.04380E-08 1.08151E-12
9.32891E-08 8.96948E-13
1.07092E-07 7.56687E-13
1.21847E-07 6.38047E-13
1.37554E-07 5.42875E-13
1.54213E-07 4.67808E-13
1.71823E-07 4.02497E-13
1.90386E-07 3.48145E-13
2.09900E-07 3.04073E-13
2.30367E-07 2.65254E-13
2.51785E-07 2.32106E-13
2.74156E-07 2.04649E-13
2.97478E-07 1.80436E-13
3.21752E-07 1.59423E-13
3.46978E-07 1.41712E-13
3.73156E-07 1.26119E-13
4.00286E-07 1.12451E-13
4.28368E-07 1.00759E-13
4.57402E-07 9.04623E-14
4.87388E-07 8.13734E-14
5.18325E-07 7.34960E-14
5.50215E-07 6.65375E-14
5.83057E-07 6.03561E-14
6.16850E-07 5.49368E-14
6.51596E-07 5.01229E-14
6.87293E-07 4.58175E-14
7.23942E-07 4.20048E-14
7.61543E-07 3.85946E-14
1.18991E-06 1.83157E-14
1.71347E-06 9.91123E-15
2.33223E-06 5.80018E-15
3.04617E-06 3.59251E-15
3.85531E-06 2.32961E-15
4.75964E-06 1.57249E-15
5.75916E-06 1.09963E-15
6.85388E-06 7.92299E-16
8.04378E-06 5.85516E-16
9.32888E-06 4.42547E-16
1.07092E-05 3.40891E-16
1.21846E-05 2.66917E-16
1.37553E-05 2.11984E-16
1.54212E-05 1.70434E-16
1.71822E-05 1.38585E-16
1.90385E-05 1.13795E-16
2.09899E-05 9.43599E-17
2.30365E-05 7.88818E-17
2.51783E-05 6.64186E-17
2.74153E-05 5.63028E-17
2.97475E-05 4.80317E-17
3.21749E-05 4.12204E-17
3.46974E-05 3.55731E-17
3.73152E-05 3.08602E-17
4.00281E-05 2.69007E-17
4.28362E-05 2.35563E-17
4.57395E-05 2.07149E-17
4.87380E-05 1.82880E-17
5.18317E-05 1.62049E-17
5.50205E-05 1.44086E-17
5.83045E-05 1.28539E-17
6.16838E-05 1.15032E-17
6.51582E-05 1.03257E-17
6.87277E-05 9.29525E-18
7.23925E-05 8.39041E-18
7.61524E-05 7.59297E-18
9.21439E-05 5.21132E-18
1.09658E-04 3.69422E-18
1.28695E-04 2.69143E-18
1.49255E-04 2.00677E-18
1.71338E-04 1.52665E-18
1.94942E-04 1.18182E-18
2.20070E-04 9.29023E-19
2.46720E-04 7.40302E-19
2.74892E-04 5.97098E-19
3.04586E-04 4.86876E-19
3.35803E-04 4.00915E-19
3.68542E-04 3.33089E-19
4.02802E-04 2.78996E-19
4.38585E-04 2.35432E-19
4.75889E-04 2.00035E-19
5.14715E-04 1.71034E-19
5.55063E-04 1.47093E-19
5.96931E-04 1.27190E-19
6.40321E-04 1.10536E-19
6.85233E-04 9.65141E-20
7.31665E-04 8.46418E-20
7.79618E-04 7.45367E-20
8.29092E-04 6.58917E-20
8.80086E-04 5.84617E-20
9.32601E-04 5.20478E-20
9.86636E-04 4.64874E-20
1.04219E-03 4.16484E-20
1.09927E-03 3.74214E-20
1.15786E-03 3.37159E-20
1.21797E-03 3.04567E-20
1.27961E-03 2.75810E-20
1.34276E-03 2.50359E-20
1.40743E-03 2.27768E-20
1.47362E-03 2.07663E-20
1.54133E-03 1.89721E-20
1.61056E-03 1.73670E-20
1.68131E-03 1.59276E-20
1.75357E-03 1.46339E-20
1.82735E-03 1.34685E-20
1.90265E-03 1.24165E-20
1.97947E-03 1.14649E-20
2.05780E-03 1.06024E-20
2.13765E-03 9.81931E-21
2.21902E-03 9.10696E-21
2.30190E-03 8.45782E-21
2.38630E-03 7.86531E-21
2.47222E-03 7.32362E-21
2.55965E-03 6.82760E-21
2.64859E-03 6.37273E-21
2.73905E-03 5.95498E-21
2.83103E-03 5.57079E-21
2.92452E-03 5.21697E-21
3.01952E-03 4.89070E-21
3.11604E-03 4.58944E-21
3.21407E-03 4.31094E-21
3.31362E-03 4.05317E-21
3.41468E-03 3.81430E-21
3.51725E-03 3.59270E-21
3.62133E-03 3.38690E-21
3.72692E-03 3.19557E-21
3.83403E-03 3.01750E-21
3.94265E-03 2.85162E-21
4.05278E-03 2.69693E-21
4.16442E-03 2.55255E-21
4.27757E-03 2.41765E-21
4.39223E-03 2.29151E-21
4.50840E-03 2.17346E-21
4.62608E-03 2.06288E-21
4.74527E-03 1.95921E-21
4.86597E-03 1.86194E-21
4.98817E-03 1.77060E-21
5.11188E-03 1.68477E-21
5.23711E-03 1.60406E-21
5.36383E-03 1.52810E-21
5.49207E-03 1.45656E-21
5.62181E-03 1.38914E-21
5.75306E-03 1.32555E-21
5.88581E-03 1.26554E-21
6.02007E-03 1.20888E-21
6.15583E-03 1.15533E-21
6.29310E-03 1.10470E-21
6.43187E-03 1.05680E-21
6.57214E-03 1.01145E-21
6.71392E-03 9.68502E-22
6.85720E-03 9.27793E-22
7.00198E-03 8.89190E-22
7.14827E-03 8.52562E-22
7.29605E-03 8.17790E-22
7.44534E-03 7.84763E-22
7.59612E-03 7.53377E-22
7.97965E-03 6.81474E-22
8.37255E-03 6.17904E-22
8.77480E-03 5.61536E-22
9.18641E-03 5.11414E-22
9.60736E-03 4.66730E-22
1.00376E-02 4.26793E-22
1.04773E-02 3.91012E-22
1.09262E-02 3.58880E-22
1.13844E-02 3.29961E-22
1.18520E-02 3.03879E-22
1.23288E-02 2.80307E-22
1.28150E-02 2.58961E-22
1.33104E-02 2.39595E-22
1.38150E-02 2.21994E-22
1.43290E-02 2.05968E-22
1.48521E-02 1.91352E-22
1.53845E-02 1.78000E-22
1.59262E-02 1.65785E-22
1.64770E-02 1.54591E-22
1.70371E-02 1.44319E-22
1.76063E-02 1.34879E-22
1.81848E-02 1.26193E-22
1.87724E-02 1.18189E-22
1.93692E-02 1.10804E-22
1.99751E-02 1.03982E-22
2.05901E-02 9.76731E-23
2.12143E-02 9.18310E-23
2.18476E-02 8.64152E-23
2.24900E-02 8.13895E-23
2.31415E-02 7.67206E-23
2.38021E-02 7.23785E-23
2.44717E-02 6.83363E-23
2.51504E-02 6.45698E-23
2.58382E-02 6.10569E-23
2.65349E-02 5.77771E-23
2.72407E-02 5.47124E-23
2.79555E-02 5.18463E-23
2.86793E-02 4.91636E-23
2.94120E-02 4.66501E-23
3.01537E-02 4.42937E-23
3.09043E-02 4.20828E-23
3.16639E-02 4.00063E-23
3.24324E-02 3.80550E-23
3.32098E-02 3.62201E-23
3.39961E-02 3.44930E-23
3.47912E-02 3.28665E-23
3.55952E-02 3.13338E-23
3.64081E-02 2.98883E-23
3.72297E-02 2.85241E-23
3.80602E-02 2.72361E-23
3.88995E-02 2.60190E-23
3.97476E-02 2.48683E-23
4.06044E-02 2.37797E-23
4.14700E-02 2.27494E-23
4.23443E-02 2.17735E-23
4.32273E-02 2.08487E-23
4.41190E-02 1.99718E-23
4.50194E-02 1.91400E-23
4.59284E-02 1.83505E-23
4.68461E-02 1.76007E-23
4.87074E-02 1.62110E-23
5.06030E-02 1.49541E-23
5.25328E-02 1.38150E-23
5.44967E-02 1.27809E-23
5.64946E-02 1.18404E-23
5.85262E-02 1.09836E-23
6.05914E-02 1.02018E-23
6.26901E-02 9.48726E-24
6.48222E-02 8.83328E-24
6.69873E-02 8.23379E-24
6.91854E-02 7.68347E-24
7.14163E-02 7.17763E-24
7.36799E-02 6.71205E-24
7.59760E-02 6.28298E-24
7.83043E-02 5.88706E-24
8.06647E-02 5.52130E-24
8.30571E-02 5.18300E-24
8.54812E-02 4.86974E-24
8.79369E-02 4.57935E-24
9.04240E-02 4.30988E-24
9.29422E-02 4.05956E-24
9.54915E-02 3.82680E-24
9.80716E-02 3.61015E-24
1.00682E-01 3.40830E-24
1.03323E-01 3.22007E-24
1.05995E-01 3.04438E-24
1.08696E-01 2.88025E-24
1.11427E-01 2.72680E-24
1.14188E-01 2.58320E-24
1.16978E-01 2.44872E-24
1.19797E-01 2.32267E-24
1.22645E-01 2.20444E-24
1.25522E-01 2.09345E-24
1.28428E-01 1.98920E-24
1.31361E-01 1.89119E-24
1.34323E-01 1.79900E-24
1.37313E-01 1.71221E-24
1.40330E-01 1.63045E-24
1.43375E-01 1.55339E-24
1.46447E-01 1.48070E-24
1.49545E-01 1.41210E-24
1.52671E-01 1.34732E-24
1.55823E-01 1.28610E-24
1.59001E-01 1.22822E-24
1.62205E-01 1.17347E-24
1.65435E-01 1.12164E-24
1.68690E-01 1.07256E-24
1.71970E-01 1.02605E-24
1.75276E-01 9.81950E-25
1.78606E-01 9.40123E-25
1.81961E-01 9.00427E-25
1.85340E-01 8.62736E-25
1.88743E-01 8.26931E-25
1.92169E-01 7.92901E-25
1.95619E-01 7.60544E-25
1.99092E-01 7.29763E-25
2.02589E-01 7.00468E-25
2.06107E-01 6.72575E-25
2.09649E-01 6.46007E-25
2.13212E-01 6.20688E-25
2.16797E-01 5.96551E-25
2.20404E-01 5.73531E-25
2.24032E-01 5.51567E-25
2.27680E-01 5.30603E-25
2.31350E-01 5.10586E-25
2.35040E-01 4.91465E-25
2.38751E-01 4.73194E-25
2.42481E-01 4.55728E-25
2.46231E-01 4.39026E-25
2.50000E-01 4.23049E-25
2.53788E-01 4.07760E-25
2.57595E-01 3.93125E-25
2.61421E-01 3.79111E-25
2.65264E-01 3.65686E-25
2.69126E-01 3.52823E-25
2.73005E-01 3.40493E-25
2.76901E-01 3.28672E-25
2.80814E-01 3.17333E-25
2.84744E-01 3.06455E-25
2.88691E-01 2.96016E-25
2.92653E-01 2.85995E-25
2.96632E-01 2.76371E-25
3.00625E-01 2.67128E-25
3.04634E-01 2.58247E-25
3.08658E-01 2.49713E-25
3.12697E-01 2.41508E-25
3.16749E-01 2.33618E-25
3.20816E-01 2.26030E-25
3.24896E-01 2.18729E-25
3.28990E-01 2.11704E-25
3.33097E-01 2.04941E-25
3.37216E-01 1.98430E-25
3.41348E-01 1.92160E-25
3.45492E-01 1.86119E-25
3.49647E-01 1.80299E-25
3.53814E-01 1.74691E-25
3.57992E-01 1.69284E-25
3.62181E-01 1.64071E-25
3.66381E-01 1.59044E-25
3.70590E-01 1.54195E-25
3.74810E-01 1.49516E-25
3.79039E-01 1.45001E-25
3.83277E-01 1.40643E-25
3.87524E-01 1.36435E-25
3.91780E-01 1.32372E-25
3.96044E-01 1.28448E-25
4.00316E-01 1.24657E-25
4.04596E-01 1.20995E-25
4.08882E-01 1.17455E-25
4.13176E-01 1.14034E-25
4.17476E-01 1.10726E-25
4.21783E-01 1.07528E-25
4.26095E-01 1.04434E-25
4.30413E-01 1.01442E-25
4.34737E-01 9.85470E-26
4.39065E-01 9.57457E-26
4.43398E-01 9.30344E-26
4.47736E-01 9.04099E-26
4.52077E-01 8.78690E-26
4.56422E-01 8.54085E-26
4.60770E-01 8.30256E-26
4.65122E-01 8.07173E-26
4.69476E-01 7.84810E-26
4.73832E-01 7.63141E-26
4.78190E-01 7.42141E-26
4.82550E-01 7.21787E-26
4.86912E-01 7.02054E-26
4.91274E-01 6.82922E-26
4.95637E-01 6.64370E-26
5.00000E-01 6.46376E-26
5.04363E-01 6.28922E-26
5.08726E-01 6.11989E-26
5.13088E-01 5.95560E-26
5.17450E-01 5.79616E-26
5.21810E-01 5.64141E-26
5.26168E-01 5.49120E-26
5.30524E-01 5.34537E-26
5.34878E-01 5.20377E-26
5.39230E-01 5.06627E-26
5.43578E-01 4.93273E-26
5.47923E-01 4.80301E-26
5.52264E-01 4.67699E-26
5.56602E-01 4.55455E-26
5.60935E-01 4.43558E-26
5.65263E-01 4.31995E-26
5.69587E-01 4.20757E-26
5.73905E-01 4.09833E-26
5.78217E-01 3.99212E-26
5.82524E-01 3.88886E-26
5.86824E-01 3.78844E-26
5.91118E-01 3.69079E-26
5.95404E-01 3.59580E-26
5.99684E-01 3.50341E-26
6.03956E-01 3.41352E-26
6.08220E-01 3.32606E-26
6.12476E-01 3.24096E-26
6.16723E-01 3.15814E-26
6.20961E-01 3.07753E-26
6.25190E-01 2.99907E-26
6.29410E-01 2.92269E-26
6.33619E-01 2.84833E-26
6.37819E-01 2.77593E-26
6.42008E-01 2.70542E-26
6.46186E-01 2.63676E-26
6.50353E-01 2.56989E-26
6.54508E-01 2.50476E-26
6.58652E-01 2.44130E-26
6.62784E-01 2.37949E-26
6.66903E-01 2.31926E-26
6.71010E-01 2.26057E-26
6.75104E-01 2.20338E-26
6.79184E-01 2.14765E-26
6.83251E-01 2.09332E-26
6.87303E-01 2.04037E-26
6.91342E-01 1.98876E-26
6.95366E-01 1.93843E-26
6.99375E-01 1.88937E-26
7.03368E-01 1.84153E-26
7.07347E-01 1.79488E-26
7.11309E-01 1.74939E-26
7.15256E-01 1.70503E-26
7.19186E-01 1.66175E-26
7.23099E-01 1.61954E-26
7.26995E-01 1.57837E-26
7.30874E-01 1.53820E-26
7.34736E-01 1.49901E-26
7.38579E-01 1.46077E-26
7.42405E-01 1.42346E-26
7.46212E-01 1.38705E-26
7.50000E-01 1.35153E-26
7.53769E-01 1.31685E-26
7.57519E-01 1.28301E-26
7.61249E-01 1.24998E-26
7.64960E-01 1.21773E-26
7.68650E-01 1.18626E-26
7.72320E-01 1.15553E-26
7.75968E-01 1.12554E-26
7.79596E-01 1.09625E-26
7.83203E-01 1.06766E-26
7.86788E-01 1.03974E-26
7.90351E-01 1.01248E-26
7.93893E-01 9.85854E-27
7.97411E-01 9.59857E-27
8.00908E-01 9.34468E-27
8.04381E-01 9.09672E-27
8.07831E-01 8.85455E-27
8.11257E-01 8.61803E-27
8.14660E-01 8.38701E-27
8.18039E-01 8.16135E-27
8.21394E-01 7.94094E-27
8.24724E-01 7.72563E-27
8.28030E-01 7.51530E-27
8.31310E-01 7.30984E-27
8.34565E-01 7.10913E-27
8.37795E-01 6.91306E-27
8.40999E-01 6.72150E-27
8.44177E-01 6.53436E-27
8.47329E-01 6.35154E-27
8.50455E-01 6.17292E-27
8.53553E-01 5.99842E-27
8.56625E-01 5.82793E-27
8.59670E-01 5.66136E-27
8.62687E-01 5.49863E-27
8.65677E-01 5.33965E-27
8.68639E-01 5.18433E-27
8.71572E-01 5.03258E-27
8.74478E-01 4.88433E-27
8.77355E-01 4.73950E-27
8.80203E-01 4.59801E-27
8.83022E-01 4.45978E-27
8.85812E-01 4.32476E-27
8.88573E-01 4.19286E-27
8.91304E-01 4.06401E-27
8.94005E-01 3.93816E-27
8.96677E-01 3.81524E-27
8.99318E-01 3.69518E-27
9.01928E-01 3.57793E-27
9.04508E-01 3.46342E-27
9.07058E-01 3.35159E-27
9.09576E-01 3.24240E-27
9.12063E-01 3.13579E-27
9.14519E-01 3.03170E-27
9.16943E-01 2.93008E-27
9.19335E-01 2.83089E-27
9.21696E-01 2.73407E-27
9.24024E-01 2.63958E-27
9.26320E-01 2.54737E-27
9.28584E-01 2.45739E-27
9.30815E-01 2.36961E-27
9.33013E-01 2.28398E-27
9.35178E-01 2.20046E-27
9.37310E-01 2.11901E-27
9.39409E-01 2.03960E-27
9.41474E-01 1.96218E-27
9.43505E-01 1.88671E-27
9.45503E-01 1.81317E-27
9.47467E-01 1.74151E-27
9.49397E-01 1.67171E-27
9.51293E-01 1.60374E-27
9.53154E-01 1.53755E-27
9.54981E-01 1.47312E-27
9.56773E-01 1.41042E-27
9.58530E-01 1.34943E-27
9.60252E-01 1.29011E-27
9.61940E-01 1.23243E-27
9.63592E-01 1.17638E-27
9.65209E-01 1.12192E-27
9.66790E-01 1.06903E-27
9.68336E-01 1.01769E-27
9.69846E-01 9.67872E-28
9.71321E-01 9.19555E-28
9.72759E-01 8.72718E-28
9.74162E-01 8.27339E-28
9.75528E-01 7.83399E-28
9.76858E-01 7.40877E-28
9.78152E-01 6.99756E-28
9.79410E-01 6.60017E-28
9.80631E-01 6.21642E-28
9.81815E-01 5.84615E-28
9.82963E-01 5.48919E-28
9.84074E-01 5.14539E-28
9.85148E-01 4.81460E-28
9.86185E-01 4.49667E-28
9.87185E-01 4.19146E-28
9.88148E-01 3.89884E-28
9.89074E-01 3.61868E-28
9.89962E-01 3.35087E-28
9.90814E-01 3.09529E-28
9.91627E-01 2.85182E-28
9.92404E-01 2.62036E-28
9.93143E-01 2.40081E-28
9.93844E-01 2.19308E-28
9.94508E-01 1.99708E-28
9.95134E-01 1.81272E-28
9.95722E-01 1.63993E-28
9.96273E-01 1.47862E-28
9.96786E-01 1.32874E-28
9.97261E-01 1.19021E-28
9.97698E-01 1.06299E-28
9.98097E-01 9.47004E-29
9.98459E-01 8.42215E-29
9.98782E-01 7.48575E-29
9.99067E-01 6.66046E-29
9.99315E-01 5.94591E-29
9.99524E-01 5.34181E-29
9.99695E-01 4.84789E-29
9.99829E-01 4.46395E-29
9.99924E-01 4.18983E-29
9.99981E-01 4.02540E-29
1.00000E+00 3.97060E-29
