 #
 # Subroutine ELSEPA. Elastic scattering of electrons and positrons
 #                    by neutral atoms and positive ions
 #
 # Projectile: positron
 # Kinetic energy = 3.50000E+06 eV = 1.28623E+05 a.u.
 #
 # WARNING: High-energy factorization with free-atom DF screening.
 #          Absorption, polarization and exchange corrections are
 #          switched off.
 #          Phase shifts are calculated for the bare nucleus.
 #          Scattering amplitudes are not evaluated.
 #
 # Element: Xe,  Z =  54,  atomic weight = 1.31290E+02 g/mol
 #
 # Nuclear model: Fermi distribution
 #                Average radius = 5.43827E-13 cm
 #                Skin thickness = 5.46000E-14 cm
 #
 # Number of electrons = 54
 #
 # Total elastic cross section = 5.95892E-18 cm**2 = 2.12797E-01 a0**2
 # 1st transport cross section = 2.23954E-22 cm**2 = 7.99755E-06 a0**2
 # 2nd transport cross section = 6.42640E-22 cm**2 = 2.29491E-05 a0**2
 #
 #
 # Differential cross section:                       MU=(1-COS(THETA))/2
 #
 #  THETA        MU          DCS          DCS        Sherman      error
 #  (deg)                 (cm**2/sr)   (a0**2/sr)    function
 #----------------------------------------------------------------------
0.00000E+00 6.90162E-13
7.61557E-13 6.90160E-13
1.18994E-12 6.90158E-13
1.71346E-12 6.90157E-13
2.33225E-12 6.90155E-13
3.04617E-12 6.90153E-13
3.85530E-12 6.90151E-13
4.75964E-12 6.90149E-13
5.75917E-12 6.90146E-13
6.85391E-12 6.90143E-13
8.04379E-12 6.90140E-13
9.32893E-12 6.90137E-13
1.07092E-11 6.90134E-13
1.21847E-11 6.90130E-13
1.37554E-11 6.90126E-13
1.54213E-11 6.90122E-13
1.71823E-11 6.90118E-13
1.90386E-11 6.90113E-13
2.09900E-11 6.90108E-13
2.30367E-11 6.90103E-13
2.51785E-11 6.90098E-13
2.74156E-11 6.90093E-13
2.97478E-11 6.90087E-13
3.21752E-11 6.90081E-13
3.46979E-11 6.90075E-13
3.73157E-11 6.90068E-13
4.00286E-11 6.90062E-13
4.28368E-11 6.90055E-13
4.57402E-11 6.90048E-13
4.87388E-11 6.90041E-13
5.18325E-11 6.90033E-13
5.50215E-11 6.90026E-13
5.83057E-11 6.90018E-13
6.16850E-11 6.90009E-13
6.51595E-11 6.90001E-13
6.87293E-11 6.89992E-13
7.23943E-11 6.89984E-13
7.61544E-11 6.89975E-13
1.18991E-10 6.89872E-13
1.71347E-10 6.89746E-13
2.33223E-10 6.89599E-13
3.04617E-10 6.89429E-13
3.85531E-10 6.89236E-13
4.75965E-10 6.89021E-13
5.75917E-10 6.88785E-13
6.85389E-10 6.88525E-13
8.04380E-10 6.88244E-13
9.32891E-10 6.87940E-13
1.07092E-09 6.87615E-13
1.21847E-09 6.87267E-13
1.37554E-09 6.86897E-13
1.54213E-09 6.86506E-13
1.71823E-09 6.86092E-13
1.90386E-09 6.85656E-13
2.09900E-09 6.85199E-13
2.30367E-09 6.84720E-13
2.51785E-09 6.84219E-13
2.74156E-09 6.83697E-13
2.97478E-09 6.83153E-13
3.21752E-09 6.82588E-13
3.46978E-09 6.82001E-13
3.73156E-09 6.81393E-13
4.00286E-09 6.80764E-13
4.28368E-09 6.80114E-13
4.57402E-09 6.79443E-13
4.87388E-09 6.78751E-13
5.18326E-09 6.78038E-13
5.50215E-09 6.77304E-13
5.83057E-09 6.76549E-13
6.16850E-09 6.75775E-13
6.51596E-09 6.74979E-13
6.87293E-09 6.74163E-13
7.23942E-09 6.73328E-13
7.61544E-09 6.72472E-13
1.18991E-08 6.62835E-13
1.71347E-08 6.51251E-13
2.33223E-08 6.38084E-13
3.04617E-08 6.23270E-13
3.85531E-08 6.07065E-13
4.75965E-08 5.89775E-13
5.75917E-08 5.71594E-13
6.85389E-08 5.52347E-13
8.04380E-08 5.32604E-13
9.32891E-08 5.12572E-13
1.07092E-07 4.92203E-13
1.21847E-07 4.71601E-13
1.37554E-07 4.51183E-13
1.54213E-07 4.31076E-13
1.71823E-07 4.11003E-13
1.90386E-07 3.91373E-13
2.09900E-07 3.72339E-13
2.30367E-07 3.53880E-13
2.51785E-07 3.35817E-13
2.74156E-07 3.18508E-13
2.97478E-07 3.01963E-13
3.21752E-07 2.86025E-13
3.46978E-07 2.70755E-13
3.73156E-07 2.56273E-13
4.00286E-07 2.42555E-13
4.28368E-07 2.29402E-13
4.57402E-07 2.16981E-13
4.87388E-07 2.05275E-13
5.18325E-07 1.94210E-13
5.50215E-07 1.83710E-13
5.83057E-07 1.73848E-13
6.16850E-07 1.64585E-13
6.51596E-07 1.55829E-13
6.87293E-07 1.47589E-13
7.23942E-07 1.39862E-13
7.61543E-07 1.32615E-13
1.18991E-06 8.01209E-14
1.71347E-06 5.09770E-14
2.33223E-06 3.46452E-14
3.04617E-06 2.42828E-14
3.85531E-06 1.75206E-14
4.75964E-06 1.29639E-14
5.75916E-06 9.76461E-15
6.85388E-06 7.42264E-15
8.04378E-06 5.74208E-15
9.32888E-06 4.50923E-15
1.07092E-05 3.58537E-15
1.21846E-05 2.88767E-15
1.37553E-05 2.35663E-15
1.54212E-05 1.94625E-15
1.71822E-05 1.62341E-15
1.90385E-05 1.36699E-15
2.09899E-05 1.16217E-15
2.30365E-05 9.95574E-16
2.51783E-05 8.57903E-16
2.74153E-05 7.43780E-16
2.97475E-05 6.48392E-16
3.21749E-05 5.67704E-16
3.46974E-05 4.99179E-16
3.73152E-05 4.40708E-16
4.00281E-05 3.90453E-16
4.28362E-05 3.46857E-16
4.57395E-05 3.09140E-16
4.87380E-05 2.76371E-16
5.18317E-05 2.47731E-16
5.50205E-05 2.22554E-16
5.83045E-05 2.00462E-16
6.16838E-05 1.81011E-16
6.51582E-05 1.63780E-16
6.87277E-05 1.48509E-16
7.23925E-05 1.34963E-16
7.61524E-05 1.22911E-16
9.21439E-05 8.61434E-17
1.09658E-04 6.21382E-17
1.28695E-04 4.59622E-17
1.49255E-04 3.47293E-17
1.71338E-04 2.67553E-17
1.94942E-04 2.09496E-17
2.20070E-04 1.66467E-17
2.46720E-04 1.33991E-17
2.74892E-04 1.09024E-17
3.04586E-04 8.96149E-18
3.35803E-04 7.43433E-18
3.68542E-04 6.21845E-18
4.02802E-04 5.23882E-18
4.38585E-04 4.44456E-18
4.75889E-04 3.79499E-18
5.14715E-04 3.25890E-18
5.55063E-04 2.81360E-18
5.96931E-04 2.44165E-18
6.40321E-04 2.12901E-18
6.85233E-04 1.86431E-18
7.31665E-04 1.63939E-18
7.79618E-04 1.44731E-18
8.29092E-04 1.28243E-18
8.80086E-04 1.14021E-18
9.32601E-04 1.01713E-18
9.86636E-04 9.10189E-19
1.04219E-03 8.16860E-19
1.09927E-03 7.35153E-19
1.15786E-03 6.63398E-19
1.21797E-03 6.00172E-19
1.27961E-03 5.44257E-19
1.34276E-03 4.94699E-19
1.40743E-03 4.50648E-19
1.47362E-03 4.11379E-19
1.54133E-03 3.76281E-19
1.61056E-03 3.44844E-19
1.68131E-03 3.16618E-19
1.75357E-03 2.91211E-19
1.82735E-03 2.68298E-19
1.90265E-03 2.47591E-19
1.97947E-03 2.28842E-19
2.05780E-03 2.11826E-19
2.13765E-03 1.96361E-19
2.21902E-03 1.82281E-19
2.30190E-03 1.69436E-19
2.38630E-03 1.57700E-19
2.47222E-03 1.46960E-19
2.55965E-03 1.37119E-19
2.64859E-03 1.28084E-19
2.73905E-03 1.19779E-19
2.83103E-03 1.12135E-19
2.92452E-03 1.05090E-19
3.01952E-03 9.85875E-20
3.11604E-03 9.25790E-20
3.21407E-03 8.70202E-20
3.31362E-03 8.18708E-20
3.41468E-03 7.70953E-20
3.51725E-03 7.26621E-20
3.62133E-03 6.85422E-20
3.72692E-03 6.47086E-20
3.83403E-03 6.11385E-20
3.94265E-03 5.78106E-20
4.05278E-03 5.47051E-20
4.16442E-03 5.18043E-20
4.27757E-03 4.90927E-20
4.39223E-03 4.65556E-20
4.50840E-03 4.41795E-20
4.62608E-03 4.19523E-20
4.74527E-03 3.98633E-20
4.86597E-03 3.79021E-20
4.98817E-03 3.60594E-20
5.11188E-03 3.43268E-20
5.23711E-03 3.26967E-20
5.36383E-03 3.11617E-20
5.49207E-03 2.97152E-20
5.62181E-03 2.83513E-20
5.75306E-03 2.70645E-20
5.88581E-03 2.58493E-20
6.02007E-03 2.47013E-20
6.15583E-03 2.36160E-20
6.29310E-03 2.25894E-20
6.43187E-03 2.16175E-20
6.57214E-03 2.06972E-20
6.71392E-03 1.98250E-20
6.85720E-03 1.89981E-20
7.00198E-03 1.82135E-20
7.14827E-03 1.74688E-20
7.29605E-03 1.67616E-20
7.44534E-03 1.60896E-20
7.59612E-03 1.54507E-20
7.97965E-03 1.39862E-20
8.37255E-03 1.26901E-20
8.77480E-03 1.15399E-20
9.18641E-03 1.05164E-20
9.60736E-03 9.60315E-21
1.00376E-02 8.78633E-21
1.04773E-02 8.05398E-21
1.09262E-02 7.39589E-21
1.13844E-02 6.80321E-21
1.18520E-02 6.26834E-21
1.23288E-02 5.78466E-21
1.28150E-02 5.34643E-21
1.33104E-02 4.94863E-21
1.38150E-02 4.58688E-21
1.43290E-02 4.25735E-21
1.48521E-02 3.95666E-21
1.53845E-02 3.68187E-21
1.59262E-02 3.43035E-21
1.64770E-02 3.19977E-21
1.70371E-02 2.98809E-21
1.76063E-02 2.79350E-21
1.81848E-02 2.61437E-21
1.87724E-02 2.44925E-21
1.93692E-02 2.29685E-21
1.99751E-02 2.15603E-21
2.05901E-02 2.02575E-21
2.12143E-02 1.90507E-21
2.18476E-02 1.79317E-21
2.24900E-02 1.68930E-21
2.31415E-02 1.59277E-21
2.38021E-02 1.50298E-21
2.44717E-02 1.41938E-21
2.51504E-02 1.34145E-21
2.58382E-02 1.26874E-21
2.65349E-02 1.20085E-21
2.72407E-02 1.13740E-21
2.79555E-02 1.07805E-21
2.86793E-02 1.02247E-21
2.94120E-02 9.70405E-22
3.01537E-02 9.21573E-22
3.09043E-02 8.75744E-22
3.16639E-02 8.32701E-22
3.24324E-02 7.92243E-22
3.32098E-02 7.54187E-22
3.39961E-02 7.18365E-22
3.47912E-02 6.84623E-22
3.55952E-02 6.52817E-22
3.64081E-02 6.22817E-22
3.72297E-02 5.94503E-22
3.80602E-02 5.67762E-22
3.88995E-02 5.42491E-22
3.97476E-02 5.18595E-22
4.06044E-02 4.95985E-22
4.14700E-02 4.74580E-22
4.23443E-02 4.54305E-22
4.32273E-02 4.35088E-22
4.41190E-02 4.16864E-22
4.50194E-02 3.99574E-22
4.59284E-02 3.83160E-22
4.68461E-02 3.67570E-22
4.87074E-02 3.38670E-22
5.06030E-02 3.12523E-22
5.25328E-02 2.88821E-22
5.44967E-02 2.67297E-22
5.64946E-02 2.47716E-22
5.85262E-02 2.29874E-22
6.05914E-02 2.13589E-22
6.26901E-02 1.98702E-22
6.48222E-02 1.85072E-22
6.69873E-02 1.72576E-22
6.91854E-02 1.61102E-22
7.14163E-02 1.50552E-22
7.36799E-02 1.40840E-22
7.59760E-02 1.31887E-22
7.83043E-02 1.23624E-22
8.06647E-02 1.15989E-22
8.30571E-02 1.08925E-22
8.54812E-02 1.02382E-22
8.79369E-02 9.63154E-23
9.04240E-02 9.06843E-23
9.29422E-02 8.54522E-23
9.54915E-02 8.05856E-23
9.80716E-02 7.60548E-23
1.00682E-01 7.18326E-23
1.03323E-01 6.78942E-23
1.05995E-01 6.42173E-23
1.08696E-01 6.07815E-23
1.11427E-01 5.75682E-23
1.14188E-01 5.45605E-23
1.16978E-01 5.17430E-23
1.19797E-01 4.91015E-23
1.22645E-01 4.66231E-23
1.25522E-01 4.42960E-23
1.28428E-01 4.21094E-23
1.31361E-01 4.00533E-23
1.34323E-01 3.81186E-23
1.37313E-01 3.62968E-23
1.40330E-01 3.45803E-23
1.43375E-01 3.29617E-23
1.46447E-01 3.14347E-23
1.49545E-01 2.99931E-23
1.52671E-01 2.86312E-23
1.55823E-01 2.73440E-23
1.59001E-01 2.61266E-23
1.62205E-01 2.49746E-23
1.65435E-01 2.38839E-23
1.68690E-01 2.28505E-23
1.71970E-01 2.18711E-23
1.75276E-01 2.09422E-23
1.78606E-01 2.00608E-23
1.81961E-01 1.92240E-23
1.85340E-01 1.84293E-23
1.88743E-01 1.76741E-23
1.92169E-01 1.69560E-23
1.95619E-01 1.62731E-23
1.99092E-01 1.56232E-23
2.02589E-01 1.50045E-23
2.06107E-01 1.44152E-23
2.09649E-01 1.38537E-23
2.13212E-01 1.33185E-23
2.16797E-01 1.28080E-23
2.20404E-01 1.23209E-23
2.24032E-01 1.18561E-23
2.27680E-01 1.14123E-23
2.31350E-01 1.09883E-23
2.35040E-01 1.05832E-23
2.38751E-01 1.01960E-23
2.42481E-01 9.82565E-24
2.46231E-01 9.47140E-24
2.50000E-01 9.13241E-24
2.53788E-01 8.80788E-24
2.57595E-01 8.49711E-24
2.61421E-01 8.19940E-24
2.65264E-01 7.91413E-24
2.69126E-01 7.64067E-24
2.73005E-01 7.37846E-24
2.76901E-01 7.12695E-24
2.80814E-01 6.88563E-24
2.84744E-01 6.65401E-24
2.88691E-01 6.43164E-24
2.92653E-01 6.21808E-24
2.96632E-01 6.01293E-24
3.00625E-01 5.81579E-24
3.04634E-01 5.62630E-24
3.08658E-01 5.44412E-24
3.12697E-01 5.26891E-24
3.16749E-01 5.10036E-24
3.20816E-01 4.93818E-24
3.24896E-01 4.78208E-24
3.28990E-01 4.63180E-24
3.33097E-01 4.48707E-24
3.37216E-01 4.34766E-24
3.41348E-01 4.21335E-24
3.45492E-01 4.08390E-24
3.49647E-01 3.95913E-24
3.53814E-01 3.83883E-24
3.57992E-01 3.72281E-24
3.62181E-01 3.61089E-24
3.66381E-01 3.50291E-24
3.70590E-01 3.39871E-24
3.74810E-01 3.29812E-24
3.79039E-01 3.20100E-24
3.83277E-01 3.10721E-24
3.87524E-01 3.01662E-24
3.91780E-01 2.92911E-24
3.96044E-01 2.84454E-24
4.00316E-01 2.76280E-24
4.04596E-01 2.68379E-24
4.08882E-01 2.60739E-24
4.13176E-01 2.53351E-24
4.17476E-01 2.46205E-24
4.21783E-01 2.39291E-24
4.26095E-01 2.32602E-24
4.30413E-01 2.26127E-24
4.34737E-01 2.19860E-24
4.39065E-01 2.13792E-24
4.43398E-01 2.07916E-24
4.47736E-01 2.02225E-24
4.52077E-01 1.96712E-24
4.56422E-01 1.91372E-24
4.60770E-01 1.86197E-24
4.65122E-01 1.81181E-24
4.69476E-01 1.76319E-24
4.73832E-01 1.71606E-24
4.78190E-01 1.67035E-24
4.82550E-01 1.62602E-24
4.86912E-01 1.58303E-24
4.91274E-01 1.54132E-24
4.95637E-01 1.50085E-24
5.00000E-01 1.46157E-24
5.04363E-01 1.42346E-24
5.08726E-01 1.38646E-24
5.13088E-01 1.35054E-24
5.17450E-01 1.31567E-24
5.21810E-01 1.28180E-24
5.26168E-01 1.24890E-24
5.30524E-01 1.21694E-24
5.34878E-01 1.18590E-24
5.39230E-01 1.15573E-24
5.43578E-01 1.12641E-24
5.47923E-01 1.09792E-24
5.52264E-01 1.07022E-24
5.56602E-01 1.04330E-24
5.60935E-01 1.01712E-24
5.65263E-01 9.91663E-25
5.69587E-01 9.66905E-25
5.73905E-01 9.42824E-25
5.78217E-01 9.19398E-25
5.82524E-01 8.96607E-25
5.86824E-01 8.74431E-25
5.91118E-01 8.52850E-25
5.95404E-01 8.31846E-25
5.99684E-01 8.11401E-25
6.03956E-01 7.91500E-25
6.08220E-01 7.72124E-25
6.12476E-01 7.53259E-25
6.16723E-01 7.34889E-25
6.20961E-01 7.16999E-25
6.25190E-01 6.99574E-25
6.29410E-01 6.82601E-25
6.33619E-01 6.66065E-25
6.37819E-01 6.49954E-25
6.42008E-01 6.34255E-25
6.46186E-01 6.18955E-25
6.50353E-01 6.04045E-25
6.54508E-01 5.89512E-25
6.58652E-01 5.75346E-25
6.62784E-01 5.61538E-25
6.66903E-01 5.48075E-25
6.71010E-01 5.34949E-25
6.75104E-01 5.22149E-25
6.79184E-01 5.09666E-25
6.83251E-01 4.97490E-25
6.87303E-01 4.85615E-25
6.91342E-01 4.74030E-25
6.95366E-01 4.62729E-25
6.99375E-01 4.51703E-25
7.03368E-01 4.40945E-25
7.07347E-01 4.30448E-25
7.11309E-01 4.20204E-25
7.15256E-01 4.10207E-25
7.19186E-01 4.00450E-25
7.23099E-01 3.90927E-25
7.26995E-01 3.81630E-25
7.30874E-01 3.72555E-25
7.34736E-01 3.63695E-25
7.38579E-01 3.55044E-25
7.42405E-01 3.46597E-25
7.46212E-01 3.38349E-25
7.50000E-01 3.30294E-25
7.53769E-01 3.22428E-25
7.57519E-01 3.14745E-25
7.61249E-01 3.07242E-25
7.64960E-01 2.99912E-25
7.68650E-01 2.92753E-25
7.72320E-01 2.85759E-25
7.75968E-01 2.78926E-25
7.79596E-01 2.72251E-25
7.83203E-01 2.65729E-25
7.86788E-01 2.59356E-25
7.90351E-01 2.53129E-25
7.93893E-01 2.47045E-25
7.97411E-01 2.41099E-25
8.00908E-01 2.35288E-25
8.04381E-01 2.29609E-25
8.07831E-01 2.24059E-25
8.11257E-01 2.18635E-25
8.14660E-01 2.13333E-25
8.18039E-01 2.08151E-25
8.21394E-01 2.03086E-25
8.24724E-01 1.98135E-25
8.28030E-01 1.93295E-25
8.31310E-01 1.88564E-25
8.34565E-01 1.83939E-25
8.37795E-01 1.79418E-25
8.40999E-01 1.74999E-25
8.44177E-01 1.70679E-25
8.47329E-01 1.66455E-25
8.50455E-01 1.62326E-25
8.53553E-01 1.58289E-25
8.56625E-01 1.54342E-25
8.59670E-01 1.50484E-25
8.62687E-01 1.46712E-25
8.65677E-01 1.43025E-25
8.68639E-01 1.39420E-25
8.71572E-01 1.35896E-25
8.74478E-01 1.32451E-25
8.77355E-01 1.29084E-25
8.80203E-01 1.25792E-25
8.83022E-01 1.22573E-25
8.85812E-01 1.19428E-25
8.88573E-01 1.16353E-25
8.91304E-01 1.13348E-25
8.94005E-01 1.10411E-25
8.96677E-01 1.07540E-25
8.99318E-01 1.04734E-25
9.01928E-01 1.01993E-25
9.04508E-01 9.93138E-26
9.07058E-01 9.66961E-26
9.09576E-01 9.41385E-26
9.12063E-01 9.16397E-26
9.14519E-01 8.91988E-26
9.16943E-01 8.68144E-26
9.19335E-01 8.44856E-26
9.21696E-01 8.22112E-26
9.24024E-01 7.99902E-26
9.26320E-01 7.78217E-26
9.28584E-01 7.57046E-26
9.30815E-01 7.36380E-26
9.33013E-01 7.16210E-26
9.35178E-01 6.96526E-26
9.37310E-01 6.77320E-26
9.39409E-01 6.58583E-26
9.41474E-01 6.40308E-26
9.43505E-01 6.22486E-26
9.45503E-01 6.05109E-26
9.47467E-01 5.88170E-26
9.49397E-01 5.71661E-26
9.51293E-01 5.55575E-26
9.53154E-01 5.39906E-26
9.54981E-01 5.24647E-26
9.56773E-01 5.09790E-26
9.58530E-01 4.95330E-26
9.60252E-01 4.81261E-26
9.61940E-01 4.67576E-26
9.63592E-01 4.54270E-26
9.65209E-01 4.41337E-26
9.66790E-01 4.28772E-26
9.68336E-01 4.16569E-26
9.69846E-01 4.04724E-26
9.71321E-01 3.93231E-26
9.72759E-01 3.82086E-26
9.74162E-01 3.71284E-26
9.75528E-01 3.60821E-26
9.76858E-01 3.50692E-26
9.78152E-01 3.40893E-26
9.79410E-01 3.31420E-26
9.80631E-01 3.22269E-26
9.81815E-01 3.13437E-26
9.82963E-01 3.04920E-26
9.84074E-01 2.96714E-26
9.85148E-01 2.88817E-26
9.86185E-01 2.81224E-26
9.87185E-01 2.73933E-26
9.88148E-01 2.66941E-26
9.89074E-01 2.60245E-26
9.89962E-01 2.53843E-26
9.90814E-01 2.47731E-26
9.91627E-01 2.41908E-26
9.92404E-01 2.36371E-26
9.93143E-01 2.31118E-26
9.93844E-01 2.26146E-26
9.94508E-01 2.21455E-26
9.95134E-01 2.17041E-26
9.95722E-01 2.12903E-26
9.96273E-01 2.09040E-26
9.96786E-01 2.05450E-26
9.97261E-01 2.02132E-26
9.97698E-01 1.99083E-26
9.98097E-01 1.96304E-26
9.98459E-01 1.93793E-26
9.98782E-01 1.91549E-26
9.99067E-01 1.89571E-26
9.99315E-01 1.87858E-26
9.99524E-01 1.86410E-26
9.99695E-01 1.85226E-26
9.99829E-01 1.84306E-26
9.99924E-01 1.83648E-26
9.99981E-01 1.83254E-26
1.00000E+00 1.83123E-26
