 #
 # Subroutine ELSEPA. Elastic scattering of electrons and positrons
 #                    by neutral atoms and positive ions
 #
 # Projectile: positron
 # Kinetic energy = 2.00000E+08 eV = 7.34987E+06 a.u.
 #
 # WARNING: High-energy factorization with free-atom DF screening.
 #          Absorption, polarization and exchange corrections are
 #          switched off.
 #          Phase shifts are calculated for the bare nucleus.
 #          Scattering amplitudes are not evaluated.
 #
 # Element: Xe,  Z =  54,  atomic weight = 1.31290E+02 g/mol
 #
 # Nuclear model: Fermi distribution
 #                Average radius = 5.43827E-13 cm
 #                Skin thickness = 5.46000E-14 cm
 #
 # Number of electrons = 54
 #
 # Total elastic cross section = 5.86676E-18 cm**2 = 2.09506E-01 a0**2
 # 1st transport cross section = 1.40023E-25 cm**2 = 5.00032E-09 a0**2
 # 2nd transport cross section = 4.19020E-25 cm**2 = 1.49635E-08 a0**2
 #
 #
 # Differential cross section:                       MU=(1-COS(THETA))/2
 #
 #  THETA        MU          DCS          DCS        Sherman      error
 #  (deg)                 (cm**2/sr)   (a0**2/sr)    function
 #----------------------------------------------------------------------
0.00000E+00 1.72474E-09
7.61557E-13 1.71335E-09
1.18994E-12 1.70701E-09
1.71346E-12 1.69931E-09
2.33225E-12 1.69028E-09
3.04617E-12 1.67994E-09
3.85530E-12 1.66834E-09
4.75964E-12 1.65552E-09
5.75917E-12 1.64150E-09
6.85391E-12 1.62616E-09
8.04379E-12 1.60997E-09
9.32893E-12 1.59276E-09
1.07092E-11 1.57434E-09
1.21847E-11 1.55533E-09
1.37554E-11 1.53523E-09
1.54213E-11 1.51428E-09
1.71823E-11 1.49302E-09
1.90386E-11 1.47048E-09
2.09900E-11 1.44761E-09
2.30367E-11 1.42453E-09
2.51785E-11 1.40021E-09
2.74156E-11 1.37600E-09
2.97478E-11 1.35139E-09
3.21752E-11 1.32607E-09
3.46979E-11 1.30107E-09
3.73157E-11 1.27542E-09
4.00286E-11 1.24964E-09
4.28368E-11 1.22435E-09
4.57402E-11 1.19814E-09
4.87388E-11 1.17236E-09
5.18325E-11 1.14695E-09
5.50215E-11 1.12085E-09
5.83057E-11 1.09548E-09
6.16850E-11 1.07016E-09
6.51595E-11 1.04472E-09
6.87293E-11 1.02007E-09
7.23943E-11 9.95183E-10
7.61544E-11 9.70669E-10
1.18991E-10 7.46688E-10
1.71347E-10 5.66058E-10
2.33223E-10 4.28041E-10
3.04617E-10 3.25987E-10
3.85531E-10 2.51316E-10
4.75965E-10 1.96625E-10
5.75917E-10 1.56148E-10
6.85389E-10 1.24965E-10
8.04380E-10 1.02298E-10
9.32891E-10 8.48193E-11
1.07092E-09 7.04793E-11
1.21847E-09 5.95217E-11
1.37554E-09 5.04038E-11
1.54213E-09 4.28797E-11
1.71823E-09 3.69192E-11
1.90386E-09 3.16789E-11
2.09900E-09 2.73813E-11
2.30367E-09 2.38517E-11
2.51785E-09 2.07150E-11
2.74156E-09 1.81298E-11
2.97478E-09 1.59295E-11
3.21752E-09 1.40114E-11
3.46978E-09 1.23997E-11
3.73156E-09 1.09972E-11
4.00286E-09 9.78493E-12
4.28368E-09 8.74961E-12
4.57402E-09 7.83563E-12
4.87388E-09 7.04522E-12
5.18326E-09 6.35830E-12
5.50215E-09 5.74949E-12
5.83057E-09 5.21804E-12
6.16850E-09 4.74869E-12
6.51596E-09 4.33145E-12
6.87293E-09 3.96321E-12
7.23942E-09 3.63325E-12
7.61544E-09 3.33856E-12
1.18991E-08 1.58342E-12
1.71347E-08 8.47333E-13
2.33223E-08 4.89538E-13
3.04617E-08 3.00158E-13
3.85531E-08 1.93494E-13
4.75965E-08 1.30300E-13
5.75917E-08 9.09913E-14
6.85389E-08 6.55330E-14
8.04380E-08 4.84262E-14
9.32891E-08 3.65737E-14
1.07092E-07 2.81450E-14
1.21847E-07 2.20118E-14
1.37554E-07 1.74607E-14
1.54213E-07 1.40253E-14
1.71823E-07 1.13925E-14
1.90386E-07 9.34748E-15
2.09900E-07 7.73991E-15
2.30367E-07 6.46225E-15
2.51785E-07 5.43682E-15
2.74156E-07 4.60601E-15
2.97478E-07 3.92756E-15
3.21752E-07 3.36927E-15
3.46978E-07 2.90654E-15
3.73156E-07 2.52045E-15
4.00286E-07 2.19630E-15
4.28368E-07 1.92257E-15
4.57402E-07 1.69015E-15
4.87388E-07 1.49180E-15
5.18325E-07 1.32169E-15
5.50215E-07 1.17516E-15
5.83057E-07 1.04837E-15
6.16850E-07 9.38232E-16
6.51596E-07 8.42189E-16
6.87293E-07 7.58132E-16
7.23942E-07 6.84313E-16
7.61543E-07 6.19269E-16
1.18991E-06 2.56532E-16
1.71347E-06 1.24692E-16
2.33223E-06 6.76854E-17
3.04617E-06 3.98369E-17
3.85531E-06 2.49433E-17
4.75964E-06 1.64008E-17
5.75916E-06 1.12200E-17
6.85388E-06 7.93161E-18
8.04378E-06 5.76378E-18
9.32888E-06 4.28814E-18
1.07092E-05 3.25569E-18
1.21846E-05 2.51594E-18
1.37553E-05 1.97475E-18
1.54212E-05 1.57149E-18
1.71822E-05 1.26606E-18
1.90385E-05 1.03101E-18
2.09899E-05 8.48595E-19
2.30365E-05 7.04715E-19
2.51783E-05 5.89962E-19
2.74153E-05 4.97551E-19
2.97475E-05 4.22496E-19
3.21749E-05 3.61064E-19
3.46974E-05 3.10416E-19
3.73152E-05 2.68365E-19
4.00281E-05 2.33216E-19
4.28362E-05 2.03644E-19
4.57395E-05 1.78611E-19
4.87380E-05 1.57301E-19
5.18317E-05 1.39067E-19
5.50205E-05 1.23393E-19
5.83045E-05 1.09863E-19
6.16838E-05 9.81364E-20
6.51582E-05 8.79355E-20
6.87277E-05 7.90281E-20
7.23925E-05 7.12216E-20
7.61524E-05 6.44413E-20
9.21439E-05 4.39973E-20
1.09658E-04 3.10504E-20
1.28695E-04 2.25343E-20
1.49255E-04 1.67448E-20
1.71338E-04 1.27004E-20
1.94942E-04 9.80552E-21
2.20070E-04 7.68980E-21
2.46720E-04 6.11472E-21
2.74892E-04 4.92251E-21
3.04586E-04 4.00695E-21
3.35803E-04 3.29436E-21
3.68542E-04 2.73315E-21
4.02802E-04 2.28631E-21
4.38585E-04 1.92699E-21
4.75889E-04 1.63544E-21
5.14715E-04 1.39686E-21
5.55063E-04 1.20013E-21
5.96931E-04 1.03675E-21
6.40321E-04 9.00160E-22
6.85233E-04 7.85269E-22
7.31665E-04 6.88071E-22
7.79618E-04 6.05399E-22
8.29092E-04 5.34727E-22
8.80086E-04 4.74026E-22
9.32601E-04 4.21658E-22
9.86636E-04 3.76288E-22
1.04219E-03 3.36826E-22
1.09927E-03 3.02373E-22
1.15786E-03 2.72187E-22
1.21797E-03 2.45651E-22
1.27961E-03 2.22248E-22
1.34276E-03 2.01546E-22
1.40743E-03 1.83180E-22
1.47362E-03 1.66842E-22
1.54133E-03 1.52269E-22
1.61056E-03 1.39239E-22
1.68131E-03 1.27559E-22
1.75357E-03 1.17066E-22
1.82735E-03 1.07619E-22
1.90265E-03 9.90946E-23
1.97947E-03 9.13881E-23
2.05780E-03 8.44072E-23
2.13765E-03 7.80718E-23
2.21902E-03 7.23118E-23
2.30190E-03 6.70659E-23
2.38630E-03 6.22803E-23
2.47222E-03 5.79076E-23
2.55965E-03 5.39060E-23
2.64859E-03 5.02385E-23
2.73905E-03 4.68725E-23
2.83103E-03 4.37787E-23
2.92452E-03 4.09314E-23
3.01952E-03 3.83075E-23
3.11604E-03 3.58865E-23
3.21407E-03 3.36499E-23
3.31362E-03 3.15812E-23
3.41468E-03 2.96657E-23
3.51725E-03 2.78901E-23
3.62133E-03 2.62423E-23
3.72692E-03 2.47116E-23
3.83403E-03 2.32881E-23
3.94265E-03 2.19632E-23
4.05278E-03 2.07288E-23
4.16442E-03 1.95776E-23
4.27757E-03 1.85030E-23
4.39223E-03 1.74992E-23
4.50840E-03 1.65605E-23
4.62608E-03 1.56821E-23
4.74527E-03 1.48595E-23
4.86597E-03 1.40884E-23
4.98817E-03 1.33652E-23
5.11188E-03 1.26862E-23
5.23711E-03 1.20484E-23
5.36383E-03 1.14489E-23
5.49207E-03 1.08848E-23
5.62181E-03 1.03539E-23
5.75306E-03 9.85374E-24
5.88581E-03 9.38233E-24
6.02007E-03 8.93770E-24
6.15583E-03 8.51809E-24
6.29310E-03 8.12184E-24
6.43187E-03 7.74744E-24
6.57214E-03 7.39348E-24
6.71392E-03 7.05865E-24
6.85720E-03 6.74176E-24
7.00198E-03 6.44168E-24
7.14827E-03 6.15736E-24
7.29605E-03 5.88785E-24
7.44534E-03 5.63225E-24
7.59612E-03 5.38971E-24
7.97965E-03 4.83557E-24
8.37255E-03 4.34759E-24
8.77480E-03 3.91671E-24
9.18641E-03 3.53525E-24
9.60736E-03 3.19671E-24
1.00376E-02 2.89554E-24
1.04773E-02 2.62703E-24
1.09262E-02 2.38711E-24
1.13844E-02 2.17231E-24
1.18520E-02 1.97962E-24
1.23288E-02 1.80644E-24
1.28150E-02 1.65052E-24
1.33104E-02 1.50990E-24
1.38150E-02 1.38286E-24
1.43290E-02 1.26793E-24
1.48521E-02 1.16379E-24
1.53845E-02 1.06928E-24
1.59262E-02 9.83408E-25
1.64770E-02 9.05272E-25
1.70371E-02 8.34087E-25
1.76063E-02 7.69156E-25
1.81848E-02 7.09858E-25
1.87724E-02 6.55644E-25
1.93692E-02 6.06025E-25
1.99751E-02 5.60563E-25
2.05901E-02 5.18869E-25
2.12143E-02 4.80593E-25
2.18476E-02 4.45421E-25
2.24900E-02 4.13074E-25
2.31415E-02 3.83299E-25
2.38021E-02 3.55868E-25
2.44717E-02 3.30577E-25
2.51504E-02 3.07241E-25
2.58382E-02 2.85692E-25
2.65349E-02 2.65779E-25
2.72407E-02 2.47366E-25
2.79555E-02 2.30328E-25
2.86793E-02 2.14552E-25
2.94120E-02 1.99936E-25
3.01537E-02 1.86386E-25
3.09043E-02 1.73818E-25
3.16639E-02 1.62153E-25
3.24324E-02 1.51322E-25
3.32098E-02 1.41259E-25
3.39961E-02 1.31905E-25
3.47912E-02 1.23206E-25
3.55952E-02 1.15113E-25
3.64081E-02 1.07579E-25
3.72297E-02 1.00564E-25
3.80602E-02 9.40289E-26
3.88995E-02 8.79384E-26
3.97476E-02 8.22601E-26
4.06044E-02 7.69642E-26
4.14700E-02 7.20233E-26
4.23443E-02 6.74120E-26
4.32273E-02 6.31069E-26
4.41190E-02 5.90864E-26
4.50194E-02 5.53305E-26
4.59284E-02 5.18210E-26
4.68461E-02 4.85407E-26
4.87074E-02 4.26057E-26
5.06030E-02 3.74129E-26
5.25328E-02 3.28654E-26
5.44967E-02 2.88798E-26
5.64946E-02 2.53841E-26
5.85262E-02 2.23161E-26
6.05914E-02 1.96219E-26
6.26901E-02 1.72546E-26
6.48222E-02 1.51738E-26
6.69873E-02 1.33440E-26
6.91854E-02 1.17344E-26
7.14163E-02 1.03182E-26
7.36799E-02 9.07191E-27
7.59760E-02 7.97491E-27
7.83043E-02 7.00927E-27
8.06647E-02 6.15921E-27
8.30571E-02 5.41090E-27
8.54812E-02 4.75220E-27
8.79369E-02 4.17245E-27
9.04240E-02 3.66225E-27
9.29422E-02 3.21335E-27
9.54915E-02 2.81847E-27
9.80716E-02 2.47123E-27
1.00682E-01 2.16596E-27
1.03323E-01 1.89769E-27
1.05995E-01 1.66203E-27
1.08696E-01 1.45512E-27
1.11427E-01 1.27352E-27
1.14188E-01 1.11422E-27
1.16978E-01 9.74567E-28
1.19797E-01 8.52200E-28
1.22645E-01 7.45046E-28
1.25522E-01 6.51273E-28
1.28428E-01 5.69262E-28
1.31361E-01 4.97588E-28
1.34323E-01 4.34989E-28
1.37313E-01 3.80356E-28
1.40330E-01 3.32707E-28
1.43375E-01 2.91180E-28
1.46447E-01 2.55014E-28
1.49545E-01 2.23537E-28
1.52671E-01 1.96159E-28
1.55823E-01 1.72363E-28
1.59001E-01 1.51690E-28
1.62205E-01 1.33741E-28
1.65435E-01 1.18162E-28
1.68690E-01 1.04646E-28
1.71970E-01 9.29205E-29
1.75276E-01 8.27499E-29
1.78606E-01 7.39265E-29
1.81961E-01 6.62692E-29
1.85340E-01 5.96200E-29
1.88743E-01 5.38410E-29
1.92169E-01 4.88126E-29
1.95619E-01 4.44303E-29
1.99092E-01 4.06037E-29
2.02589E-01 3.72546E-29
2.06107E-01 3.43150E-29
2.09649E-01 3.17263E-29
2.13212E-01 2.94382E-29
2.16797E-01 2.74072E-29
2.20404E-01 2.55960E-29
2.24032E-01 2.39727E-29
2.27680E-01 2.25099E-29
2.31350E-01 2.11845E-29
2.35040E-01 1.99766E-29
2.38751E-01 1.88695E-29
2.42481E-01 1.78490E-29
2.46231E-01 1.69031E-29
2.50000E-01 1.60218E-29
2.53788E-01 1.51967E-29
2.57595E-01 1.44206E-29
2.61421E-01 1.36879E-29
2.65264E-01 1.29936E-29
2.69126E-01 1.23337E-29
2.73005E-01 1.17049E-29
2.76901E-01 1.11045E-29
2.80814E-01 1.05303E-29
2.84744E-01 9.98034E-30
2.88691E-01 9.45322E-30
2.92653E-01 8.94768E-30
2.96632E-01 8.46270E-30
3.00625E-01 7.99743E-30
3.04634E-01 7.55117E-30
3.08658E-01 7.12328E-30
3.12697E-01 6.71326E-30
3.16749E-01 6.32061E-30
3.20816E-01 5.94490E-30
3.24896E-01 5.58574E-30
3.28990E-01 5.24272E-30
3.33097E-01 4.91547E-30
3.37216E-01 4.60361E-30
3.41348E-01 4.30676E-30
3.45492E-01 4.02454E-30
3.49647E-01 3.75655E-30
3.53814E-01 3.50239E-30
3.57992E-01 3.26166E-30
3.62181E-01 3.03395E-30
3.66381E-01 2.81882E-30
3.70590E-01 2.61585E-30
3.74810E-01 2.42460E-30
3.79039E-01 2.24464E-30
3.83277E-01 2.07553E-30
3.87524E-01 1.91682E-30
3.91780E-01 1.76808E-30
3.96044E-01 1.62886E-30
4.00316E-01 1.49874E-30
4.04596E-01 1.37728E-30
4.08882E-01 1.26407E-30
4.13176E-01 1.15868E-30
4.17476E-01 1.06072E-30
4.21783E-01 9.69782E-31
4.26095E-01 8.85490E-31
4.30413E-01 8.07465E-31
4.34737E-01 7.35346E-31
4.39065E-01 6.68782E-31
4.43398E-01 6.07436E-31
4.47736E-01 5.50983E-31
4.52077E-01 4.99112E-31
4.56422E-01 4.51525E-31
4.60770E-01 4.07937E-31
4.65122E-01 3.68075E-31
4.69476E-01 3.31682E-31
4.73832E-01 2.98512E-31
4.78190E-01 2.68331E-31
4.82550E-01 2.40919E-31
4.86912E-01 2.16068E-31
4.91274E-01 1.93580E-31
4.95637E-01 1.73273E-31
5.00000E-01 1.54970E-31
5.04363E-01 1.38510E-31
5.08726E-01 1.23739E-31
5.13088E-01 1.10515E-31
5.17450E-01 9.87036E-32
5.21810E-01 8.81814E-32
5.26168E-01 7.88323E-32
5.30524E-01 7.05491E-32
5.34878E-01 6.32320E-32
5.39230E-01 5.67888E-32
5.43578E-01 5.11342E-32
5.47923E-01 4.61897E-32
5.52264E-01 4.18827E-32
5.56602E-01 3.81468E-32
5.60935E-01 3.49209E-32
5.65263E-01 3.21488E-32
5.69587E-01 2.97797E-32
5.73905E-01 2.77667E-32
5.78217E-01 2.60674E-32
5.82524E-01 2.46432E-32
5.86824E-01 2.34591E-32
5.91118E-01 2.24835E-32
5.95404E-01 2.16880E-32
5.99684E-01 2.10467E-32
6.03956E-01 2.05367E-32
6.08220E-01 2.01375E-32
6.12476E-01 1.98306E-32
6.16723E-01 1.95998E-32
6.20961E-01 1.94306E-32
6.25190E-01 1.93102E-32
6.29410E-01 1.92276E-32
6.33619E-01 1.91729E-32
6.37819E-01 1.91378E-32
6.42008E-01 1.91148E-32
6.46186E-01 1.90979E-32
6.50353E-01 1.90816E-32
6.54508E-01 1.90615E-32
6.58652E-01 1.90340E-32
6.62784E-01 1.89961E-32
6.66903E-01 1.89452E-32
6.71010E-01 1.88797E-32
6.75104E-01 1.87980E-32
6.79184E-01 1.86992E-32
6.83251E-01 1.85827E-32
6.87303E-01 1.84481E-32
6.91342E-01 1.82955E-32
6.95366E-01 1.81250E-32
6.99375E-01 1.79370E-32
7.03368E-01 1.77321E-32
7.07347E-01 1.75110E-32
7.11309E-01 1.72744E-32
7.15256E-01 1.70233E-32
7.19186E-01 1.67587E-32
7.23099E-01 1.64814E-32
7.26995E-01 1.61926E-32
7.30874E-01 1.58934E-32
7.34736E-01 1.55847E-32
7.38579E-01 1.52677E-32
7.42405E-01 1.49434E-32
7.46212E-01 1.46129E-32
7.50000E-01 1.42771E-32
7.53769E-01 1.39371E-32
7.57519E-01 1.35938E-32
7.61249E-01 1.32481E-32
7.64960E-01 1.29008E-32
7.68650E-01 1.25529E-32
7.72320E-01 1.22050E-32
7.75968E-01 1.18579E-32
7.79596E-01 1.15123E-32
7.83203E-01 1.11689E-32
7.86788E-01 1.08282E-32
7.90351E-01 1.04907E-32
7.93893E-01 1.01570E-32
7.97411E-01 9.82758E-33
8.00908E-01 9.50281E-33
8.04381E-01 9.18307E-33
8.07831E-01 8.86871E-33
8.11257E-01 8.56003E-33
8.14660E-01 8.25729E-33
8.18039E-01 7.96073E-33
8.21394E-01 7.67054E-33
8.24724E-01 7.38689E-33
8.28030E-01 7.10993E-33
8.31310E-01 6.83974E-33
8.34565E-01 6.57644E-33
8.37795E-01 6.32007E-33
8.40999E-01 6.07067E-33
8.44177E-01 5.82827E-33
8.47329E-01 5.59285E-33
8.50455E-01 5.36441E-33
8.53553E-01 5.14290E-33
8.56625E-01 4.92829E-33
8.59670E-01 4.72049E-33
8.62687E-01 4.51945E-33
8.65677E-01 4.32506E-33
8.68639E-01 4.13724E-33
8.71572E-01 3.95588E-33
8.74478E-01 3.78087E-33
8.77355E-01 3.61209E-33
8.80203E-01 3.44940E-33
8.83022E-01 3.29269E-33
8.85812E-01 3.14181E-33
8.88573E-01 2.99663E-33
8.91304E-01 2.85701E-33
8.94005E-01 2.72280E-33
8.96677E-01 2.59385E-33
8.99318E-01 2.47003E-33
9.01928E-01 2.35119E-33
9.04508E-01 2.23717E-33
9.07058E-01 2.12784E-33
9.09576E-01 2.02304E-33
9.12063E-01 1.92264E-33
9.14519E-01 1.82648E-33
9.16943E-01 1.73444E-33
9.19335E-01 1.64636E-33
9.21696E-01 1.56211E-33
9.24024E-01 1.48156E-33
9.26320E-01 1.40458E-33
9.28584E-01 1.33103E-33
9.30815E-01 1.26078E-33
9.33013E-01 1.19372E-33
9.35178E-01 1.12972E-33
9.37310E-01 1.06866E-33
9.39409E-01 1.01043E-33
9.41474E-01 9.54920E-34
9.43505E-01 9.02013E-34
9.45503E-01 8.51609E-34
9.47467E-01 8.03604E-34
9.49397E-01 7.57898E-34
9.51293E-01 7.14397E-34
9.53154E-01 6.73005E-34
9.54981E-01 6.33635E-34
9.56773E-01 5.96200E-34
9.58530E-01 5.60615E-34
9.60252E-01 5.26799E-34
9.61940E-01 4.94675E-34
9.63592E-01 4.64169E-34
9.65209E-01 4.35209E-34
9.66790E-01 4.07725E-34
9.68336E-01 3.81650E-34
9.69846E-01 3.56921E-34
9.71321E-01 3.33477E-34
9.72759E-01 3.11259E-34
9.74162E-01 2.90211E-34
9.75528E-01 2.70279E-34
9.76858E-01 2.51412E-34
9.78152E-01 2.33561E-34
9.79410E-01 2.16677E-34
9.80631E-01 2.00718E-34
9.81815E-01 1.85640E-34
9.82963E-01 1.71402E-34
9.84074E-01 1.57965E-34
9.85148E-01 1.45293E-34
9.86185E-01 1.33351E-34
9.87185E-01 1.22104E-34
9.88148E-01 1.11522E-34
9.89074E-01 1.01575E-34
9.89962E-01 9.22337E-35
9.90814E-01 8.34719E-35
9.91627E-01 7.52649E-35
9.92404E-01 6.75881E-35
9.93143E-01 6.04199E-35
9.93844E-01 5.37383E-35
9.94508E-01 4.75248E-35
9.95134E-01 4.17595E-35
9.95722E-01 3.64264E-35
9.96273E-01 3.15090E-35
9.96786E-01 2.69926E-35
9.97261E-01 2.28642E-35
9.97698E-01 1.91104E-35
9.98097E-01 1.57207E-35
9.98459E-01 1.26843E-35
9.98782E-01 9.99190E-36
9.99067E-01 7.63533E-36
9.99315E-01 5.60752E-36
9.99524E-01 3.90191E-36
9.99695E-01 2.51380E-36
9.99829E-01 1.43854E-36
9.99924E-01 6.72862E-37
9.99981E-01 2.14224E-37
1.00000E+00 6.15996E-38
