 #
 # Subroutine ELSEPA. Elastic scattering of electrons and positrons
 #                    by neutral atoms and positive ions
 #
 # Projectile: positron
 # Kinetic energy = 6.00000E+06 eV = 2.20496E+05 a.u.
 #
 # WARNING: High-energy factorization with free-atom DF screening.
 #          Absorption, polarization and exchange corrections are
 #          switched off.
 #          Phase shifts are calculated for the bare nucleus.
 #          Scattering amplitudes are not evaluated.
 #
 # Element: Xe,  Z =  54,  atomic weight = 1.31290E+02 g/mol
 #
 # Nuclear model: Fermi distribution
 #                Average radius = 5.43827E-13 cm
 #                Skin thickness = 5.46000E-14 cm
 #
 # Number of electrons = 54
 #
 # Total elastic cross section = 5.90274E-18 cm**2 = 2.10791E-01 a0**2
 # 1st transport cross section = 9.19172E-23 cm**2 = 3.28242E-06 a0**2
 # 2nd transport cross section = 2.65085E-22 cm**2 = 9.46636E-06 a0**2
 #
 #
 # Differential cross section:                       MU=(1-COS(THETA))/2
 #
 #  THETA        MU          DCS          DCS        Sherman      error
 #  (deg)                 (cm**2/sr)   (a0**2/sr)    function
 #----------------------------------------------------------------------
0.00000E+00 1.81862E-12
7.61557E-13 1.81860E-12
1.18994E-12 1.81859E-12
1.71346E-12 1.81858E-12
2.33225E-12 1.81857E-12
3.04617E-12 1.81856E-12
3.85530E-12 1.81855E-12
4.75964E-12 1.81853E-12
5.75917E-12 1.81851E-12
6.85391E-12 1.81850E-12
8.04379E-12 1.81848E-12
9.32893E-12 1.81845E-12
1.07092E-11 1.81843E-12
1.21847E-11 1.81840E-12
1.37554E-11 1.81838E-12
1.54213E-11 1.81835E-12
1.71823E-11 1.81832E-12
1.90386E-11 1.81829E-12
2.09900E-11 1.81826E-12
2.30367E-11 1.81822E-12
2.51785E-11 1.81819E-12
2.74156E-11 1.81815E-12
2.97478E-11 1.81811E-12
3.21752E-11 1.81807E-12
3.46979E-11 1.81803E-12
3.73157E-11 1.81798E-12
4.00286E-11 1.81794E-12
4.28368E-11 1.81789E-12
4.57402E-11 1.81784E-12
4.87388E-11 1.81779E-12
5.18325E-11 1.81774E-12
5.50215E-11 1.81768E-12
5.83057E-11 1.81763E-12
6.16850E-11 1.81757E-12
6.51595E-11 1.81752E-12
6.87293E-11 1.81746E-12
7.23943E-11 1.81739E-12
7.61544E-11 1.81733E-12
1.18991E-10 1.81662E-12
1.71347E-10 1.81575E-12
2.33223E-10 1.81472E-12
3.04617E-10 1.81354E-12
3.85531E-10 1.81220E-12
4.75965E-10 1.81071E-12
5.75917E-10 1.80906E-12
6.85389E-10 1.80726E-12
8.04380E-10 1.80530E-12
9.32891E-10 1.80320E-12
1.07092E-09 1.80094E-12
1.21847E-09 1.79853E-12
1.37554E-09 1.79597E-12
1.54213E-09 1.79326E-12
1.71823E-09 1.79041E-12
1.90386E-09 1.78740E-12
2.09900E-09 1.78426E-12
2.30367E-09 1.78096E-12
2.51785E-09 1.77753E-12
2.74156E-09 1.77395E-12
2.97478E-09 1.77023E-12
3.21752E-09 1.76637E-12
3.46978E-09 1.76238E-12
3.73156E-09 1.75824E-12
4.00286E-09 1.75398E-12
4.28368E-09 1.74957E-12
4.57402E-09 1.74504E-12
4.87388E-09 1.74038E-12
5.18326E-09 1.73559E-12
5.50215E-09 1.73065E-12
5.83057E-09 1.72551E-12
6.16850E-09 1.72027E-12
6.51596E-09 1.71494E-12
6.87293E-09 1.70951E-12
7.23942E-09 1.70399E-12
7.61544E-09 1.69838E-12
1.18991E-08 1.63607E-12
1.71347E-08 1.56422E-12
2.33223E-08 1.48495E-12
3.04617E-08 1.40079E-12
3.85531E-08 1.31384E-12
4.75965E-08 1.22603E-12
5.75917E-08 1.13892E-12
6.85389E-08 1.05319E-12
8.04380E-08 9.70739E-13
9.32891E-08 8.92341E-13
1.07092E-07 8.18524E-13
1.21847E-07 7.49594E-13
1.37554E-07 6.85421E-13
1.54213E-07 6.26164E-13
1.71823E-07 5.71875E-13
1.90386E-07 5.22331E-13
2.09900E-07 4.77260E-13
2.30367E-07 4.36334E-13
2.51785E-07 3.99139E-13
2.74156E-07 3.65523E-13
2.97478E-07 3.35163E-13
3.21752E-07 3.07754E-13
3.46978E-07 2.83007E-13
3.73156E-07 2.60616E-13
4.00286E-07 2.40369E-13
4.28368E-07 2.22064E-13
4.57402E-07 2.05494E-13
4.87388E-07 1.90476E-13
5.18325E-07 1.76838E-13
5.50215E-07 1.64305E-13
5.83057E-07 1.52476E-13
6.16850E-07 1.41861E-13
6.51596E-07 1.32310E-13
6.87293E-07 1.23696E-13
7.23942E-07 1.15908E-13
7.61543E-07 1.08850E-13
1.18991E-06 6.08701E-14
1.71347E-06 3.64603E-14
2.33223E-06 2.28670E-14
3.04617E-06 1.49454E-14
3.85531E-06 1.01452E-14
4.75964E-06 7.13639E-15
5.75916E-06 5.18555E-15
6.85388E-06 3.87438E-15
8.04378E-06 2.96562E-15
9.32888E-06 2.31567E-15
1.07092E-05 1.83789E-15
1.21846E-05 1.47838E-15
1.37553E-05 1.20239E-15
1.54212E-05 9.86367E-16
1.71822E-05 8.16186E-16
1.90385E-05 6.80457E-16
2.09899E-05 5.71740E-16
2.30365E-05 4.83422E-16
2.51783E-05 4.11001E-16
2.74153E-05 3.51364E-16
2.97475E-05 3.01988E-16
3.21749E-05 2.60912E-16
3.46974E-05 2.26576E-16
3.73152E-05 1.97713E-16
4.00281E-05 1.73325E-16
4.28362E-05 1.52605E-16
4.57395E-05 1.34901E-16
4.87380E-05 1.19696E-16
5.18317E-05 1.06577E-16
5.50205E-05 9.52017E-17
5.83045E-05 8.52928E-17
6.16838E-05 7.66771E-17
6.51582E-05 6.91568E-17
6.87277E-05 6.25090E-17
7.23925E-05 5.66523E-17
7.61524E-05 5.14863E-17
9.21439E-05 3.58700E-17
1.09658E-04 2.57468E-17
1.28695E-04 1.89557E-17
1.49255E-04 1.42585E-17
1.71338E-04 1.09267E-17
1.94942E-04 8.51017E-18
2.20070E-04 6.72288E-18
2.46720E-04 5.37921E-18
2.74892E-04 4.35385E-18
3.04586E-04 3.56089E-18
3.35803E-04 2.93995E-18
3.68542E-04 2.44831E-18
4.02802E-04 2.05492E-18
4.38585E-04 1.73733E-18
4.75889E-04 1.47870E-18
5.14715E-04 1.26638E-18
5.55063E-04 1.09080E-18
5.96931E-04 9.44570E-19
6.40321E-04 8.22012E-19
6.85233E-04 7.18686E-19
7.31665E-04 6.31082E-19
7.79618E-04 5.56417E-19
8.29092E-04 4.92463E-19
8.80086E-04 4.37425E-19
9.32601E-04 3.89858E-19
9.86636E-04 3.48577E-19
1.04219E-03 3.12612E-19
1.09927E-03 2.81161E-19
1.15786E-03 2.53561E-19
1.21797E-03 2.29260E-19
1.27961E-03 2.07797E-19
1.34276E-03 1.88784E-19
1.40743E-03 1.71892E-19
1.47362E-03 1.56843E-19
1.54133E-03 1.43402E-19
1.61056E-03 1.31367E-19
1.68131E-03 1.20565E-19
1.75357E-03 1.10849E-19
1.82735E-03 1.02089E-19
1.90265E-03 9.41748E-20
1.97947E-03 8.70107E-20
2.05780E-03 8.05130E-20
2.13765E-03 7.46088E-20
2.21902E-03 6.92344E-20
2.30190E-03 6.43336E-20
2.38630E-03 5.98573E-20
2.47222E-03 5.57622E-20
2.55965E-03 5.20102E-20
2.64859E-03 4.85674E-20
2.73905E-03 4.54038E-20
2.83103E-03 4.24925E-20
2.92452E-03 3.98100E-20
3.01952E-03 3.73349E-20
3.11604E-03 3.50486E-20
3.21407E-03 3.29338E-20
3.31362E-03 3.09755E-20
3.41468E-03 2.91600E-20
3.51725E-03 2.74750E-20
3.62133E-03 2.59094E-20
3.72692E-03 2.44533E-20
3.83403E-03 2.30976E-20
3.94265E-03 2.18340E-20
4.05278E-03 2.06553E-20
4.16442E-03 1.95548E-20
4.27757E-03 1.85262E-20
4.39223E-03 1.75640E-20
4.50840E-03 1.66632E-20
4.62608E-03 1.58191E-20
4.74527E-03 1.50275E-20
4.86597E-03 1.42846E-20
4.98817E-03 1.35868E-20
5.11188E-03 1.29309E-20
5.23711E-03 1.23139E-20
5.36383E-03 1.17330E-20
5.49207E-03 1.11858E-20
5.62181E-03 1.06700E-20
5.75306E-03 1.01834E-20
5.88581E-03 9.72405E-21
6.02007E-03 9.29022E-21
6.15583E-03 8.88015E-21
6.29310E-03 8.49237E-21
6.43187E-03 8.12536E-21
6.57214E-03 7.77790E-21
6.71392E-03 7.44866E-21
6.85720E-03 7.13661E-21
7.00198E-03 6.84059E-21
7.14827E-03 6.55970E-21
7.29605E-03 6.29298E-21
7.44534E-03 6.03961E-21
7.59612E-03 5.79878E-21
7.97965E-03 5.24690E-21
8.37255E-03 4.75878E-21
8.77480E-03 4.32581E-21
9.18641E-03 3.94068E-21
9.60736E-03 3.59722E-21
1.00376E-02 3.29015E-21
1.04773E-02 3.01495E-21
1.09262E-02 2.76776E-21
1.13844E-02 2.54523E-21
1.18520E-02 2.34447E-21
1.23288E-02 2.16299E-21
1.28150E-02 1.99862E-21
1.33104E-02 1.84946E-21
1.38150E-02 1.71387E-21
1.43290E-02 1.59039E-21
1.48521E-02 1.47775E-21
1.53845E-02 1.37484E-21
1.59262E-02 1.28067E-21
1.64770E-02 1.19436E-21
1.70371E-02 1.11515E-21
1.76063E-02 1.04234E-21
1.81848E-02 9.75339E-22
1.87724E-02 9.13590E-22
1.93692E-02 8.56612E-22
1.99751E-02 8.03971E-22
2.05901E-02 7.55279E-22
2.12143E-02 7.10187E-22
2.18476E-02 6.68383E-22
2.24900E-02 6.29583E-22
2.31415E-02 5.93533E-22
2.38021E-02 5.60004E-22
2.44717E-02 5.28789E-22
2.51504E-02 4.99699E-22
2.58382E-02 4.72563E-22
2.65349E-02 4.47228E-22
2.72407E-02 4.23552E-22
2.79555E-02 4.01407E-22
2.86793E-02 3.80677E-22
2.94120E-02 3.61255E-22
3.01537E-02 3.43044E-22
3.09043E-02 3.25955E-22
3.16639E-02 3.09906E-22
3.24324E-02 2.94823E-22
3.32098E-02 2.80636E-22
3.39961E-02 2.67284E-22
3.47912E-02 2.54708E-22
3.55952E-02 2.42856E-22
3.64081E-02 2.31677E-22
3.72297E-02 2.21127E-22
3.80602E-02 2.11164E-22
3.88995E-02 2.01750E-22
3.97476E-02 1.92849E-22
4.06044E-02 1.84428E-22
4.14700E-02 1.76456E-22
4.23443E-02 1.68906E-22
4.32273E-02 1.61750E-22
4.41190E-02 1.54964E-22
4.50194E-02 1.48527E-22
4.59284E-02 1.42416E-22
4.68461E-02 1.36612E-22
4.87074E-02 1.25855E-22
5.06030E-02 1.16124E-22
5.25328E-02 1.07304E-22
5.44967E-02 9.92954E-23
5.64946E-02 9.20106E-23
5.85262E-02 8.53732E-23
6.05914E-02 7.93159E-23
6.26901E-02 7.37793E-23
6.48222E-02 6.87110E-23
6.69873E-02 6.40643E-23
6.91854E-02 5.97983E-23
7.14163E-02 5.58765E-23
7.36799E-02 5.22663E-23
7.59760E-02 4.89387E-23
7.83043E-02 4.58677E-23
8.06647E-02 4.30301E-23
8.30571E-02 4.04051E-23
8.54812E-02 3.79740E-23
8.79369E-02 3.57201E-23
9.04240E-02 3.36282E-23
9.29422E-02 3.16847E-23
9.54915E-02 2.98771E-23
9.80716E-02 2.81943E-23
1.00682E-01 2.66262E-23
1.03323E-01 2.51637E-23
1.05995E-01 2.37984E-23
1.08696E-01 2.25227E-23
1.11427E-01 2.13297E-23
1.14188E-01 2.02131E-23
1.16978E-01 1.91672E-23
1.19797E-01 1.81867E-23
1.22645E-01 1.72669E-23
1.25522E-01 1.64032E-23
1.28428E-01 1.55918E-23
1.31361E-01 1.48288E-23
1.34323E-01 1.41109E-23
1.37313E-01 1.34350E-23
1.40330E-01 1.27982E-23
1.43375E-01 1.21977E-23
1.46447E-01 1.16313E-23
1.49545E-01 1.10966E-23
1.52671E-01 1.05915E-23
1.55823E-01 1.01141E-23
1.59001E-01 9.66267E-24
1.62205E-01 9.23550E-24
1.65435E-01 8.83105E-24
1.68690E-01 8.44792E-24
1.71970E-01 8.08480E-24
1.75276E-01 7.74047E-24
1.78606E-01 7.41376E-24
1.81961E-01 7.10362E-24
1.85340E-01 6.80907E-24
1.88743E-01 6.52918E-24
1.92169E-01 6.26312E-24
1.95619E-01 6.01007E-24
1.99092E-01 5.76929E-24
2.02589E-01 5.54006E-24
2.06107E-01 5.32174E-24
2.09649E-01 5.11373E-24
2.13212E-01 4.91547E-24
2.16797E-01 4.72641E-24
2.20404E-01 4.54604E-24
2.24032E-01 4.37390E-24
2.27680E-01 4.20954E-24
2.31350E-01 4.05257E-24
2.35040E-01 3.90259E-24
2.38751E-01 3.75924E-24
2.42481E-01 3.62215E-24
2.46231E-01 3.49101E-24
2.50000E-01 3.36554E-24
2.53788E-01 3.24545E-24
2.57595E-01 3.13045E-24
2.61421E-01 3.02029E-24
2.65264E-01 2.91473E-24
2.69126E-01 2.81356E-24
2.73005E-01 2.71656E-24
2.76901E-01 2.62352E-24
2.80814E-01 2.53426E-24
2.84744E-01 2.44859E-24
2.88691E-01 2.36635E-24
2.92653E-01 2.28738E-24
2.96632E-01 2.21153E-24
3.00625E-01 2.13864E-24
3.04634E-01 2.06859E-24
3.08658E-01 2.00124E-24
3.12697E-01 1.93648E-24
3.16749E-01 1.87418E-24
3.20816E-01 1.81424E-24
3.24896E-01 1.75656E-24
3.28990E-01 1.70102E-24
3.33097E-01 1.64755E-24
3.37216E-01 1.59605E-24
3.41348E-01 1.54643E-24
3.45492E-01 1.49862E-24
3.49647E-01 1.45253E-24
3.53814E-01 1.40810E-24
3.57992E-01 1.36526E-24
3.62181E-01 1.32394E-24
3.66381E-01 1.28407E-24
3.70590E-01 1.24560E-24
3.74810E-01 1.20847E-24
3.79039E-01 1.17262E-24
3.83277E-01 1.13801E-24
3.87524E-01 1.10458E-24
3.91780E-01 1.07228E-24
3.96044E-01 1.04108E-24
4.00316E-01 1.01092E-24
4.04596E-01 9.81776E-25
4.08882E-01 9.53597E-25
4.13176E-01 9.26348E-25
4.17476E-01 8.99993E-25
4.21783E-01 8.74498E-25
4.26095E-01 8.49832E-25
4.30413E-01 8.25962E-25
4.34737E-01 8.02858E-25
4.39065E-01 7.80491E-25
4.43398E-01 7.58835E-25
4.47736E-01 7.37863E-25
4.52077E-01 7.17551E-25
4.56422E-01 6.97873E-25
4.60770E-01 6.78806E-25
4.65122E-01 6.60329E-25
4.69476E-01 6.42421E-25
4.73832E-01 6.25061E-25
4.78190E-01 6.08230E-25
4.82550E-01 5.91908E-25
4.86912E-01 5.76078E-25
4.91274E-01 5.60723E-25
4.95637E-01 5.45826E-25
5.00000E-01 5.31372E-25
5.04363E-01 5.17345E-25
5.08726E-01 5.03730E-25
5.13088E-01 4.90513E-25
5.17450E-01 4.77680E-25
5.21810E-01 4.65220E-25
5.26168E-01 4.53120E-25
5.30524E-01 4.41366E-25
5.34878E-01 4.29949E-25
5.39230E-01 4.18857E-25
5.43578E-01 4.08078E-25
5.47923E-01 3.97604E-25
5.52264E-01 3.87423E-25
5.56602E-01 3.77527E-25
5.60935E-01 3.67906E-25
5.65263E-01 3.58551E-25
5.69587E-01 3.49455E-25
5.73905E-01 3.40608E-25
5.78217E-01 3.32003E-25
5.82524E-01 3.23632E-25
5.86824E-01 3.15488E-25
5.91118E-01 3.07564E-25
5.95404E-01 2.99852E-25
5.99684E-01 2.92347E-25
6.03956E-01 2.85043E-25
6.08220E-01 2.77932E-25
6.12476E-01 2.71009E-25
6.16723E-01 2.64268E-25
6.20961E-01 2.57704E-25
6.25190E-01 2.51312E-25
6.29410E-01 2.45086E-25
6.33619E-01 2.39021E-25
6.37819E-01 2.33113E-25
6.42008E-01 2.27357E-25
6.46186E-01 2.21749E-25
6.50353E-01 2.16284E-25
6.54508E-01 2.10957E-25
6.58652E-01 2.05766E-25
6.62784E-01 2.00706E-25
6.66903E-01 1.95774E-25
6.71010E-01 1.90965E-25
6.75104E-01 1.86276E-25
6.79184E-01 1.81704E-25
6.83251E-01 1.77246E-25
6.87303E-01 1.72897E-25
6.91342E-01 1.68657E-25
6.95366E-01 1.64520E-25
6.99375E-01 1.60485E-25
7.03368E-01 1.56548E-25
7.07347E-01 1.52707E-25
7.11309E-01 1.48959E-25
7.15256E-01 1.45302E-25
7.19186E-01 1.41733E-25
7.23099E-01 1.38250E-25
7.26995E-01 1.34851E-25
7.30874E-01 1.31533E-25
7.34736E-01 1.28294E-25
7.38579E-01 1.25132E-25
7.42405E-01 1.22045E-25
7.46212E-01 1.19030E-25
7.50000E-01 1.16088E-25
7.53769E-01 1.13214E-25
7.57519E-01 1.10408E-25
7.61249E-01 1.07667E-25
7.64960E-01 1.04990E-25
7.68650E-01 1.02376E-25
7.72320E-01 9.98228E-26
7.75968E-01 9.73286E-26
7.79596E-01 9.48921E-26
7.83203E-01 9.25119E-26
7.86788E-01 9.01866E-26
7.90351E-01 8.79148E-26
7.93893E-01 8.56951E-26
7.97411E-01 8.35263E-26
8.00908E-01 8.14071E-26
8.04381E-01 7.93364E-26
8.07831E-01 7.73128E-26
8.11257E-01 7.53353E-26
8.14660E-01 7.34028E-26
8.18039E-01 7.15142E-26
8.21394E-01 6.96684E-26
8.24724E-01 6.78644E-26
8.28030E-01 6.61012E-26
8.31310E-01 6.43779E-26
8.34565E-01 6.26935E-26
8.37795E-01 6.10471E-26
8.40999E-01 5.94378E-26
8.44177E-01 5.78648E-26
8.47329E-01 5.63272E-26
8.50455E-01 5.48242E-26
8.53553E-01 5.33551E-26
8.56625E-01 5.19190E-26
8.59670E-01 5.05152E-26
8.62687E-01 4.91430E-26
8.65677E-01 4.78017E-26
8.68639E-01 4.64906E-26
8.71572E-01 4.52091E-26
8.74478E-01 4.39564E-26
8.77355E-01 4.27320E-26
8.80203E-01 4.15352E-26
8.83022E-01 4.03655E-26
8.85812E-01 3.92223E-26
8.88573E-01 3.81049E-26
8.91304E-01 3.70130E-26
8.94005E-01 3.59458E-26
8.96677E-01 3.49030E-26
8.99318E-01 3.38840E-26
9.01928E-01 3.28883E-26
9.04508E-01 3.19154E-26
9.07058E-01 3.09649E-26
9.09576E-01 3.00364E-26
9.12063E-01 2.91293E-26
9.14519E-01 2.82433E-26
9.16943E-01 2.73779E-26
9.19335E-01 2.65328E-26
9.21696E-01 2.57076E-26
9.24024E-01 2.49018E-26
9.26320E-01 2.41151E-26
9.28584E-01 2.33472E-26
9.30815E-01 2.25976E-26
9.33013E-01 2.18661E-26
9.35178E-01 2.11523E-26
9.37310E-01 2.04560E-26
9.39409E-01 1.97767E-26
9.41474E-01 1.91142E-26
9.43505E-01 1.84682E-26
9.45503E-01 1.78384E-26
9.47467E-01 1.72245E-26
9.49397E-01 1.66263E-26
9.51293E-01 1.60435E-26
9.53154E-01 1.54758E-26
9.54981E-01 1.49229E-26
9.56773E-01 1.43848E-26
9.58530E-01 1.38610E-26
9.60252E-01 1.33515E-26
9.61940E-01 1.28559E-26
9.63592E-01 1.23741E-26
9.65209E-01 1.19058E-26
9.66790E-01 1.14509E-26
9.68336E-01 1.10091E-26
9.69846E-01 1.05803E-26
9.71321E-01 1.01643E-26
9.72759E-01 9.76096E-27
9.74162E-01 9.37002E-27
9.75528E-01 8.99137E-27
9.76858E-01 8.62484E-27
9.78152E-01 8.27027E-27
9.79410E-01 7.92753E-27
9.80631E-01 7.59647E-27
9.81815E-01 7.27696E-27
9.82963E-01 6.96885E-27
9.84074E-01 6.67203E-27
9.85148E-01 6.38637E-27
9.86185E-01 6.11175E-27
9.87185E-01 5.84807E-27
9.88148E-01 5.59521E-27
9.89074E-01 5.35307E-27
9.89962E-01 5.12155E-27
9.90814E-01 4.90056E-27
9.91627E-01 4.69001E-27
9.92404E-01 4.48981E-27
9.93143E-01 4.29988E-27
9.93844E-01 4.12015E-27
9.94508E-01 3.95054E-27
9.95134E-01 3.79098E-27
9.95722E-01 3.64140E-27
9.96273E-01 3.50176E-27
9.96786E-01 3.37199E-27
9.97261E-01 3.25204E-27
9.97698E-01 3.14186E-27
9.98097E-01 3.04141E-27
9.98459E-01 2.95065E-27
9.98782E-01 2.86954E-27
9.99067E-01 2.79804E-27
9.99315E-01 2.73614E-27
9.99524E-01 2.68380E-27
9.99695E-01 2.64101E-27
9.99829E-01 2.60775E-27
9.99924E-01 2.58399E-27
9.99981E-01 2.56975E-27
1.00000E+00 2.56500E-27
