 #
 # Subroutine ELSEPA. Elastic scattering of electrons and positrons
 #                    by neutral atoms and positive ions
 #
 # Projectile: electron
 # Kinetic energy = 2.50000E+08 eV = 9.18733E+06 a.u.
 #
 # WARNING: High-energy factorization with free-atom DF screening.
 #          Absorption, polarization and exchange corrections are
 #          switched off.
 #          Phase shifts are calculated for the bare nucleus.
 #          Scattering amplitudes are not evaluated.
 #
 # Element: Se,  Z =  34,  atomic weight = 7.89600E+01 g/mol
 #
 # Nuclear model: Fermi distribution
 #                Average radius = 4.59042E-13 cm
 #                Skin thickness = 5.46000E-14 cm
 #
 # Number of electrons = 34
 #
 # Total elastic cross section = 2.60780E-18 cm**2 = 9.31261E-02 a0**2
 # 1st transport cross section = 3.73823E-26 cm**2 = 1.33495E-09 a0**2
 # 2nd transport cross section = 1.11959E-25 cm**2 = 3.99813E-09 a0**2
 #
 #
 # Differential cross section:                       MU=(1-COS(THETA))/2
 #
 #  THETA        MU          DCS          DCS        Sherman      error
 #  (deg)                 (cm**2/sr)   (a0**2/sr)    function
 #----------------------------------------------------------------------
0.00000E+00 1.23459E-09
7.61557E-13 1.22064E-09
1.18994E-12 1.21291E-09
1.71346E-12 1.20355E-09
2.33225E-12 1.19264E-09
3.04617E-12 1.18023E-09
3.85530E-12 1.16634E-09
4.75964E-12 1.15107E-09
5.75917E-12 1.13479E-09
6.85391E-12 1.11699E-09
8.04379E-12 1.09850E-09
9.32893E-12 1.07866E-09
1.07092E-11 1.05827E-09
1.21847E-11 1.03687E-09
1.37554E-11 1.01495E-09
1.54213E-11 9.92420E-10
1.71823E-11 9.69345E-10
1.90386E-11 9.46099E-10
2.09900E-11 9.22229E-10
2.30367E-11 8.98642E-10
2.51785E-11 8.74321E-10
2.74156E-11 8.50591E-10
2.97478E-11 8.26269E-10
3.21752E-11 8.02549E-10
3.46979E-11 7.78638E-10
3.73157E-11 7.55182E-10
4.00286E-11 7.31908E-10
4.28368E-11 7.08933E-10
4.57402E-11 6.86473E-10
4.87388E-11 6.64161E-10
5.18325E-11 6.42643E-10
5.50215E-11 6.21140E-10
5.83057E-11 6.00605E-10
6.16850E-11 5.80070E-10
6.51595E-11 5.60452E-10
6.87293E-11 5.41086E-10
7.23943E-11 5.22449E-10
7.61544E-11 5.04266E-10
1.18991E-10 3.52319E-10
1.71347E-10 2.47636E-10
2.33223E-10 1.77634E-10
3.04617E-10 1.30779E-10
3.85531E-10 9.86684E-11
4.75965E-10 7.62303E-11
5.75917E-10 6.08148E-11
6.85389E-10 4.87851E-11
8.04380E-10 4.01341E-11
9.32891E-10 3.30862E-11
1.07092E-09 2.77237E-11
1.21847E-09 2.32972E-11
1.37554E-09 1.97419E-11
1.54213E-09 1.68131E-11
1.71823E-09 1.43585E-11
1.90386E-09 1.23491E-11
2.09900E-09 1.06148E-11
2.30367E-09 9.20061E-12
2.51785E-09 7.95798E-12
2.74156E-09 6.93798E-12
2.97478E-09 6.04431E-12
3.21752E-09 5.29667E-12
3.46978E-09 4.64917E-12
3.73156E-09 4.09676E-12
4.00286E-09 3.62081E-12
4.28368E-09 3.20918E-12
4.57402E-09 2.85463E-12
4.87388E-09 2.54504E-12
5.18326E-09 2.27759E-12
5.50215E-09 2.04240E-12
5.83057E-09 1.83808E-12
6.16850E-09 1.65762E-12
6.51596E-09 1.49957E-12
6.87293E-09 1.35973E-12
7.23942E-09 1.23620E-12
7.61544E-09 1.12652E-12
1.18991E-08 4.97846E-13
1.71347E-08 2.56034E-13
2.33223E-08 1.45204E-13
3.04617E-08 8.81930E-14
3.85531E-08 5.63938E-14
4.75965E-08 3.76401E-14
5.75917E-08 2.60274E-14
6.85389E-08 1.85480E-14
8.04380E-08 1.35656E-14
9.32891E-08 1.01479E-14
1.07092E-07 7.74173E-15
1.21847E-07 6.00925E-15
1.37554E-07 4.73640E-15
1.54213E-07 3.78416E-15
1.71823E-07 3.06019E-15
1.90386E-07 2.50174E-15
2.09900E-07 2.06532E-15
2.30367E-07 1.72016E-15
2.51785E-07 1.44429E-15
2.74156E-07 1.22162E-15
2.97478E-07 1.04030E-15
3.21752E-07 8.91426E-16
3.46978E-07 7.68263E-16
3.73156E-07 6.65654E-16
4.00286E-07 5.79607E-16
4.28368E-07 5.07017E-16
4.57402E-07 4.45437E-16
4.87388E-07 3.92923E-16
5.18325E-07 3.47919E-16
5.50215E-07 3.09172E-16
5.83057E-07 2.75666E-16
6.16850E-07 2.46572E-16
6.51596E-07 2.21212E-16
6.87293E-07 1.99027E-16
7.23942E-07 1.79551E-16
7.61543E-07 1.62398E-16
1.18991E-06 6.69183E-17
1.71347E-06 3.23749E-17
2.33223E-06 1.75079E-17
3.04617E-06 1.02750E-17
3.85531E-06 6.41980E-18
4.75964E-06 4.21452E-18
5.75916E-06 2.87988E-18
6.85388E-06 2.03414E-18
8.04378E-06 1.47729E-18
9.32888E-06 1.09861E-18
1.07092E-05 8.33863E-19
1.21846E-05 6.44281E-19
1.37553E-05 5.05647E-19
1.54212E-05 4.02380E-19
1.71822E-05 3.24184E-19
1.90385E-05 2.64069E-19
2.09899E-05 2.17324E-19
2.30365E-05 1.80474E-19
2.51783E-05 1.51105E-19
2.74153E-05 1.27467E-19
2.97475E-05 1.08272E-19
3.21749E-05 9.25579E-20
3.46974E-05 7.95971E-20
3.73152E-05 6.88310E-20
4.00281E-05 5.98280E-20
4.28362E-05 5.22516E-20
4.57395E-05 4.58379E-20
4.87380E-05 4.03783E-20
5.18317E-05 3.57074E-20
5.50205E-05 3.16923E-20
5.83045E-05 2.82259E-20
6.16838E-05 2.52211E-20
6.51582E-05 2.26061E-20
6.87277E-05 2.03219E-20
7.23925E-05 1.83194E-20
7.61524E-05 1.65583E-20
9.21439E-05 1.13144E-20
1.09658E-04 7.99149E-21
1.28695E-04 5.80403E-21
1.49255E-04 4.31617E-21
1.71338E-04 3.27602E-21
1.94942E-04 2.53103E-21
2.20070E-04 1.98621E-21
2.46720E-04 1.58035E-21
2.74892E-04 1.27297E-21
3.04586E-04 1.03678E-21
3.35803E-04 8.52841E-22
3.68542E-04 7.07900E-22
4.02802E-04 5.92436E-22
4.38585E-04 4.99540E-22
4.75889E-04 4.24123E-22
5.14715E-04 3.62382E-22
5.55063E-04 3.11449E-22
5.96931E-04 2.69130E-22
6.40321E-04 2.33737E-22
6.85233E-04 2.03954E-22
7.31665E-04 1.78747E-22
7.79618E-04 1.57300E-22
8.29092E-04 1.38958E-22
8.80086E-04 1.23199E-22
9.32601E-04 1.09599E-22
9.86636E-04 9.78124E-23
1.04219E-03 8.75577E-23
1.09927E-03 7.86022E-23
1.15786E-03 7.07539E-23
1.21797E-03 6.38526E-23
1.27961E-03 5.77649E-23
1.34276E-03 5.23786E-23
1.40743E-03 4.75992E-23
1.47362E-03 4.33467E-23
1.54133E-03 3.95530E-23
1.61056E-03 3.61604E-23
1.68131E-03 3.31190E-23
1.75357E-03 3.03864E-23
1.82735E-03 2.79258E-23
1.90265E-03 2.57056E-23
1.97947E-03 2.36981E-23
2.05780E-03 2.18795E-23
2.13765E-03 2.02291E-23
2.21902E-03 1.87285E-23
2.30190E-03 1.73618E-23
2.38630E-03 1.61151E-23
2.47222E-03 1.49760E-23
2.55965E-03 1.39336E-23
2.64859E-03 1.29783E-23
2.73905E-03 1.21016E-23
2.83103E-03 1.12959E-23
2.92452E-03 1.05544E-23
3.01952E-03 9.87121E-24
3.11604E-03 9.24092E-24
3.21407E-03 8.65874E-24
3.31362E-03 8.12037E-24
3.41468E-03 7.62195E-24
3.51725E-03 7.16001E-24
3.62133E-03 6.73143E-24
3.72692E-03 6.33340E-24
3.83403E-03 5.96336E-24
3.94265E-03 5.61902E-24
4.05278E-03 5.29828E-24
4.16442E-03 4.99927E-24
4.27757E-03 4.72025E-24
4.39223E-03 4.45968E-24
4.50840E-03 4.21612E-24
4.62608E-03 3.98828E-24
4.74527E-03 3.77498E-24
4.86597E-03 3.57513E-24
4.98817E-03 3.38775E-24
5.11188E-03 3.21193E-24
5.23711E-03 3.04684E-24
5.36383E-03 2.89172E-24
5.49207E-03 2.74586E-24
5.62181E-03 2.60863E-24
5.75306E-03 2.47943E-24
5.88581E-03 2.35771E-24
6.02007E-03 2.24297E-24
6.15583E-03 2.13475E-24
6.29310E-03 2.03262E-24
6.43187E-03 1.93618E-24
6.57214E-03 1.84505E-24
6.71392E-03 1.75891E-24
6.85720E-03 1.67744E-24
7.00198E-03 1.60034E-24
7.14827E-03 1.52734E-24
7.29605E-03 1.45820E-24
7.44534E-03 1.39267E-24
7.59612E-03 1.33053E-24
7.97965E-03 1.18876E-24
8.37255E-03 1.06417E-24
8.77480E-03 9.54392E-25
9.18641E-03 8.57427E-25
9.60736E-03 7.71577E-25
1.00376E-02 6.95397E-25
1.04773E-02 6.27655E-25
1.09262E-02 5.67295E-25
1.13844E-02 5.13409E-25
1.18520E-02 4.65216E-25
1.23288E-02 4.22039E-25
1.28150E-02 3.83292E-25
1.33104E-02 3.48466E-25
1.38150E-02 3.17118E-25
1.43290E-02 2.88859E-25
1.48521E-02 2.63351E-25
1.53845E-02 2.40297E-25
1.59262E-02 2.19433E-25
1.64770E-02 2.00531E-25
1.70371E-02 1.83386E-25
1.76063E-02 1.67818E-25
1.81848E-02 1.53668E-25
1.87724E-02 1.40795E-25
1.93692E-02 1.29071E-25
1.99751E-02 1.18385E-25
2.05901E-02 1.08637E-25
2.12143E-02 9.97381E-26
2.18476E-02 9.16070E-26
2.24900E-02 8.41725E-26
2.31415E-02 7.73703E-26
2.38021E-02 7.11424E-26
2.44717E-02 6.54369E-26
2.51504E-02 6.02068E-26
2.58382E-02 5.54097E-26
2.65349E-02 5.10076E-26
2.72407E-02 4.69659E-26
2.79555E-02 4.32532E-26
2.86793E-02 3.98413E-26
2.94120E-02 3.67045E-26
3.01537E-02 3.38195E-26
3.09043E-02 3.11650E-26
3.16639E-02 2.87218E-26
3.24324E-02 2.64724E-26
3.32098E-02 2.44007E-26
3.39961E-02 2.24922E-26
3.47912E-02 2.07336E-26
3.55952E-02 1.91127E-26
3.64081E-02 1.76184E-26
3.72297E-02 1.62406E-26
3.80602E-02 1.49700E-26
3.88995E-02 1.37979E-26
3.97476E-02 1.27168E-26
4.06044E-02 1.17193E-26
4.14700E-02 1.07989E-26
4.23443E-02 9.94960E-27
4.32273E-02 9.16585E-27
4.41190E-02 8.44257E-27
4.50194E-02 7.77506E-27
4.59284E-02 7.15902E-27
4.68461E-02 6.59049E-27
4.87074E-02 5.58165E-27
5.06030E-02 4.72264E-27
5.25328E-02 3.99147E-27
5.44967E-02 3.36942E-27
5.64946E-02 2.84053E-27
5.85262E-02 2.39119E-27
6.05914E-02 2.00979E-27
6.26901E-02 1.68639E-27
6.48222E-02 1.41249E-27
6.69873E-02 1.18084E-27
6.91854E-02 9.85205E-28
7.14163E-02 8.20268E-28
7.36799E-02 6.81466E-28
7.59760E-02 5.64893E-28
7.83043E-02 4.67205E-28
8.06647E-02 3.85541E-28
8.30571E-02 3.17451E-28
8.54812E-02 2.60841E-28
8.79369E-02 2.13921E-28
9.04240E-02 1.75164E-28
9.29422E-02 1.43267E-28
9.54915E-02 1.17119E-28
9.80716E-02 9.57762E-29
1.00682E-01 7.84367E-29
1.03323E-01 6.44203E-29
1.05995E-01 5.31518E-29
1.08696E-01 4.41454E-29
1.11427E-01 3.69919E-29
1.14188E-01 3.13481E-29
1.16978E-01 2.69263E-29
1.19797E-01 2.34866E-29
1.22645E-01 2.08299E-29
1.25522E-01 1.87914E-29
1.28428E-01 1.72353E-29
1.31361E-01 1.60508E-29
1.34323E-01 1.51478E-29
1.37313E-01 1.44533E-29
1.40330E-01 1.39095E-29
1.43375E-01 1.34703E-29
1.46447E-01 1.30999E-29
1.49545E-01 1.27708E-29
1.52671E-01 1.24623E-29
1.55823E-01 1.21594E-29
1.59001E-01 1.18515E-29
1.62205E-01 1.15315E-29
1.65435E-01 1.11953E-29
1.68690E-01 1.08409E-29
1.71970E-01 1.04681E-29
1.75276E-01 1.00778E-29
1.78606E-01 9.67194E-30
1.81961E-01 9.25299E-30
1.85340E-01 8.82385E-30
1.88743E-01 8.38759E-30
1.92169E-01 7.94735E-30
1.95619E-01 7.50622E-30
1.99092E-01 7.06716E-30
2.02589E-01 6.63290E-30
2.06107E-01 6.20596E-30
2.09649E-01 5.78859E-30
2.13212E-01 5.38275E-30
2.16797E-01 4.99013E-30
2.20404E-01 4.61214E-30
2.24032E-01 4.24991E-30
2.27680E-01 3.90432E-30
2.31350E-01 3.57601E-30
2.35040E-01 3.26538E-30
2.38751E-01 2.97266E-30
2.42481E-01 2.69789E-30
2.46231E-01 2.44093E-30
2.50000E-01 2.20152E-30
2.53788E-01 1.97927E-30
2.57595E-01 1.77370E-30
2.61421E-01 1.58424E-30
2.65264E-01 1.41024E-30
2.69126E-01 1.25101E-30
2.73005E-01 1.10583E-30
2.76901E-01 9.73941E-31
2.80814E-01 8.54558E-31
2.84744E-01 7.46906E-31
2.88691E-01 6.50205E-31
2.92653E-01 5.63688E-31
2.96632E-01 4.86599E-31
3.00625E-01 4.18207E-31
3.04634E-01 3.57801E-31
3.08658E-01 3.04703E-31
3.12697E-01 2.58262E-31
3.16749E-01 2.17863E-31
3.20816E-01 1.82922E-31
3.24896E-01 1.52894E-31
3.28990E-01 1.27264E-31
3.33097E-01 1.05557E-31
3.37216E-01 8.73289E-32
3.41348E-01 7.21726E-32
3.45492E-01 5.97121E-32
3.49647E-01 4.96040E-32
3.53814E-01 4.15350E-32
3.57992E-01 3.52212E-32
3.62181E-01 3.04061E-32
3.66381E-01 2.68592E-32
3.70590E-01 2.43743E-32
3.74810E-01 2.27679E-32
3.79039E-01 2.18778E-32
3.83277E-01 2.15610E-32
3.87524E-01 2.16927E-32
3.91780E-01 2.21645E-32
3.96044E-01 2.28828E-32
4.00316E-01 2.37679E-32
4.04596E-01 2.47522E-32
4.08882E-01 2.57793E-32
4.13176E-01 2.68026E-32
4.17476E-01 2.77842E-32
4.21783E-01 2.86942E-32
4.26095E-01 2.95093E-32
4.30413E-01 3.02123E-32
4.34737E-01 3.07912E-32
4.39065E-01 3.12384E-32
4.43398E-01 3.15499E-32
4.47736E-01 3.17252E-32
4.52077E-01 3.17661E-32
4.56422E-01 3.16770E-32
4.60770E-01 3.14635E-32
4.65122E-01 3.11330E-32
4.69476E-01 3.06937E-32
4.73832E-01 3.01546E-32
4.78190E-01 2.95251E-32
4.82550E-01 2.88149E-32
4.86912E-01 2.80338E-32
4.91274E-01 2.71916E-32
4.95637E-01 2.62977E-32
5.00000E-01 2.53613E-32
5.04363E-01 2.43912E-32
5.08726E-01 2.33958E-32
5.13088E-01 2.23828E-32
5.17450E-01 2.13595E-32
5.21810E-01 2.03326E-32
5.26168E-01 1.93083E-32
5.30524E-01 1.82921E-32
5.34878E-01 1.72889E-32
5.39230E-01 1.63033E-32
5.43578E-01 1.53389E-32
5.47923E-01 1.43993E-32
5.52264E-01 1.34872E-32
5.56602E-01 1.26050E-32
5.60935E-01 1.17547E-32
5.65263E-01 1.09378E-32
5.69587E-01 1.01554E-32
5.73905E-01 9.40830E-33
5.78217E-01 8.69707E-33
5.82524E-01 8.02188E-33
5.86824E-01 7.38266E-33
5.91118E-01 6.77914E-33
5.95404E-01 6.21083E-33
5.99684E-01 5.67708E-33
6.03956E-01 5.17707E-33
6.08220E-01 4.70988E-33
6.12476E-01 4.27445E-33
6.16723E-01 3.86967E-33
6.20961E-01 3.49432E-33
6.25190E-01 3.14717E-33
6.29410E-01 2.82692E-33
6.33619E-01 2.53226E-33
6.37819E-01 2.26186E-33
6.42008E-01 2.01441E-33
6.46186E-01 1.78858E-33
6.50353E-01 1.58308E-33
6.54508E-01 1.39662E-33
6.58652E-01 1.22797E-33
6.62784E-01 1.07591E-33
6.66903E-01 9.39265E-34
6.71010E-01 8.16913E-34
6.75104E-01 7.07766E-34
6.79184E-01 6.10790E-34
6.83251E-01 5.24997E-34
6.87303E-01 4.49451E-34
6.91342E-01 3.83263E-34
6.95366E-01 3.25597E-34
6.99375E-01 2.75665E-34
7.03368E-01 2.32729E-34
7.07347E-01 1.96099E-34
7.11309E-01 1.65132E-34
7.15256E-01 1.39229E-34
7.19186E-01 1.17836E-34
7.23099E-01 1.00441E-34
7.26995E-01 8.65720E-35
7.30874E-01 7.57966E-35
7.34736E-01 6.77177E-35
7.38579E-01 6.19731E-35
7.42405E-01 5.82337E-35
7.46212E-01 5.62009E-35
7.50000E-01 5.56050E-35
7.53769E-01 5.62034E-35
7.57519E-01 5.77787E-35
7.61249E-01 6.01367E-35
7.64960E-01 6.31053E-35
7.68650E-01 6.65321E-35
7.72320E-01 7.02831E-35
7.75968E-01 7.42417E-35
7.79596E-01 7.83064E-35
7.83203E-01 8.23901E-35
7.86788E-01 8.64184E-35
7.90351E-01 9.03288E-35
7.93893E-01 9.40692E-35
7.97411E-01 9.75969E-35
8.00908E-01 1.00878E-34
8.04381E-01 1.03886E-34
8.07831E-01 1.06600E-34
8.11257E-01 1.09008E-34
8.14660E-01 1.11100E-34
8.18039E-01 1.12872E-34
8.21394E-01 1.14324E-34
8.24724E-01 1.15460E-34
8.28030E-01 1.16284E-34
8.31310E-01 1.16807E-34
8.34565E-01 1.17037E-34
8.37795E-01 1.16988E-34
8.40999E-01 1.16672E-34
8.44177E-01 1.16104E-34
8.47329E-01 1.15300E-34
8.50455E-01 1.14274E-34
8.53553E-01 1.13042E-34
8.56625E-01 1.11621E-34
8.59670E-01 1.10026E-34
8.62687E-01 1.08273E-34
8.65677E-01 1.06378E-34
8.68639E-01 1.04356E-34
8.71572E-01 1.02221E-34
8.74478E-01 9.99870E-35
8.77355E-01 9.76684E-35
8.80203E-01 9.52776E-35
8.83022E-01 9.28269E-35
8.85812E-01 9.03280E-35
8.88573E-01 8.77917E-35
8.91304E-01 8.52284E-35
8.94005E-01 8.26473E-35
8.96677E-01 8.00575E-35
8.99318E-01 7.74672E-35
9.01928E-01 7.48839E-35
9.04508E-01 7.23145E-35
9.07058E-01 6.97655E-35
9.09576E-01 6.72424E-35
9.12063E-01 6.47505E-35
9.14519E-01 6.22943E-35
9.16943E-01 5.98781E-35
9.19335E-01 5.75053E-35
9.21696E-01 5.51791E-35
9.24024E-01 5.29024E-35
9.26320E-01 5.06774E-35
9.28584E-01 4.85061E-35
9.30815E-01 4.63901E-35
9.33013E-01 4.43307E-35
9.35178E-01 4.23288E-35
9.37310E-01 4.03852E-35
9.39409E-01 3.85003E-35
9.41474E-01 3.66743E-35
9.43505E-01 3.49072E-35
9.45503E-01 3.31988E-35
9.47467E-01 3.15489E-35
9.49397E-01 2.99567E-35
9.51293E-01 2.84218E-35
9.53154E-01 2.69434E-35
9.54981E-01 2.55205E-35
9.56773E-01 2.41521E-35
9.58530E-01 2.28373E-35
9.60252E-01 2.15749E-35
9.61940E-01 2.03637E-35
9.63592E-01 1.92025E-35
9.65209E-01 1.80901E-35
9.66790E-01 1.70250E-35
9.68336E-01 1.60062E-35
9.69846E-01 1.50321E-35
9.71321E-01 1.41014E-35
9.72759E-01 1.32129E-35
9.74162E-01 1.23652E-35
9.75528E-01 1.15570E-35
9.76858E-01 1.07869E-35
9.78152E-01 1.00538E-35
9.79410E-01 9.35621E-36
9.80631E-01 8.69304E-36
9.81815E-01 8.06302E-36
9.82963E-01 7.46498E-36
9.84074E-01 6.89782E-36
9.85148E-01 6.36023E-36
9.86185E-01 5.85129E-36
9.87185E-01 5.36994E-36
9.88148E-01 4.91513E-36
9.89074E-01 4.48582E-36
9.89962E-01 4.08118E-36
9.90814E-01 3.70025E-36
9.91627E-01 3.34218E-36
9.92404E-01 3.00617E-36
9.93143E-01 2.69142E-36
9.93844E-01 2.39719E-36
9.94508E-01 2.12277E-36
9.95134E-01 1.86752E-36
9.95722E-01 1.63083E-36
9.96273E-01 1.41210E-36
9.96786E-01 1.21073E-36
9.97261E-01 1.02633E-36
9.97698E-01 8.58339E-37
9.98097E-01 7.06405E-37
9.98459E-01 5.70090E-37
9.98782E-01 4.49031E-37
9.99067E-01 3.42979E-37
9.99315E-01 2.51619E-37
9.99524E-01 1.74719E-37
9.99695E-01 1.12057E-37
9.99829E-01 6.34980E-38
9.99924E-01 2.89116E-38
9.99981E-01 8.18008E-39
1.00000E+00 1.25641E-39
