 #
 # Subroutine ELSEPA. Elastic scattering of electrons and positrons
 #                    by neutral atoms and positive ions
 #
 # Projectile: electron
 # Kinetic energy = 8.00000E+08 eV = 2.93995E+07 a.u.
 #
 # WARNING: High-energy factorization with free-atom DF screening.
 #          Absorption, polarization and exchange corrections are
 #          switched off.
 #          Phase shifts are calculated for the bare nucleus.
 #          Scattering amplitudes are not evaluated.
 #
 # Element: Se,  Z =  34,  atomic weight = 7.89600E+01 g/mol
 #
 # Nuclear model: Fermi distribution
 #                Average radius = 4.59042E-13 cm
 #                Skin thickness = 5.46000E-14 cm
 #
 # Number of electrons = 34
 #
 # Total elastic cross section = 2.60200E-18 cm**2 = 9.29191E-02 a0**2
 # 1st transport cross section = 3.65657E-27 cm**2 = 1.30578E-10 a0**2
 # 2nd transport cross section = 1.09678E-26 cm**2 = 3.91668E-10 a0**2
 #
 #
 # Differential cross section:                       MU=(1-COS(THETA))/2
 #
 #  THETA        MU          DCS          DCS        Sherman      error
 #  (deg)                 (cm**2/sr)   (a0**2/sr)    function
 #----------------------------------------------------------------------
0.00000E+00 1.26068E-08
7.61557E-13 1.12587E-08
1.18994E-12 1.05927E-08
1.71346E-12 9.85767E-09
2.33225E-12 9.08405E-09
3.04617E-12 8.29968E-09
3.85530E-12 7.53151E-09
4.75964E-12 6.79194E-09
5.75917E-12 6.10111E-09
6.85391E-12 5.45820E-09
8.04379E-12 4.87561E-09
9.32893E-12 4.34652E-09
1.07092E-11 3.87520E-09
1.21847E-11 3.45478E-09
1.37554E-11 3.08347E-09
1.54213E-11 2.75574E-09
1.71823E-11 2.46745E-09
1.90386E-11 2.21427E-09
2.09900E-11 1.99169E-09
2.30367E-11 1.79644E-09
2.51785E-11 1.62447E-09
2.74156E-11 1.47337E-09
2.97478E-11 1.33979E-09
3.21752E-11 1.22196E-09
3.46979E-11 1.11740E-09
3.73157E-11 1.02232E-09
4.00286E-11 9.37127E-10
4.28368E-11 8.62292E-10
4.57402E-11 7.96301E-10
4.87388E-11 7.37893E-10
5.18325E-11 6.86014E-10
5.50215E-11 6.39776E-10
5.83057E-11 5.95042E-10
6.16850E-11 5.53845E-10
6.51595E-11 5.16923E-10
6.87293E-11 4.83735E-10
7.23943E-11 4.53820E-10
7.61544E-11 4.26782E-10
1.18991E-10 2.38816E-10
1.71347E-10 1.42835E-10
2.33223E-10 8.89696E-11
3.04617E-10 5.72431E-11
3.85531E-10 3.80877E-11
4.75965E-10 2.61192E-11
5.75917E-10 1.84757E-11
6.85389E-10 1.34294E-11
8.04380E-10 1.00138E-11
9.32891E-10 7.63244E-12
1.07092E-09 5.93055E-12
1.21847E-09 4.68598E-12
1.37554E-09 3.75724E-12
1.54213E-09 3.05038E-12
1.71823E-09 2.50347E-12
1.90386E-09 2.07424E-12
2.09900E-09 1.73304E-12
2.30367E-09 1.45917E-12
2.51785E-09 1.23691E-12
2.74156E-09 1.05524E-12
2.97478E-09 9.05259E-13
3.21752E-09 7.80794E-13
3.46978E-09 6.76672E-13
3.73156E-09 5.88876E-13
4.00286E-09 5.14838E-13
4.28368E-09 4.52331E-13
4.57402E-09 3.98581E-13
4.87388E-09 3.52611E-13
5.18326E-09 3.13159E-13
5.50215E-09 2.78829E-13
5.83057E-09 2.49144E-13
6.16850E-09 2.23296E-13
6.51596E-09 2.00648E-13
6.87293E-09 1.80836E-13
7.23942E-09 1.63379E-13
7.61544E-09 1.47969E-13
1.18991E-08 6.16916E-14
1.71347E-08 3.01499E-14
2.33223E-08 1.64504E-14
3.04617E-08 9.72705E-15
3.85531E-08 6.11439E-15
4.75965E-08 4.03332E-15
5.75917E-08 2.76651E-15
6.85389E-08 1.95985E-15
8.04380E-08 1.42665E-15
9.32891E-08 1.06290E-15
1.07092E-07 8.07924E-16
1.21847E-07 6.24957E-16
1.37554E-07 4.90932E-16
1.54213E-07 3.90956E-16
1.71823E-07 3.15164E-16
1.90386E-07 2.56869E-16
2.09900E-07 2.11442E-16
2.30367E-07 1.75622E-16
2.51785E-07 1.47073E-16
2.74156E-07 1.24093E-16
2.97478E-07 1.05429E-16
3.21752E-07 9.01451E-17
3.46978E-07 7.75318E-17
3.73156E-07 6.70487E-17
4.00286E-07 5.82786E-17
4.28368E-07 5.08963E-17
4.57402E-07 4.46465E-17
4.87388E-07 3.93270E-17
5.18325E-07 3.47765E-17
5.50215E-07 3.08655E-17
5.83057E-07 2.74890E-17
6.16850E-07 2.45618E-17
6.51596E-07 2.20140E-17
6.87293E-07 1.97882E-17
7.23942E-07 1.78366E-17
7.61543E-07 1.61198E-17
1.18991E-06 6.60585E-18
1.71347E-06 3.18667E-18
2.33223E-06 1.72049E-18
3.04617E-06 1.00872E-18
3.85531E-06 6.29850E-19
4.75964E-06 4.13313E-19
5.75916E-06 2.82343E-19
6.85388E-06 1.99384E-19
8.04378E-06 1.44779E-19
9.32888E-06 1.07654E-19
1.07092E-05 8.17038E-20
1.21846E-05 6.31233E-20
1.37553E-05 4.95377E-20
1.54212E-05 3.94189E-20
1.71822E-05 3.17572E-20
1.90385E-05 2.58675E-20
2.09899E-05 2.12878E-20
2.30365E-05 1.76778E-20
2.51783E-05 1.48007E-20
2.74153E-05 1.24851E-20
2.97475E-05 1.06048E-20
3.21749E-05 9.06554E-21
3.46974E-05 7.79599E-21
3.73152E-05 6.74145E-21
4.00281E-05 5.85962E-21
4.28362E-05 5.11753E-21
4.57395E-05 4.48933E-21
4.87380E-05 3.95460E-21
5.18317E-05 3.49711E-21
5.50205E-05 3.10386E-21
5.83045E-05 2.76436E-21
6.16838E-05 2.47006E-21
6.51582E-05 2.21394E-21
6.87277E-05 1.99023E-21
7.23925E-05 1.79411E-21
7.61524E-05 1.59772E-21
9.21439E-05 1.08706E-21
1.09658E-04 7.64093E-22
1.28695E-04 5.51948E-22
1.49255E-04 4.08006E-22
1.71338E-04 3.07656E-22
1.94942E-04 2.36004E-22
2.20070E-04 1.83781E-22
2.46720E-04 1.45022E-22
2.74892E-04 1.15785E-22
3.04586E-04 9.34166E-23
3.35803E-04 7.60785E-23
3.68542E-04 6.24842E-23
4.02802E-04 5.17123E-23
4.38585E-04 4.30950E-23
4.75889E-04 3.61413E-23
5.14715E-04 3.04848E-23
5.55063E-04 2.58499E-23
5.96931E-04 2.20262E-23
6.40321E-04 1.88521E-23
6.85233E-04 1.62020E-23
7.31665E-04 1.39775E-23
7.79618E-04 1.21010E-23
8.29092E-04 1.05106E-23
8.80086E-04 9.15694E-24
9.32601E-04 8.00010E-24
9.86636E-04 7.00771E-24
1.04219E-03 6.15341E-24
1.09927E-03 5.41553E-24
1.15786E-03 4.77622E-24
1.21797E-03 4.22070E-24
1.27961E-03 3.73667E-24
1.34276E-03 3.31383E-24
1.40743E-03 2.94354E-24
1.47362E-03 2.61855E-24
1.54133E-03 2.33268E-24
1.61056E-03 2.08073E-24
1.68131E-03 1.85823E-24
1.75357E-03 1.66140E-24
1.82735E-03 1.48698E-24
1.90265E-03 1.33216E-24
1.97947E-03 1.19455E-24
2.05780E-03 1.07204E-24
2.13765E-03 9.62844E-25
2.21902E-03 8.65385E-25
2.30190E-03 7.78300E-25
2.38630E-03 7.00398E-25
2.47222E-03 6.30637E-25
2.55965E-03 5.68106E-25
2.64859E-03 5.12004E-25
2.73905E-03 4.61627E-25
2.83103E-03 4.16354E-25
2.92452E-03 3.75638E-25
3.01952E-03 3.38995E-25
3.11604E-03 3.05997E-25
3.21407E-03 2.76262E-25
3.31362E-03 2.49454E-25
3.41468E-03 2.25273E-25
3.51725E-03 2.03451E-25
3.62133E-03 1.83751E-25
3.72692E-03 1.65958E-25
3.83403E-03 1.49884E-25
3.94265E-03 1.35359E-25
4.05278E-03 1.22229E-25
4.16442E-03 1.10358E-25
4.27757E-03 9.96242E-26
4.39223E-03 8.99168E-26
4.50840E-03 8.11369E-26
4.62608E-03 7.31955E-26
4.74527E-03 6.60123E-26
4.86597E-03 5.95149E-26
4.98817E-03 5.36383E-26
5.11188E-03 4.83234E-26
5.23711E-03 4.35173E-26
5.36383E-03 3.91717E-26
5.49207E-03 3.52434E-26
5.62181E-03 3.16931E-26
5.75306E-03 2.84852E-26
5.88581E-03 2.55875E-26
6.02007E-03 2.29708E-26
6.15583E-03 2.06089E-26
6.29310E-03 1.84777E-26
6.43187E-03 1.65556E-26
6.57214E-03 1.48228E-26
6.71392E-03 1.32615E-26
6.85720E-03 1.18555E-26
7.00198E-03 1.05901E-26
7.14827E-03 9.45200E-27
7.29605E-03 8.42903E-27
7.44534E-03 7.51023E-27
7.59612E-03 6.68561E-27
7.97965E-03 4.97872E-27
8.37255E-03 3.68601E-27
8.77480E-03 2.71321E-27
9.18641E-03 1.98648E-27
9.60736E-03 1.44807E-27
1.00376E-02 1.05293E-27
1.04773E-02 7.66027E-28
1.09262E-02 5.60228E-28
1.13844E-02 4.14607E-28
1.18520E-02 3.13127E-28
1.23288E-02 2.43578E-28
1.28150E-02 1.96738E-28
1.33104E-02 1.65714E-28
1.38150E-02 1.45412E-28
1.43290E-02 1.32124E-28
1.48521E-02 1.23199E-28
1.53845E-02 1.16789E-28
1.59262E-02 1.11641E-28
1.64770E-02 1.06949E-28
1.70371E-02 1.02225E-28
1.76063E-02 9.72101E-29
1.81848E-02 9.18031E-29
1.87724E-02 8.60057E-29
1.93692E-02 7.98842E-29
1.99751E-02 7.35405E-29
2.05901E-02 6.70914E-29
2.12143E-02 6.06545E-29
2.18476E-02 5.43395E-29
2.24900E-02 4.82422E-29
2.31415E-02 4.24414E-29
2.38021E-02 3.69983E-29
2.44717E-02 3.19569E-29
2.51504E-02 2.73446E-29
2.58382E-02 2.31746E-29
2.65349E-02 1.94476E-29
2.72407E-02 1.61539E-29
2.79555E-02 1.32756E-29
2.86793E-02 1.07888E-29
2.94120E-02 8.66489E-30
3.01537E-02 6.87262E-30
3.09043E-02 5.37916E-30
3.16639E-02 4.15138E-30
3.24324E-02 3.15675E-30
3.32098E-02 2.36400E-30
3.39961E-02 1.74373E-30
3.47912E-02 1.26873E-30
3.55952E-02 9.14274E-31
3.64081E-02 6.58171E-31
3.72297E-02 4.80846E-31
3.80602E-02 3.65265E-31
3.88995E-02 2.96833E-31
3.97476E-02 2.63238E-31
4.06044E-02 2.54270E-31
4.14700E-02 2.61623E-31
4.23443E-02 2.78682E-31
4.32273E-02 3.00319E-31
4.41190E-02 3.22681E-31
4.50194E-02 3.43002E-31
4.59284E-02 3.59417E-31
4.68461E-02 3.70797E-31
4.87074E-02 3.76735E-31
5.06030E-02 3.61249E-31
5.25328E-02 3.28746E-31
5.44967E-02 2.85186E-31
5.64946E-02 2.36511E-31
5.85262E-02 1.87749E-31
6.05914E-02 1.42615E-31
6.26901E-02 1.03457E-31
6.48222E-02 7.13982E-32
6.69873E-02 4.65921E-32
6.91854E-02 2.85053E-32
7.14163E-02 1.61869E-32
7.36799E-02 8.49500E-33
7.59760E-02 4.26824E-33
7.83043E-02 2.44381E-33
8.06647E-02 2.12552E-33
8.30571E-02 2.61247E-33
8.54812E-02 3.39847E-33
8.79369E-02 4.15212E-33
9.04240E-02 4.68630E-33
9.29422E-02 4.92373E-33
9.54915E-02 4.86359E-33
9.80716E-02 4.55206E-33
1.00682E-01 4.05861E-33
1.03323E-01 3.45839E-33
1.05995E-01 2.82042E-33
1.08696E-01 2.20078E-33
1.11427E-01 1.63980E-33
1.14188E-01 1.16201E-33
1.16978E-01 7.78083E-34
1.19797E-01 4.87622E-34
1.22645E-01 2.82413E-34
1.25522E-01 1.49458E-34
1.28428E-01 7.36088E-35
1.31361E-01 3.96195E-35
1.34323E-01 3.35840E-35
1.37313E-01 4.38052E-35
1.40330E-01 6.11821E-35
1.43375E-01 7.92265E-35
1.46447E-01 9.38227E-35
1.49545E-01 1.02834E-34
1.52671E-01 1.05645E-34
1.55823E-01 1.02697E-34
1.59001E-01 9.50814E-35
1.62205E-01 8.41863E-35
1.65435E-01 7.14426E-35
1.68690E-01 5.81415E-35
1.71970E-01 4.53294E-35
1.75276E-01 3.37630E-35
1.78606E-01 2.39088E-35
1.81961E-01 1.59749E-35
1.85340E-01 9.95971E-36
1.88743E-01 5.70821E-36
1.92169E-01 2.96746E-36
1.95619E-01 1.43578E-36
1.99092E-01 8.02726E-37
2.02589E-01 7.78572E-37
2.06107E-01 1.11351E-36
2.09649E-01 1.60773E-36
2.13212E-01 2.11406E-36
2.16797E-01 2.53510E-36
2.20404E-01 2.81661E-36
2.24032E-01 2.93906E-36
2.27680E-01 2.90845E-36
2.31350E-01 2.74754E-36
2.35040E-01 2.48832E-36
2.38751E-01 2.16573E-36
2.42481E-01 1.81321E-36
2.46231E-01 1.45959E-36
2.50000E-01 1.12750E-36
2.53788E-01 8.32755E-37
2.57595E-01 5.84635E-37
2.61421E-01 3.86690E-37
2.65264E-01 2.37868E-37
2.69126E-01 1.33755E-37
2.73005E-01 6.77956E-38
2.76901E-01 3.23794E-38
2.80814E-01 1.97255E-38
2.84744E-01 2.25598E-38
2.88691E-01 3.45570E-38
2.92653E-01 5.05892E-38
2.96632E-01 6.68045E-38
3.00625E-01 8.05749E-38
3.04634E-01 9.03581E-38
3.08658E-01 9.55069E-38
3.12697E-01 9.60591E-38
3.16749E-01 9.25293E-38
3.20816E-01 8.57252E-38
3.24896E-01 7.65870E-38
3.28990E-01 6.60664E-38
3.33097E-01 5.50349E-38
3.37216E-01 4.42276E-38
3.41348E-01 3.42105E-38
3.45492E-01 2.53739E-38
3.49647E-01 1.79398E-38
3.53814E-01 1.19852E-38
3.57992E-01 1.00000E-45
3.62181E-01 1.00000E-45
3.66381E-01 1.00000E-45
3.70590E-01 1.00000E-45
3.74810E-01 1.00000E-45
3.79039E-01 1.00000E-45
3.83277E-01 1.00000E-45
3.87524E-01 1.00000E-45
3.91780E-01 1.00000E-45
3.96044E-01 1.00000E-45
4.00316E-01 1.00000E-45
4.04596E-01 1.00000E-45
4.08882E-01 1.00000E-45
4.13176E-01 1.00000E-45
4.17476E-01 1.00000E-45
4.21783E-01 1.00000E-45
4.26095E-01 1.00000E-45
4.30413E-01 1.00000E-45
4.34737E-01 1.00000E-45
4.39065E-01 1.00000E-45
4.43398E-01 1.00000E-45
4.47736E-01 1.00000E-45
4.52077E-01 1.00000E-45
4.56422E-01 1.00000E-45
4.60770E-01 1.00000E-45
4.65122E-01 1.00000E-45
4.69476E-01 1.00000E-45
4.73832E-01 1.00000E-45
4.78190E-01 1.00000E-45
4.82550E-01 1.00000E-45
4.86912E-01 1.00000E-45
4.91274E-01 1.00000E-45
4.95637E-01 1.00000E-45
5.00000E-01 1.00000E-45
5.04363E-01 1.00000E-45
5.08726E-01 1.00000E-45
5.13088E-01 1.00000E-45
5.17450E-01 1.00000E-45
5.21810E-01 1.00000E-45
5.26168E-01 1.00000E-45
5.30524E-01 1.00000E-45
5.34878E-01 1.00000E-45
5.39230E-01 1.00000E-45
5.43578E-01 1.00000E-45
5.47923E-01 1.00000E-45
5.52264E-01 1.00000E-45
5.56602E-01 1.00000E-45
5.60935E-01 1.00000E-45
5.65263E-01 1.00000E-45
5.69587E-01 1.00000E-45
5.73905E-01 1.00000E-45
5.78217E-01 1.00000E-45
5.82524E-01 1.00000E-45
5.86824E-01 1.00000E-45
5.91118E-01 1.00000E-45
5.95404E-01 1.00000E-45
5.99684E-01 1.00000E-45
6.03956E-01 1.00000E-45
6.08220E-01 1.00000E-45
6.12476E-01 1.00000E-45
6.16723E-01 1.00000E-45
6.20961E-01 1.00000E-45
6.25190E-01 1.00000E-45
6.29410E-01 1.00000E-45
6.33619E-01 1.00000E-45
6.37819E-01 1.00000E-45
6.42008E-01 1.00000E-45
6.46186E-01 1.00000E-45
6.50353E-01 1.00000E-45
6.54508E-01 1.00000E-45
6.58652E-01 1.00000E-45
6.62784E-01 1.00000E-45
6.66903E-01 1.00000E-45
6.71010E-01 1.00000E-45
6.75104E-01 1.00000E-45
6.79184E-01 1.00000E-45
6.83251E-01 1.00000E-45
6.87303E-01 1.00000E-45
6.91342E-01 1.00000E-45
6.95366E-01 1.00000E-45
6.99375E-01 1.00000E-45
7.03368E-01 1.00000E-45
7.07347E-01 1.00000E-45
7.11309E-01 1.00000E-45
7.15256E-01 1.00000E-45
7.19186E-01 1.00000E-45
7.23099E-01 1.00000E-45
7.26995E-01 1.00000E-45
7.30874E-01 1.00000E-45
7.34736E-01 1.00000E-45
7.38579E-01 1.00000E-45
7.42405E-01 1.00000E-45
7.46212E-01 1.00000E-45
7.50000E-01 1.00000E-45
7.53769E-01 1.00000E-45
7.57519E-01 1.00000E-45
7.61249E-01 1.00000E-45
7.64960E-01 1.00000E-45
7.68650E-01 1.00000E-45
7.72320E-01 1.00000E-45
7.75968E-01 1.00000E-45
7.79596E-01 1.00000E-45
7.83203E-01 1.00000E-45
7.86788E-01 1.00000E-45
7.90351E-01 1.00000E-45
7.93893E-01 1.00000E-45
7.97411E-01 1.00000E-45
8.00908E-01 1.00000E-45
8.04381E-01 1.00000E-45
8.07831E-01 1.00000E-45
8.11257E-01 1.00000E-45
8.14660E-01 1.00000E-45
8.18039E-01 1.00000E-45
8.21394E-01 1.00000E-45
8.24724E-01 1.00000E-45
8.28030E-01 1.00000E-45
8.31310E-01 1.00000E-45
8.34565E-01 1.00000E-45
8.37795E-01 1.00000E-45
8.40999E-01 1.00000E-45
8.44177E-01 1.00000E-45
8.47329E-01 1.00000E-45
8.50455E-01 1.00000E-45
8.53553E-01 1.00000E-45
8.56625E-01 1.00000E-45
8.59670E-01 1.00000E-45
8.62687E-01 1.00000E-45
8.65677E-01 1.00000E-45
8.68639E-01 1.00000E-45
8.71572E-01 1.00000E-45
8.74478E-01 1.00000E-45
8.77355E-01 1.00000E-45
8.80203E-01 1.00000E-45
8.83022E-01 1.00000E-45
8.85812E-01 1.00000E-45
8.88573E-01 1.00000E-45
8.91304E-01 1.00000E-45
8.94005E-01 1.00000E-45
8.96677E-01 1.00000E-45
8.99318E-01 1.00000E-45
9.01928E-01 1.00000E-45
9.04508E-01 1.00000E-45
9.07058E-01 1.00000E-45
9.09576E-01 1.00000E-45
9.12063E-01 1.00000E-45
9.14519E-01 1.00000E-45
9.16943E-01 1.00000E-45
9.19335E-01 1.00000E-45
9.21696E-01 1.00000E-45
9.24024E-01 1.00000E-45
9.26320E-01 1.00000E-45
9.28584E-01 1.00000E-45
9.30815E-01 1.00000E-45
9.33013E-01 1.00000E-45
9.35178E-01 1.00000E-45
9.37310E-01 1.00000E-45
9.39409E-01 1.00000E-45
9.41474E-01 1.00000E-45
9.43505E-01 1.00000E-45
9.45503E-01 1.00000E-45
9.47467E-01 1.00000E-45
9.49397E-01 1.00000E-45
9.51293E-01 1.00000E-45
9.53154E-01 1.00000E-45
9.54981E-01 1.00000E-45
9.56773E-01 1.00000E-45
9.58530E-01 1.00000E-45
9.60252E-01 1.00000E-45
9.61940E-01 1.00000E-45
9.63592E-01 1.00000E-45
9.65209E-01 1.00000E-45
9.66790E-01 1.00000E-45
9.68336E-01 1.00000E-45
9.69846E-01 1.00000E-45
9.71321E-01 1.00000E-45
9.72759E-01 1.00000E-45
9.74162E-01 1.00000E-45
9.75528E-01 1.00000E-45
9.76858E-01 1.00000E-45
9.78152E-01 1.00000E-45
9.79410E-01 1.00000E-45
9.80631E-01 1.00000E-45
9.81815E-01 1.00000E-45
9.82963E-01 1.00000E-45
9.84074E-01 1.00000E-45
9.85148E-01 1.00000E-45
9.86185E-01 1.00000E-45
9.87185E-01 1.00000E-45
9.88148E-01 1.00000E-45
9.89074E-01 1.00000E-45
9.89962E-01 1.00000E-45
9.90814E-01 1.00000E-45
9.91627E-01 1.00000E-45
9.92404E-01 1.00000E-45
9.93143E-01 1.00000E-45
9.93844E-01 1.00000E-45
9.94508E-01 1.00000E-45
9.95134E-01 1.00000E-45
9.95722E-01 1.00000E-45
9.96273E-01 1.00000E-45
9.96786E-01 1.00000E-45
9.97261E-01 1.00000E-45
9.97698E-01 1.00000E-45
9.98097E-01 1.00000E-45
9.98459E-01 1.00000E-45
9.98782E-01 1.00000E-45
9.99067E-01 1.00000E-45
9.99315E-01 1.00000E-45
9.99524E-01 1.00000E-45
9.99695E-01 1.00000E-45
9.99829E-01 1.00000E-45
9.99924E-01 1.00000E-45
9.99981E-01 1.00000E-45
1.00000E+00 1.00000E-45
