 #
 # Subroutine ELSEPA. Elastic scattering of electrons and positrons
 #                    by neutral atoms and positive ions
 #
 # Projectile: electron
 # Kinetic energy = 7.00000E+08 eV = 2.57245E+07 a.u.
 #
 # WARNING: High-energy factorization with free-atom DF screening.
 #          Absorption, polarization and exchange corrections are
 #          switched off.
 #          Phase shifts are calculated for the bare nucleus.
 #          Scattering amplitudes are not evaluated.
 #
 # Element: Se,  Z =  34,  atomic weight = 7.89600E+01 g/mol
 #
 # Nuclear model: Fermi distribution
 #                Average radius = 4.59042E-13 cm
 #                Skin thickness = 5.46000E-14 cm
 #
 # Number of electrons = 34
 #
 # Total elastic cross section = 2.60492E-18 cm**2 = 9.30234E-02 a0**2
 # 1st transport cross section = 4.77500E-27 cm**2 = 1.70518E-10 a0**2
 # 2nd transport cross section = 1.43218E-26 cm**2 = 5.11440E-10 a0**2
 #
 #
 # Differential cross section:                       MU=(1-COS(THETA))/2
 #
 #  THETA        MU          DCS          DCS        Sherman      error
 #  (deg)                 (cm**2/sr)   (a0**2/sr)    function
 #----------------------------------------------------------------------
0.00000E+00 9.65381E-09
7.61557E-13 8.84807E-09
1.18994E-12 8.43739E-09
1.71346E-12 7.97445E-09
2.33225E-12 7.47678E-09
3.04617E-12 6.95587E-09
3.85530E-12 6.42958E-09
4.75964E-12 5.91171E-09
5.75917E-12 5.41089E-09
6.85391E-12 4.93066E-09
8.04379E-12 4.48092E-09
9.32893E-12 4.06420E-09
1.07092E-11 3.67963E-09
1.21847E-11 3.32793E-09
1.37554E-11 3.00954E-09
1.54213E-11 2.72256E-09
1.71823E-11 2.46330E-09
1.90386E-11 2.23118E-09
2.09900E-11 2.02381E-09
2.30367E-11 1.83846E-09
2.51785E-11 1.67266E-09
2.74156E-11 1.52486E-09
2.97478E-11 1.39304E-09
3.21752E-11 1.27509E-09
3.46979E-11 1.16961E-09
3.73157E-11 1.07526E-09
4.00286E-11 9.90680E-10
4.28368E-11 9.14573E-10
4.57402E-11 8.46134E-10
4.87388E-11 7.82677E-10
5.18325E-11 7.25152E-10
5.50215E-11 6.73813E-10
5.83057E-11 6.27862E-10
6.16850E-11 5.86616E-10
6.51595E-11 5.49490E-10
6.87293E-11 5.15983E-10
7.23943E-11 4.85664E-10
7.61544E-11 4.55556E-10
1.18991E-10 2.59598E-10
1.71347E-10 1.59947E-10
2.33223E-10 1.03084E-10
3.04617E-10 6.81096E-11
3.85531E-10 4.62105E-11
4.75965E-10 3.21794E-11
5.75917E-10 2.29599E-11
6.85389E-10 1.67542E-11
8.04380E-10 1.25072E-11
9.32891E-10 9.53241E-12
1.07092E-09 7.40110E-12
1.21847E-09 5.84272E-12
1.37554E-09 4.68063E-12
1.54213E-09 3.79953E-12
1.71823E-09 3.11969E-12
1.90386E-09 2.58772E-12
2.09900E-09 2.16581E-12
2.30367E-09 1.82698E-12
2.51785E-09 1.55184E-12
2.74156E-09 1.32666E-12
2.97478E-09 1.14085E-12
3.21752E-09 9.86219E-13
3.46978E-09 8.56732E-13
3.73156E-09 7.47662E-13
4.00286E-09 6.55236E-13
4.28368E-09 5.76418E-13
4.57402E-09 5.08980E-13
4.87388E-09 4.50786E-13
5.18326E-09 4.00674E-13
5.50215E-09 3.57490E-13
5.83057E-09 3.19809E-13
6.16850E-09 2.86831E-13
6.51596E-09 2.58071E-13
6.87293E-09 2.32784E-13
7.23942E-09 2.10421E-13
7.61544E-09 1.90720E-13
1.18991E-08 7.97493E-14
1.71347E-08 3.89930E-14
2.33223E-08 2.12835E-14
3.04617E-08 1.25928E-14
3.85531E-08 7.92241E-15
4.75965E-08 5.23070E-15
5.75917E-08 3.59086E-15
6.85389E-08 2.54583E-15
8.04380E-08 1.85450E-15
9.32891E-08 1.38249E-15
1.07092E-07 1.05140E-15
1.21847E-07 8.13657E-16
1.37554E-07 6.39404E-16
1.54213E-07 5.09356E-16
1.71823E-07 4.10724E-16
1.90386E-07 3.34832E-16
2.09900E-07 2.75673E-16
2.30367E-07 2.29012E-16
2.51785E-07 1.91811E-16
2.74156E-07 1.61863E-16
2.97478E-07 1.37534E-16
3.21752E-07 1.17607E-16
3.46978E-07 1.01160E-16
3.73156E-07 8.74889E-17
4.00286E-07 7.60503E-17
4.28368E-07 6.64208E-17
4.57402E-07 5.82677E-17
4.87388E-07 5.13277E-17
5.18325E-07 4.53906E-17
5.50215E-07 4.02874E-17
5.83057E-07 3.58815E-17
6.16850E-07 3.20616E-17
6.51596E-07 2.87367E-17
6.87293E-07 2.58317E-17
7.23942E-07 2.32847E-17
7.61543E-07 2.10439E-17
1.18991E-06 8.62491E-18
1.71347E-06 4.16094E-18
2.33223E-06 2.24658E-18
3.04617E-06 1.31719E-18
3.85531E-06 8.22474E-19
4.75964E-06 5.39720E-19
5.75916E-06 3.68697E-19
6.85388E-06 2.60366E-19
8.04378E-06 1.89061E-19
9.32888E-06 1.40582E-19
1.07092E-05 1.06694E-19
1.21846E-05 8.24308E-20
1.37553E-05 6.46900E-20
1.54212E-05 5.14760E-20
1.71822E-05 4.14709E-20
1.90385E-05 3.37797E-20
2.09899E-05 2.77992E-20
2.30365E-05 2.30850E-20
2.51783E-05 1.93280E-20
2.74153E-05 1.63041E-20
2.97475E-05 1.38486E-20
3.21749E-05 1.18386E-20
3.46974E-05 1.01807E-20
3.73152E-05 8.80356E-21
4.00281E-05 7.65199E-21
4.28362E-05 6.68291E-21
4.57395E-05 5.86255E-21
4.87380E-05 5.16425E-21
5.18317E-05 4.56682E-21
5.50205E-05 4.05328E-21
5.83045E-05 3.60993E-21
6.16838E-05 3.22561E-21
6.51582E-05 2.89116E-21
6.87277E-05 2.59901E-21
7.23925E-05 2.34291E-21
7.61524E-05 2.09610E-21
9.21439E-05 1.42790E-21
1.09658E-04 1.00505E-21
1.28695E-04 7.27111E-22
1.49255E-04 5.38388E-22
1.71338E-04 4.06710E-22
1.94942E-04 3.12604E-22
2.20070E-04 2.43948E-22
2.46720E-04 1.92936E-22
2.74892E-04 1.54412E-22
3.04586E-04 1.24900E-22
3.35803E-04 1.01995E-22
3.68542E-04 8.40091E-23
4.02802E-04 6.97357E-23
4.38585E-04 5.82984E-23
4.75889E-04 4.90531E-23
5.14715E-04 4.15186E-23
5.55063E-04 3.53329E-23
5.96931E-04 3.02194E-23
6.40321E-04 2.59655E-23
6.85233E-04 2.24059E-23
7.31665E-04 1.94108E-23
7.79618E-04 1.68780E-23
8.29092E-04 1.47258E-23
8.80086E-04 1.28890E-23
9.32601E-04 1.13149E-23
9.86636E-04 9.96056E-24
1.04219E-03 8.79110E-24
1.09927E-03 7.77777E-24
1.15786E-03 6.89692E-24
1.21797E-03 6.12888E-24
1.27961E-03 5.45727E-24
1.34276E-03 4.86840E-24
1.40743E-03 4.35074E-24
1.47362E-03 3.89458E-24
1.54133E-03 3.49170E-24
1.61056E-03 3.13510E-24
1.68131E-03 2.81880E-24
1.75357E-03 2.53772E-24
1.82735E-03 2.28746E-24
1.90265E-03 2.06425E-24
1.97947E-03 1.86485E-24
2.05780E-03 1.68642E-24
2.13765E-03 1.52652E-24
2.21902E-03 1.38303E-24
2.30190E-03 1.25409E-24
2.38630E-03 1.13807E-24
2.47222E-03 1.03355E-24
2.55965E-03 9.39283E-25
2.64859E-03 8.54169E-25
2.73905E-03 7.77238E-25
2.83103E-03 7.07636E-25
2.92452E-03 6.44605E-25
3.01952E-03 5.87475E-25
3.11604E-03 5.35649E-25
3.21407E-03 4.88599E-25
3.31362E-03 4.45851E-25
3.41468E-03 4.06984E-25
3.51725E-03 3.71623E-25
3.62133E-03 3.39432E-25
3.72692E-03 3.10108E-25
3.83403E-03 2.83382E-25
3.94265E-03 2.59011E-25
4.05278E-03 2.36776E-25
4.16442E-03 2.16482E-25
4.27757E-03 1.97950E-25
4.39223E-03 1.81021E-25
4.50840E-03 1.65552E-25
4.62608E-03 1.51411E-25
4.74527E-03 1.38481E-25
4.86597E-03 1.26654E-25
4.98817E-03 1.15835E-25
5.11188E-03 1.05934E-25
5.23711E-03 9.68732E-26
5.36383E-03 8.85787E-26
5.49207E-03 8.09850E-26
5.62181E-03 7.40321E-26
5.75306E-03 6.76654E-26
5.88581E-03 6.18350E-26
6.02007E-03 5.64956E-26
6.15583E-03 5.16058E-26
6.29310E-03 4.71277E-26
6.43187E-03 4.30269E-26
6.57214E-03 3.92716E-26
6.71392E-03 3.58332E-26
6.85720E-03 3.26851E-26
7.00198E-03 2.98033E-26
7.14827E-03 2.71655E-26
7.29605E-03 2.47516E-26
7.44534E-03 2.25429E-26
7.59612E-03 2.05226E-26
7.97965E-03 1.61961E-26
8.37255E-03 1.27418E-26
8.77480E-03 9.98988E-27
9.18641E-03 7.80311E-27
9.60736E-03 6.07064E-27
1.00376E-02 4.70282E-27
1.04773E-02 3.62713E-27
1.09262E-02 2.78493E-27
1.13844E-02 2.12883E-27
1.18520E-02 1.62059E-27
1.23288E-02 1.22935E-27
1.28150E-02 9.30294E-28
1.33104E-02 7.03505E-28
1.38150E-02 5.33024E-28
1.43290E-02 4.06121E-28
1.48521E-02 3.12677E-28
1.53845E-02 2.44688E-28
1.59262E-02 1.95854E-28
1.64770E-02 1.61248E-28
1.70371E-02 1.37048E-28
1.76063E-02 1.20312E-28
1.81848E-02 1.08802E-28
1.87724E-02 1.00836E-28
1.93692E-02 9.51663E-29
1.99751E-02 9.08914E-29
2.05901E-02 8.73723E-29
2.12143E-02 8.41733E-29
2.18476E-02 8.10119E-29
2.24900E-02 7.77198E-29
2.31415E-02 7.42117E-29
2.38021E-02 7.04611E-29
2.44717E-02 6.64817E-29
2.51504E-02 6.23126E-29
2.58382E-02 5.80081E-29
2.65349E-02 5.36292E-29
2.72407E-02 4.92379E-29
2.79555E-02 4.48934E-29
2.86793E-02 4.06493E-29
2.94120E-02 3.65521E-29
3.01537E-02 3.26404E-29
3.09043E-02 2.89446E-29
3.16639E-02 2.54872E-29
3.24324E-02 2.22832E-29
3.32098E-02 1.93411E-29
3.39961E-02 1.66631E-29
3.47912E-02 1.42467E-29
3.55952E-02 1.20850E-29
3.64081E-02 1.01675E-29
3.72297E-02 8.48139E-30
3.80602E-02 7.01176E-30
3.88995E-02 5.74242E-30
3.97476E-02 4.65642E-30
4.06044E-02 3.73652E-30
4.14700E-02 2.96561E-30
4.23443E-02 2.32700E-30
4.32273E-02 1.80470E-30
4.41190E-02 1.38358E-30
4.50194E-02 1.04954E-30
4.59284E-02 7.89604E-31
4.68461E-02 5.91934E-31
4.87074E-02 3.41993E-31
5.06030E-02 2.28364E-31
5.25328E-02 1.96938E-31
5.44967E-02 2.08698E-31
5.64946E-02 2.37162E-31
5.85262E-02 2.65772E-31
6.05914E-02 2.85431E-31
6.26901E-02 2.92352E-31
6.48222E-02 2.86259E-31
6.69873E-02 2.68975E-31
6.91854E-02 2.43355E-31
7.14163E-02 2.12544E-31
7.36799E-02 1.79487E-31
7.59760E-02 1.46655E-31
7.83043E-02 1.15918E-31
8.06647E-02 8.85311E-32
8.30571E-02 6.51907E-32
8.54812E-02 4.61263E-32
8.79369E-02 3.12117E-32
9.04240E-02 2.00733E-32
9.29422E-02 1.21892E-32
9.54915E-02 6.97116E-33
9.80716E-02 3.82770E-33
1.00682E-01 2.20919E-33
1.03323E-01 1.63585E-33
1.05995E-01 1.71204E-33
1.08696E-01 2.12963E-33
1.11427E-01 2.66355E-33
1.14188E-01 3.16226E-33
1.16978E-01 3.53545E-33
1.19797E-01 3.74084E-33
1.22645E-01 3.77132E-33
1.25522E-01 3.64341E-33
1.28428E-01 3.38756E-33
1.31361E-01 3.04042E-33
1.34323E-01 2.63910E-33
1.37313E-01 2.21733E-33
1.40330E-01 1.80314E-33
1.43375E-01 1.41779E-33
1.46447E-01 1.07568E-33
1.49545E-01 7.84880E-34
1.52671E-01 5.48133E-34
1.55823E-01 3.63957E-34
1.59001E-01 2.27854E-34
1.62205E-01 1.33413E-34
1.65435E-01 7.32720E-35
1.68690E-01 3.98920E-35
1.71970E-01 2.61369E-35
1.75276E-01 2.56641E-35
1.78606E-01 3.31507E-35
1.81961E-01 4.43813E-35
1.85340E-01 5.62306E-35
1.88743E-01 6.65709E-35
1.92169E-01 7.41320E-35
1.95619E-01 7.83387E-35
1.99092E-01 7.91426E-35
2.02589E-01 7.68635E-35
2.06107E-01 7.20493E-35
2.09649E-01 6.53593E-35
2.13212E-01 5.74735E-35
2.16797E-01 4.90269E-35
2.20404E-01 4.05663E-35
2.24032E-01 3.25271E-35
2.27680E-01 2.52261E-35
2.31350E-01 1.88653E-35
2.35040E-01 1.35438E-35
2.38751E-01 9.27591E-36
2.42481E-01 6.00927E-36
2.46231E-01 3.64481E-36
2.50000E-01 2.05444E-36
2.53788E-01 1.09650E-36
2.57595E-01 6.28291E-37
2.61421E-01 5.15601E-37
2.65264E-01 6.39166E-37
2.69126E-01 8.98529E-37
2.73005E-01 1.21362E-36
2.76901E-01 1.52458E-36
2.80814E-01 1.79025E-36
2.84744E-01 1.98581E-36
2.88691E-01 2.09993E-36
2.92653E-01 2.13178E-36
2.96632E-01 2.08816E-36
3.00625E-01 1.98076E-36
3.04634E-01 1.82402E-36
3.08658E-01 1.63319E-36
3.12697E-01 1.42300E-36
3.16749E-01 1.20665E-36
3.20816E-01 9.95192E-37
3.24896E-01 7.97268E-37
3.28990E-01 6.19030E-37
3.33097E-01 4.64296E-37
3.37216E-01 3.34810E-37
3.41348E-01 2.30592E-37
3.45492E-01 1.50314E-37
3.49647E-01 9.16792E-38
3.53814E-01 5.17762E-38
3.57992E-01 2.73889E-38
3.62181E-01 1.52565E-38
3.66381E-01 1.22677E-38
3.70590E-01 1.56065E-38
3.74810E-01 2.28420E-38
3.79039E-01 3.19723E-38
3.83277E-01 4.14337E-38
3.87524E-01 5.00795E-38
3.91780E-01 5.71424E-38
3.96044E-01 6.21793E-38
4.00316E-01 6.50184E-38
4.04596E-01 6.56944E-38
4.08882E-01 6.43979E-38
4.13176E-01 6.14205E-38
4.17476E-01 5.71129E-38
4.21783E-01 5.18454E-38
4.26095E-01 4.59812E-38
4.30413E-01 3.98528E-38
4.34737E-01 3.37489E-38
4.39065E-01 2.79023E-38
4.43398E-01 2.24925E-38
4.47736E-01 1.76418E-38
4.52077E-01 1.34239E-38
4.56422E-01 9.86703E-39
4.60770E-01 6.96392E-39
4.65122E-01 1.00000E-45
4.69476E-01 1.00000E-45
4.73832E-01 1.00000E-45
4.78190E-01 1.00000E-45
4.82550E-01 1.00000E-45
4.86912E-01 1.00000E-45
4.91274E-01 1.00000E-45
4.95637E-01 1.00000E-45
5.00000E-01 1.00000E-45
5.04363E-01 1.00000E-45
5.08726E-01 1.00000E-45
5.13088E-01 1.00000E-45
5.17450E-01 1.00000E-45
5.21810E-01 1.00000E-45
5.26168E-01 1.00000E-45
5.30524E-01 1.00000E-45
5.34878E-01 1.00000E-45
5.39230E-01 1.00000E-45
5.43578E-01 1.00000E-45
5.47923E-01 1.00000E-45
5.52264E-01 1.00000E-45
5.56602E-01 1.00000E-45
5.60935E-01 1.00000E-45
5.65263E-01 1.00000E-45
5.69587E-01 1.00000E-45
5.73905E-01 1.00000E-45
5.78217E-01 1.00000E-45
5.82524E-01 1.00000E-45
5.86824E-01 1.00000E-45
5.91118E-01 1.00000E-45
5.95404E-01 1.00000E-45
5.99684E-01 1.00000E-45
6.03956E-01 1.00000E-45
6.08220E-01 1.00000E-45
6.12476E-01 1.00000E-45
6.16723E-01 1.00000E-45
6.20961E-01 1.00000E-45
6.25190E-01 1.00000E-45
6.29410E-01 1.00000E-45
6.33619E-01 1.00000E-45
6.37819E-01 1.00000E-45
6.42008E-01 1.00000E-45
6.46186E-01 1.00000E-45
6.50353E-01 1.00000E-45
6.54508E-01 1.00000E-45
6.58652E-01 1.00000E-45
6.62784E-01 1.00000E-45
6.66903E-01 1.00000E-45
6.71010E-01 1.00000E-45
6.75104E-01 1.00000E-45
6.79184E-01 1.00000E-45
6.83251E-01 1.00000E-45
6.87303E-01 1.00000E-45
6.91342E-01 1.00000E-45
6.95366E-01 1.00000E-45
6.99375E-01 1.00000E-45
7.03368E-01 1.00000E-45
7.07347E-01 1.00000E-45
7.11309E-01 1.00000E-45
7.15256E-01 1.00000E-45
7.19186E-01 1.00000E-45
7.23099E-01 1.00000E-45
7.26995E-01 1.00000E-45
7.30874E-01 1.00000E-45
7.34736E-01 1.00000E-45
7.38579E-01 1.00000E-45
7.42405E-01 1.00000E-45
7.46212E-01 1.00000E-45
7.50000E-01 1.00000E-45
7.53769E-01 1.00000E-45
7.57519E-01 1.00000E-45
7.61249E-01 1.00000E-45
7.64960E-01 1.00000E-45
7.68650E-01 1.00000E-45
7.72320E-01 1.00000E-45
7.75968E-01 1.00000E-45
7.79596E-01 1.00000E-45
7.83203E-01 1.00000E-45
7.86788E-01 1.00000E-45
7.90351E-01 1.00000E-45
7.93893E-01 1.00000E-45
7.97411E-01 1.00000E-45
8.00908E-01 1.00000E-45
8.04381E-01 1.00000E-45
8.07831E-01 1.00000E-45
8.11257E-01 1.00000E-45
8.14660E-01 1.00000E-45
8.18039E-01 1.00000E-45
8.21394E-01 1.00000E-45
8.24724E-01 1.00000E-45
8.28030E-01 1.00000E-45
8.31310E-01 1.00000E-45
8.34565E-01 1.00000E-45
8.37795E-01 1.00000E-45
8.40999E-01 1.00000E-45
8.44177E-01 1.00000E-45
8.47329E-01 1.00000E-45
8.50455E-01 1.00000E-45
8.53553E-01 1.00000E-45
8.56625E-01 1.00000E-45
8.59670E-01 1.00000E-45
8.62687E-01 1.00000E-45
8.65677E-01 1.00000E-45
8.68639E-01 1.00000E-45
8.71572E-01 1.00000E-45
8.74478E-01 1.00000E-45
8.77355E-01 1.00000E-45
8.80203E-01 1.00000E-45
8.83022E-01 1.00000E-45
8.85812E-01 1.00000E-45
8.88573E-01 1.00000E-45
8.91304E-01 1.00000E-45
8.94005E-01 1.00000E-45
8.96677E-01 1.00000E-45
8.99318E-01 1.00000E-45
9.01928E-01 1.00000E-45
9.04508E-01 1.00000E-45
9.07058E-01 1.00000E-45
9.09576E-01 1.00000E-45
9.12063E-01 1.00000E-45
9.14519E-01 1.00000E-45
9.16943E-01 1.00000E-45
9.19335E-01 1.00000E-45
9.21696E-01 1.00000E-45
9.24024E-01 1.00000E-45
9.26320E-01 1.00000E-45
9.28584E-01 1.00000E-45
9.30815E-01 1.00000E-45
9.33013E-01 1.00000E-45
9.35178E-01 1.00000E-45
9.37310E-01 1.00000E-45
9.39409E-01 1.00000E-45
9.41474E-01 1.00000E-45
9.43505E-01 1.00000E-45
9.45503E-01 1.00000E-45
9.47467E-01 1.00000E-45
9.49397E-01 1.00000E-45
9.51293E-01 1.00000E-45
9.53154E-01 1.00000E-45
9.54981E-01 1.00000E-45
9.56773E-01 1.00000E-45
9.58530E-01 1.00000E-45
9.60252E-01 1.00000E-45
9.61940E-01 1.00000E-45
9.63592E-01 1.00000E-45
9.65209E-01 1.00000E-45
9.66790E-01 1.00000E-45
9.68336E-01 1.00000E-45
9.69846E-01 1.00000E-45
9.71321E-01 1.00000E-45
9.72759E-01 1.00000E-45
9.74162E-01 1.00000E-45
9.75528E-01 1.00000E-45
9.76858E-01 1.00000E-45
9.78152E-01 1.00000E-45
9.79410E-01 1.00000E-45
9.80631E-01 1.00000E-45
9.81815E-01 1.00000E-45
9.82963E-01 1.00000E-45
9.84074E-01 1.00000E-45
9.85148E-01 1.00000E-45
9.86185E-01 1.00000E-45
9.87185E-01 1.00000E-45
9.88148E-01 1.00000E-45
9.89074E-01 1.00000E-45
9.89962E-01 1.00000E-45
9.90814E-01 1.00000E-45
9.91627E-01 1.00000E-45
9.92404E-01 1.00000E-45
9.93143E-01 1.00000E-45
9.93844E-01 1.00000E-45
9.94508E-01 1.00000E-45
9.95134E-01 1.00000E-45
9.95722E-01 1.00000E-45
9.96273E-01 1.00000E-45
9.96786E-01 1.00000E-45
9.97261E-01 1.00000E-45
9.97698E-01 1.00000E-45
9.98097E-01 1.00000E-45
9.98459E-01 1.00000E-45
9.98782E-01 1.00000E-45
9.99067E-01 1.00000E-45
9.99315E-01 1.00000E-45
9.99524E-01 1.00000E-45
9.99695E-01 1.00000E-45
9.99829E-01 1.00000E-45
9.99924E-01 1.00000E-45
9.99981E-01 1.00000E-45
1.00000E+00 1.00000E-45
