 #
 # Subroutine ELSEPA. Elastic scattering of electrons and positrons
 #                    by neutral atoms and positive ions
 #
 # Projectile: electron
 # Kinetic energy = 3.00000E+06 eV = 1.10248E+05 a.u.
 #
 # WARNING: High-energy factorization with free-atom DF screening.
 #          Absorption, polarization and exchange corrections are
 #          switched off.
 #          Phase shifts are calculated for the bare nucleus.
 #          Scattering amplitudes are not evaluated.
 #
 # Element: Se,  Z =  34,  atomic weight = 7.89600E+01 g/mol
 #
 # Nuclear model: Fermi distribution
 #                Average radius = 4.59042E-13 cm
 #                Skin thickness = 5.46000E-14 cm
 #
 # Number of electrons = 34
 #
 # Total elastic cross section = 2.66854E-18 cm**2 = 9.52952E-02 a0**2
 # 1st transport cross section = 1.41101E-22 cm**2 = 5.03882E-06 a0**2
 # 2nd transport cross section = 3.96161E-22 cm**2 = 1.41472E-05 a0**2
 #
 #
 # Differential cross section:                       MU=(1-COS(THETA))/2
 #
 #  THETA        MU          DCS          DCS        Sherman      error
 #  (deg)                 (cm**2/sr)   (a0**2/sr)    function
 #----------------------------------------------------------------------
0.00000E+00 2.42510E-13
7.61557E-13 2.42510E-13
1.18994E-12 2.42510E-13
1.71346E-12 2.42509E-13
2.33225E-12 2.42509E-13
3.04617E-12 2.42508E-13
3.85530E-12 2.42508E-13
4.75964E-12 2.42507E-13
5.75917E-12 2.42506E-13
6.85391E-12 2.42506E-13
8.04379E-12 2.42505E-13
9.32893E-12 2.42504E-13
1.07092E-11 2.42503E-13
1.21847E-11 2.42502E-13
1.37554E-11 2.42501E-13
1.54213E-11 2.42500E-13
1.71823E-11 2.42499E-13
1.90386E-11 2.42497E-13
2.09900E-11 2.42496E-13
2.30367E-11 2.42495E-13
2.51785E-11 2.42493E-13
2.74156E-11 2.42492E-13
2.97478E-11 2.42490E-13
3.21752E-11 2.42488E-13
3.46979E-11 2.42487E-13
3.73157E-11 2.42485E-13
4.00286E-11 2.42483E-13
4.28368E-11 2.42481E-13
4.57402E-11 2.42479E-13
4.87388E-11 2.42477E-13
5.18325E-11 2.42475E-13
5.50215E-11 2.42472E-13
5.83057E-11 2.42470E-13
6.16850E-11 2.42468E-13
6.51595E-11 2.42465E-13
6.87293E-11 2.42463E-13
7.23943E-11 2.42460E-13
7.61544E-11 2.42458E-13
1.18991E-10 2.42428E-13
1.71347E-10 2.42392E-13
2.33223E-10 2.42349E-13
3.04617E-10 2.42299E-13
3.85531E-10 2.42243E-13
4.75965E-10 2.42181E-13
5.75917E-10 2.42111E-13
6.85389E-10 2.42035E-13
8.04380E-10 2.41953E-13
9.32891E-10 2.41864E-13
1.07092E-09 2.41768E-13
1.21847E-09 2.41666E-13
1.37554E-09 2.41558E-13
1.54213E-09 2.41442E-13
1.71823E-09 2.41321E-13
1.90386E-09 2.41193E-13
2.09900E-09 2.41058E-13
2.30367E-09 2.40917E-13
2.51785E-09 2.40770E-13
2.74156E-09 2.40616E-13
2.97478E-09 2.40456E-13
3.21752E-09 2.40289E-13
3.46978E-09 2.40116E-13
3.73156E-09 2.39937E-13
4.00286E-09 2.39751E-13
4.28368E-09 2.39559E-13
4.57402E-09 2.39361E-13
4.87388E-09 2.39156E-13
5.18326E-09 2.38946E-13
5.50215E-09 2.38729E-13
5.83057E-09 2.38506E-13
6.16850E-09 2.38276E-13
6.51596E-09 2.38041E-13
6.87293E-09 2.37800E-13
7.23942E-09 2.37552E-13
7.61544E-09 2.37299E-13
1.18991E-08 2.34439E-13
1.71347E-08 2.31013E-13
2.33223E-08 2.27028E-13
3.04617E-08 2.22612E-13
3.85531E-08 2.17710E-13
4.75965E-08 2.12440E-13
5.75917E-08 2.06884E-13
6.85389E-08 2.00953E-13
8.04380E-08 1.94857E-13
9.32891E-08 1.88584E-13
1.07092E-07 1.82125E-13
1.21847E-07 1.75662E-13
1.37554E-07 1.69098E-13
1.54213E-07 1.62537E-13
1.71823E-07 1.56092E-13
1.90386E-07 1.49598E-13
2.09900E-07 1.43263E-13
2.30367E-07 1.37083E-13
2.51785E-07 1.30965E-13
2.74156E-07 1.25078E-13
2.97478E-07 1.19346E-13
3.21752E-07 1.13778E-13
3.46978E-07 1.08461E-13
3.73156E-07 1.03290E-13
4.00286E-07 9.83434E-14
4.28368E-07 9.36421E-14
4.57402E-07 8.90791E-14
4.87388E-07 8.47618E-14
5.18325E-07 8.06503E-14
5.50215E-07 7.67090E-14
5.83057E-07 7.29897E-14
6.16850E-07 6.94412E-14
6.51596E-07 6.60714E-14
6.87293E-07 6.28962E-14
7.23942E-07 5.98622E-14
7.61543E-07 5.70006E-14
1.18991E-06 3.56695E-14
1.71347E-06 2.34501E-14
2.33223E-06 1.61086E-14
3.04617E-06 1.17027E-14
3.85531E-06 8.71153E-15
4.75964E-06 6.67328E-15
5.75916E-06 5.23017E-15
6.85388E-06 4.11619E-15
8.04378E-06 3.29432E-15
9.32888E-06 2.65662E-15
1.07092E-05 2.15204E-15
1.21846E-05 1.76187E-15
1.37553E-05 1.44710E-15
1.54212E-05 1.19678E-15
1.71822E-05 9.97630E-16
1.90385E-05 8.34148E-16
2.09899E-05 7.02954E-16
2.30365E-05 5.95997E-16
2.51783E-05 5.07729E-16
2.74153E-05 4.35317E-16
2.97475E-05 3.75167E-16
3.21749E-05 3.25029E-16
3.46974E-05 2.83131E-16
3.73152E-05 2.47775E-16
4.00281E-05 2.17879E-16
4.28362E-05 1.92466E-16
4.57395E-05 1.70691E-16
4.87380E-05 1.51986E-16
5.18317E-05 1.35816E-16
5.50205E-05 1.21774E-16
5.83045E-05 1.09556E-16
6.16838E-05 9.88622E-17
6.51582E-05 8.94708E-17
6.87277E-05 8.12037E-17
7.23925E-05 7.38765E-17
7.61524E-05 6.73761E-17
9.21439E-05 4.76010E-17
1.09658E-04 3.45930E-17
1.28695E-04 2.57386E-17
1.49255E-04 1.95277E-17
1.71338E-04 1.50694E-17
1.94942E-04 1.17960E-17
2.20070E-04 9.35868E-18
2.46720E-04 7.51610E-18
2.74892E-04 6.10495E-18
3.04586E-04 5.00431E-18
3.35803E-04 4.14140E-18
3.68542E-04 3.45641E-18
4.02802E-04 2.90642E-18
4.38585E-04 2.46201E-18
4.75889E-04 2.09934E-18
5.14715E-04 1.80109E-18
5.55063E-04 1.55425E-18
5.96931E-04 1.34827E-18
6.40321E-04 1.17548E-18
6.85233E-04 1.02966E-18
7.31665E-04 9.05764E-19
7.79618E-04 8.00081E-19
8.29092E-04 7.09443E-19
8.80086E-04 6.31314E-19
9.32601E-04 5.63719E-19
9.86636E-04 5.04959E-19
1.04219E-03 4.53690E-19
1.09927E-03 4.08807E-19
1.15786E-03 3.69343E-19
1.21797E-03 3.34553E-19
1.27961E-03 3.03787E-19
1.34276E-03 2.76477E-19
1.40743E-03 2.52187E-19
1.47362E-03 2.30515E-19
1.54133E-03 2.11125E-19
1.61056E-03 1.93743E-19
1.68131E-03 1.78114E-19
1.75357E-03 1.64036E-19
1.82735E-03 1.51329E-19
1.90265E-03 1.39826E-19
1.97947E-03 1.29402E-19
2.05780E-03 1.19934E-19
2.13765E-03 1.11316E-19
2.21902E-03 1.03463E-19
2.30190E-03 9.62908E-20
2.38630E-03 8.97306E-20
2.47222E-03 8.37224E-20
2.55965E-03 7.82083E-20
2.64859E-03 7.31424E-20
2.73905E-03 6.84819E-20
2.83103E-03 6.41862E-20
2.92452E-03 6.02237E-20
3.01952E-03 5.65630E-20
3.11604E-03 5.31765E-20
3.21407E-03 5.00409E-20
3.31362E-03 4.71331E-20
3.41468E-03 4.44341E-20
3.51725E-03 4.19265E-20
3.62133E-03 3.95931E-20
3.72692E-03 3.74205E-20
3.83403E-03 3.53955E-20
3.94265E-03 3.35056E-20
4.05278E-03 3.17408E-20
4.16442E-03 3.00910E-20
4.27757E-03 2.85471E-20
4.39223E-03 2.71016E-20
4.50840E-03 2.57464E-20
4.62608E-03 2.44752E-20
4.74527E-03 2.32819E-20
4.86597E-03 2.21604E-20
4.98817E-03 2.11060E-20
5.11188E-03 2.01138E-20
5.23711E-03 1.91794E-20
5.36383E-03 1.82988E-20
5.49207E-03 1.74683E-20
5.62181E-03 1.66846E-20
5.75306E-03 1.59446E-20
5.88581E-03 1.52452E-20
6.02007E-03 1.45839E-20
6.15583E-03 1.39583E-20
6.29310E-03 1.33659E-20
6.43187E-03 1.28048E-20
6.57214E-03 1.22729E-20
6.71392E-03 1.17685E-20
6.85720E-03 1.12898E-20
7.00198E-03 1.08353E-20
7.14827E-03 1.04036E-20
7.29605E-03 9.99325E-21
7.44534E-03 9.60300E-21
7.59612E-03 9.23172E-21
7.97965E-03 8.37941E-21
8.37255E-03 7.62365E-21
8.77480E-03 6.95160E-21
9.18641E-03 6.35232E-21
9.60736E-03 5.81657E-21
1.00376E-02 5.33640E-21
1.04773E-02 4.90503E-21
1.09262E-02 4.51660E-21
1.13844E-02 4.16607E-21
1.18520E-02 3.84909E-21
1.23288E-02 3.56185E-21
1.28150E-02 3.30107E-21
1.33104E-02 3.06386E-21
1.38150E-02 2.84770E-21
1.43290E-02 2.65040E-21
1.48521E-02 2.46999E-21
1.53845E-02 2.30477E-21
1.59262E-02 2.15322E-21
1.64770E-02 2.01401E-21
1.70371E-02 1.88594E-21
1.76063E-02 1.76796E-21
1.81848E-02 1.65913E-21
1.87724E-02 1.55859E-21
1.93692E-02 1.46561E-21
1.99751E-02 1.37952E-21
2.05901E-02 1.29969E-21
2.12143E-02 1.22560E-21
2.18476E-02 1.15675E-21
2.24900E-02 1.09270E-21
2.31415E-02 1.03306E-21
2.38021E-02 9.77460E-22
2.44717E-02 9.25579E-22
2.51504E-02 8.77122E-22
2.58382E-02 8.31817E-22
2.65349E-02 7.89422E-22
2.72407E-02 7.49716E-22
2.79555E-02 7.12492E-22
2.86793E-02 6.77569E-22
2.94120E-02 6.44776E-22
3.01537E-02 6.13957E-22
3.09043E-02 5.84973E-22
3.16639E-02 5.57693E-22
3.24324E-02 5.31996E-22
3.32098E-02 5.07775E-22
3.39961E-02 4.84927E-22
3.47912E-02 4.63359E-22
3.55952E-02 4.42987E-22
3.64081E-02 4.23732E-22
3.72297E-02 4.05519E-22
3.80602E-02 3.88282E-22
3.88995E-02 3.71958E-22
3.97476E-02 3.56491E-22
4.06044E-02 3.41825E-22
4.14700E-02 3.27911E-22
4.23443E-02 3.14704E-22
4.32273E-02 3.02160E-22
4.41190E-02 2.90240E-22
4.50194E-02 2.78906E-22
4.59284E-02 2.68125E-22
4.68461E-02 2.57863E-22
4.87074E-02 2.38782E-22
5.06030E-02 2.21447E-22
5.25328E-02 2.05667E-22
5.44967E-02 1.91279E-22
5.64946E-02 1.78135E-22
5.85262E-02 1.66109E-22
6.05914E-02 1.55088E-22
6.26901E-02 1.44972E-22
6.48222E-02 1.35672E-22
6.69873E-02 1.27112E-22
6.91854E-02 1.19220E-22
7.14163E-02 1.11935E-22
7.36799E-02 1.05201E-22
7.59760E-02 9.89685E-23
7.83043E-02 9.31935E-23
8.06647E-02 8.78359E-23
8.30571E-02 8.28597E-23
8.54812E-02 7.82327E-23
8.79369E-02 7.39256E-23
9.04240E-02 6.99121E-23
9.29422E-02 6.61685E-23
9.54915E-02 6.26730E-23
9.80716E-02 5.94061E-23
1.00682E-01 5.63500E-23
1.03323E-01 5.34885E-23
1.05995E-01 5.08068E-23
1.08696E-01 4.82914E-23
1.11427E-01 4.59301E-23
1.14188E-01 4.37116E-23
1.16978E-01 4.16255E-23
1.19797E-01 3.96625E-23
1.22645E-01 3.78140E-23
1.25522E-01 3.60718E-23
1.28428E-01 3.44288E-23
1.31361E-01 3.28782E-23
1.34323E-01 3.14139E-23
1.37313E-01 3.00300E-23
1.40330E-01 2.87213E-23
1.43375E-01 2.74829E-23
1.46447E-01 2.63104E-23
1.49545E-01 2.51995E-23
1.52671E-01 2.41464E-23
1.55823E-01 2.31475E-23
1.59001E-01 2.21994E-23
1.62205E-01 2.12991E-23
1.65435E-01 2.04437E-23
1.68690E-01 1.96306E-23
1.71970E-01 1.88571E-23
1.75276E-01 1.81211E-23
1.78606E-01 1.74204E-23
1.81961E-01 1.67528E-23
1.85340E-01 1.61167E-23
1.88743E-01 1.55101E-23
1.92169E-01 1.49315E-23
1.95619E-01 1.43793E-23
1.99092E-01 1.38521E-23
2.02589E-01 1.33485E-23
2.06107E-01 1.28673E-23
2.09649E-01 1.24073E-23
2.13212E-01 1.19673E-23
2.16797E-01 1.15464E-23
2.20404E-01 1.11435E-23
2.24032E-01 1.07577E-23
2.27680E-01 1.03881E-23
2.31350E-01 1.00341E-23
2.35040E-01 9.69461E-24
2.38751E-01 9.36910E-24
2.42481E-01 9.05687E-24
2.46231E-01 8.75724E-24
2.50000E-01 8.46961E-24
2.53788E-01 8.19342E-24
2.57595E-01 7.92813E-24
2.61421E-01 7.67321E-24
2.65264E-01 7.42818E-24
2.69126E-01 7.19259E-24
2.73005E-01 6.96601E-24
2.76901E-01 6.74801E-24
2.80814E-01 6.53822E-24
2.84744E-01 6.33627E-24
2.88691E-01 6.14180E-24
2.92653E-01 5.95449E-24
2.96632E-01 5.77402E-24
3.00625E-01 5.60010E-24
3.04634E-01 5.43245E-24
3.08658E-01 5.27079E-24
3.12697E-01 5.11487E-24
3.16749E-01 4.96444E-24
3.20816E-01 4.81928E-24
3.24896E-01 4.67917E-24
3.28990E-01 4.54390E-24
3.33097E-01 4.41326E-24
3.37216E-01 4.28707E-24
3.41348E-01 4.16516E-24
3.45492E-01 4.04734E-24
3.49647E-01 3.93346E-24
3.53814E-01 3.82335E-24
3.57992E-01 3.71688E-24
3.62181E-01 3.61389E-24
3.66381E-01 3.51426E-24
3.70590E-01 3.41784E-24
3.74810E-01 3.32453E-24
3.79039E-01 3.23419E-24
3.83277E-01 3.14673E-24
3.87524E-01 3.06202E-24
3.91780E-01 2.97996E-24
3.96044E-01 2.90047E-24
4.00316E-01 2.82344E-24
4.04596E-01 2.74878E-24
4.08882E-01 2.67640E-24
4.13176E-01 2.60623E-24
4.17476E-01 2.53819E-24
4.21783E-01 2.47219E-24
4.26095E-01 2.40816E-24
4.30413E-01 2.34604E-24
4.34737E-01 2.28576E-24
4.39065E-01 2.22725E-24
4.43398E-01 2.17046E-24
4.47736E-01 2.11531E-24
4.52077E-01 2.06176E-24
4.56422E-01 2.00975E-24
4.60770E-01 1.95924E-24
4.65122E-01 1.91016E-24
4.69476E-01 1.86247E-24
4.73832E-01 1.81612E-24
4.78190E-01 1.77107E-24
4.82550E-01 1.72729E-24
4.86912E-01 1.68471E-24
4.91274E-01 1.64331E-24
4.95637E-01 1.60305E-24
5.00000E-01 1.56389E-24
5.04363E-01 1.52579E-24
5.08726E-01 1.48872E-24
5.13088E-01 1.45265E-24
5.17450E-01 1.41755E-24
5.21810E-01 1.38339E-24
5.26168E-01 1.35013E-24
5.30524E-01 1.31775E-24
5.34878E-01 1.28622E-24
5.39230E-01 1.25552E-24
5.43578E-01 1.22562E-24
5.47923E-01 1.19649E-24
5.52264E-01 1.16812E-24
5.56602E-01 1.14047E-24
5.60935E-01 1.11353E-24
5.65263E-01 1.08728E-24
5.69587E-01 1.06170E-24
5.73905E-01 1.03676E-24
5.78217E-01 1.01244E-24
5.82524E-01 9.88740E-25
5.86824E-01 9.65627E-25
5.91118E-01 9.43089E-25
5.95404E-01 9.21108E-25
5.99684E-01 8.99668E-25
6.03956E-01 8.78755E-25
6.08220E-01 8.58353E-25
6.12476E-01 8.38447E-25
6.16723E-01 8.19023E-25
6.20961E-01 8.00069E-25
6.25190E-01 7.81570E-25
6.29410E-01 7.63515E-25
6.33619E-01 7.45890E-25
6.37819E-01 7.28685E-25
6.42008E-01 7.11887E-25
6.46186E-01 6.95486E-25
6.50353E-01 6.79470E-25
6.54508E-01 6.63830E-25
6.58652E-01 6.48555E-25
6.62784E-01 6.33636E-25
6.66903E-01 6.19063E-25
6.71010E-01 6.04827E-25
6.75104E-01 5.90920E-25
6.79184E-01 5.77331E-25
6.83251E-01 5.64054E-25
6.87303E-01 5.51079E-25
6.91342E-01 5.38400E-25
6.95366E-01 5.26007E-25
6.99375E-01 5.13895E-25
7.03368E-01 5.02056E-25
7.07347E-01 4.90483E-25
7.11309E-01 4.79169E-25
7.15256E-01 4.68108E-25
7.19186E-01 4.57293E-25
7.23099E-01 4.46719E-25
7.26995E-01 4.36379E-25
7.30874E-01 4.26267E-25
7.34736E-01 4.16379E-25
7.38579E-01 4.06708E-25
7.42405E-01 3.97249E-25
7.46212E-01 3.87997E-25
7.50000E-01 3.78947E-25
7.53769E-01 3.70094E-25
7.57519E-01 3.61433E-25
7.61249E-01 3.52960E-25
7.64960E-01 3.44670E-25
7.68650E-01 3.36560E-25
7.72320E-01 3.28623E-25
7.75968E-01 3.20858E-25
7.79596E-01 3.13259E-25
7.83203E-01 3.05823E-25
7.86788E-01 2.98546E-25
7.90351E-01 2.91425E-25
7.93893E-01 2.84456E-25
7.97411E-01 2.77634E-25
8.00908E-01 2.70959E-25
8.04381E-01 2.64425E-25
8.07831E-01 2.58029E-25
8.11257E-01 2.51769E-25
8.14660E-01 2.45642E-25
8.18039E-01 2.39644E-25
8.21394E-01 2.33774E-25
8.24724E-01 2.28027E-25
8.28030E-01 2.22401E-25
8.31310E-01 2.16894E-25
8.34565E-01 2.11503E-25
8.37795E-01 2.06225E-25
8.40999E-01 2.01059E-25
8.44177E-01 1.96002E-25
8.47329E-01 1.91051E-25
8.50455E-01 1.86204E-25
8.53553E-01 1.81459E-25
8.56625E-01 1.76815E-25
8.59670E-01 1.72269E-25
8.62687E-01 1.67818E-25
8.65677E-01 1.63462E-25
8.68639E-01 1.59198E-25
8.71572E-01 1.55024E-25
8.74478E-01 1.50939E-25
8.77355E-01 1.46941E-25
8.80203E-01 1.43028E-25
8.83022E-01 1.39198E-25
8.85812E-01 1.35449E-25
8.88573E-01 1.31781E-25
8.91304E-01 1.28191E-25
8.94005E-01 1.24679E-25
8.96677E-01 1.21242E-25
8.99318E-01 1.17879E-25
9.01928E-01 1.14590E-25
9.04508E-01 1.11371E-25
9.07058E-01 1.08223E-25
9.09576E-01 1.05144E-25
9.12063E-01 1.02133E-25
9.14519E-01 9.91881E-26
9.16943E-01 9.63086E-26
9.19335E-01 9.34933E-26
9.21696E-01 9.07410E-26
9.24024E-01 8.80506E-26
9.26320E-01 8.54212E-26
9.28584E-01 8.28517E-26
9.30815E-01 8.03411E-26
9.33013E-01 7.78884E-26
9.35178E-01 7.54925E-26
9.37310E-01 7.31528E-26
9.39409E-01 7.08681E-26
9.41474E-01 6.86377E-26
9.43505E-01 6.64607E-26
9.45503E-01 6.43363E-26
9.47467E-01 6.22636E-26
9.49397E-01 6.02419E-26
9.51293E-01 5.82704E-26
9.53154E-01 5.63484E-26
9.54981E-01 5.44751E-26
9.56773E-01 5.26499E-26
9.58530E-01 5.08721E-26
9.60252E-01 4.91411E-26
9.61940E-01 4.74561E-26
9.63592E-01 4.58165E-26
9.65209E-01 4.42219E-26
9.66790E-01 4.26715E-26
9.68336E-01 4.11648E-26
9.69846E-01 3.97013E-26
9.71321E-01 3.82804E-26
9.72759E-01 3.69017E-26
9.74162E-01 3.55646E-26
9.75528E-01 3.42686E-26
9.76858E-01 3.30133E-26
9.78152E-01 3.17983E-26
9.79410E-01 3.06230E-26
9.80631E-01 2.94871E-26
9.81815E-01 2.83902E-26
9.82963E-01 2.73318E-26
9.84074E-01 2.63117E-26
9.85148E-01 2.53294E-26
9.86185E-01 2.43846E-26
9.87185E-01 2.34769E-26
9.88148E-01 2.26061E-26
9.89074E-01 2.17719E-26
9.89962E-01 2.09739E-26
9.90814E-01 2.02118E-26
9.91627E-01 1.94855E-26
9.92404E-01 1.87946E-26
9.93143E-01 1.81389E-26
9.93844E-01 1.75182E-26
9.94508E-01 1.69322E-26
9.95134E-01 1.63808E-26
9.95722E-01 1.58638E-26
9.96273E-01 1.53809E-26
9.96786E-01 1.49321E-26
9.97261E-01 1.45172E-26
9.97698E-01 1.41359E-26
9.98097E-01 1.37883E-26
9.98459E-01 1.34741E-26
9.98782E-01 1.31933E-26
9.99067E-01 1.29457E-26
9.99315E-01 1.27314E-26
9.99524E-01 1.25501E-26
9.99695E-01 1.24019E-26
9.99829E-01 1.22866E-26
9.99924E-01 1.22043E-26
9.99981E-01 1.21550E-26
1.00000E+00 1.21385E-26
