 #
 # Subroutine ELSEPA. Elastic scattering of electrons and positrons
 #                    by neutral atoms and positive ions
 #
 # Projectile: electron
 # Kinetic energy = 1.75000E+08 eV = 6.43113E+06 a.u.
 #
 # WARNING: High-energy factorization with free-atom DF screening.
 #          Absorption, polarization and exchange corrections are
 #          switched off.
 #          Phase shifts are calculated for the bare nucleus.
 #          Scattering amplitudes are not evaluated.
 #
 # Element: Se,  Z =  34,  atomic weight = 7.89600E+01 g/mol
 #
 # Nuclear model: Fermi distribution
 #                Average radius = 4.59042E-13 cm
 #                Skin thickness = 5.46000E-14 cm
 #
 # Number of electrons = 34
 #
 # Total elastic cross section = 2.60764E-18 cm**2 = 9.31206E-02 a0**2
 # 1st transport cross section = 7.61781E-26 cm**2 = 2.72037E-09 a0**2
 # 2nd transport cross section = 2.27784E-25 cm**2 = 8.13431E-09 a0**2
 #
 #
 # Differential cross section:                       MU=(1-COS(THETA))/2
 #
 #  THETA        MU          DCS          DCS        Sherman      error
 #  (deg)                 (cm**2/sr)   (a0**2/sr)    function
 #----------------------------------------------------------------------
0.00000E+00 6.06007E-10
7.61557E-13 6.02629E-10
1.18994E-12 6.00744E-10
1.71346E-12 5.98453E-10
2.33225E-12 5.95762E-10
3.04617E-12 5.92680E-10
3.85530E-12 5.89217E-10
4.75964E-12 5.85382E-10
5.75917E-12 5.81186E-10
6.85391E-12 5.76642E-10
8.04379E-12 5.71724E-10
9.32893E-12 5.66485E-10
1.07092E-11 5.61005E-10
1.21847E-11 5.55219E-10
1.37554E-11 5.49082E-10
1.54213E-11 5.42773E-10
1.71823E-11 5.36242E-10
1.90386E-11 5.29347E-10
2.09900E-11 5.22351E-10
2.30367E-11 5.15235E-10
2.51785E-11 5.07730E-10
2.74156E-11 5.00193E-10
2.97478E-11 4.92644E-10
3.21752E-11 4.84686E-10
3.46979E-11 4.76753E-10
3.73157E-11 4.68869E-10
4.00286E-11 4.60658E-10
4.28368E-11 4.52470E-10
4.57402E-11 4.44384E-10
4.87388E-11 4.36063E-10
5.18325E-11 4.27752E-10
5.50215E-11 4.19585E-10
5.83057E-11 4.11282E-10
6.16850E-11 4.02964E-10
6.51595E-11 3.94826E-10
6.87293E-11 3.86647E-10
7.23943E-11 3.78427E-10
7.61544E-11 3.70411E-10
1.18991E-10 2.94512E-10
1.71347E-10 2.30221E-10
2.33223E-10 1.78964E-10
3.04617E-10 1.39462E-10
3.85531E-10 1.09545E-10
4.75965E-10 8.70247E-11
5.75917E-10 7.00270E-11
6.85389E-10 5.71160E-11
8.04380E-10 4.70195E-11
9.32891E-10 3.92060E-11
1.07092E-09 3.32443E-11
1.21847E-09 2.84382E-11
1.37554E-09 2.43980E-11
1.54213E-09 2.11955E-11
1.71823E-09 1.85505E-11
1.90386E-09 1.62039E-11
2.09900E-09 1.42907E-11
2.30367E-09 1.26926E-11
2.51785E-09 1.12133E-11
2.74156E-09 9.98158E-12
2.97478E-09 8.94757E-12
3.21752E-09 7.96831E-12
3.46978E-09 7.13831E-12
3.73156E-09 6.43111E-12
4.00286E-09 5.77096E-12
4.28368E-09 5.19649E-12
4.57402E-09 4.70100E-12
4.87388E-09 4.24526E-12
5.18326E-09 3.84088E-12
5.50215E-09 3.48843E-12
5.83057E-09 3.16789E-12
6.16850E-09 2.87962E-12
6.51596E-09 2.62606E-12
6.87293E-09 2.39702E-12
7.23942E-09 2.18920E-12
7.61544E-09 2.00489E-12
1.18991E-08 8.99406E-13
1.71347E-08 4.60917E-13
2.33223E-08 2.62226E-13
3.04617E-08 1.61168E-13
3.85531E-08 1.04777E-13
4.75965E-08 7.10483E-14
5.75917E-08 4.98115E-14
6.85389E-08 3.58904E-14
8.04380E-08 2.64470E-14
9.32891E-08 1.99099E-14
1.07092E-07 1.52577E-14
1.21847E-07 1.18732E-14
1.37554E-07 9.37510E-15
1.54213E-07 7.49936E-15
1.71823E-07 6.06947E-15
1.90386E-07 4.96462E-15
2.09900E-07 4.09977E-15
2.30367E-07 3.41567E-15
2.51785E-07 2.86883E-15
2.74156E-07 2.42744E-15
2.97478E-07 2.06798E-15
3.21752E-07 1.77274E-15
3.46978E-07 1.52850E-15
3.73156E-07 1.32503E-15
4.00286E-07 1.15440E-15
4.28368E-07 1.01044E-15
4.57402E-07 8.88239E-16
4.87388E-07 7.84005E-16
5.18325E-07 6.94649E-16
5.50215E-07 6.17687E-16
5.83057E-07 5.51107E-16
6.16850E-07 4.93251E-16
6.51596E-07 4.42799E-16
6.87293E-07 3.98641E-16
7.23942E-07 3.59855E-16
7.61543E-07 3.25675E-16
1.18991E-06 1.34875E-16
1.71347E-06 6.54722E-17
2.33223E-06 3.54835E-17
3.04617E-06 2.08541E-17
3.85531E-06 1.30421E-17
4.75964E-06 8.56757E-18
5.75916E-06 5.85715E-18
6.85388E-06 4.13845E-18
8.04378E-06 3.00630E-18
9.32888E-06 2.23611E-18
1.07092E-05 1.69749E-18
1.21846E-05 1.31171E-18
1.37553E-05 1.02956E-18
1.54212E-05 8.19356E-19
1.71822E-05 6.60167E-19
1.90385E-05 5.37777E-19
2.09899E-05 4.42599E-19
2.30365E-05 3.67565E-19
2.51783E-05 3.07759E-19
2.74153E-05 2.59621E-19
2.97475E-05 2.20530E-19
3.21749E-05 1.88527E-19
3.46974E-05 1.62131E-19
3.73152E-05 1.40203E-19
4.00281E-05 1.21867E-19
4.28362E-05 1.06435E-19
4.57395E-05 9.33716E-20
4.87380E-05 8.22513E-20
5.18317E-05 7.27371E-20
5.50205E-05 6.45587E-20
5.83045E-05 5.74980E-20
6.16838E-05 5.13772E-20
6.51582E-05 4.60505E-20
6.87277E-05 4.13977E-20
7.23925E-05 3.73187E-20
7.61524E-05 3.37394E-20
9.21439E-05 2.30578E-20
1.09658E-04 1.62889E-20
1.28695E-04 1.18326E-20
1.49255E-04 8.80131E-21
1.71338E-04 6.68199E-21
1.94942E-04 5.16395E-21
2.20070E-04 4.05367E-21
2.46720E-04 3.22647E-21
2.74892E-04 2.59992E-21
3.04586E-04 2.11839E-21
3.35803E-04 1.74333E-21
3.68542E-04 1.44774E-21
4.02802E-04 1.21222E-21
4.38585E-04 1.02269E-21
4.75889E-04 8.68793E-22
5.14715E-04 7.42767E-22
5.55063E-04 6.38778E-22
5.96931E-04 5.52354E-22
6.40321E-04 4.80052E-22
6.85233E-04 4.19193E-22
7.31665E-04 3.67667E-22
7.79618E-04 3.23812E-22
8.29092E-04 2.86294E-22
8.80086E-04 2.54047E-22
9.32601E-04 2.26207E-22
9.86636E-04 2.02070E-22
1.04219E-03 1.81061E-22
1.09927E-03 1.62705E-22
1.15786E-03 1.46611E-22
1.21797E-03 1.32453E-22
1.27961E-03 1.19958E-22
1.34276E-03 1.08896E-22
1.40743E-03 9.90758E-23
1.47362E-03 9.03333E-23
1.54133E-03 8.25298E-23
1.61056E-03 7.55469E-23
1.68131E-03 6.92834E-23
1.75357E-03 6.36521E-23
1.82735E-03 5.85782E-23
1.90265E-03 5.39968E-23
1.97947E-03 4.98516E-23
2.05780E-03 4.60939E-23
2.13765E-03 4.26811E-23
2.21902E-03 3.95760E-23
2.30190E-03 3.67458E-23
2.38630E-03 3.41620E-23
2.47222E-03 3.17993E-23
2.55965E-03 2.96354E-23
2.64859E-03 2.76507E-23
2.73905E-03 2.58276E-23
2.83103E-03 2.41507E-23
2.92452E-03 2.26062E-23
3.01952E-03 2.11818E-23
3.11604E-03 1.98664E-23
3.21407E-03 1.86503E-23
3.31362E-03 1.75246E-23
3.41468E-03 1.64813E-23
3.51725E-03 1.55135E-23
3.62133E-03 1.46146E-23
3.72692E-03 1.37789E-23
3.83403E-03 1.30011E-23
3.94265E-03 1.22765E-23
4.05278E-03 1.16009E-23
4.16442E-03 1.09702E-23
4.27757E-03 1.03811E-23
4.39223E-03 9.83025E-24
4.50840E-03 9.31475E-24
4.62608E-03 8.83193E-24
4.74527E-03 8.37935E-24
4.86597E-03 7.95477E-24
4.98817E-03 7.55616E-24
5.11188E-03 7.18165E-24
5.23711E-03 6.82952E-24
5.36383E-03 6.49820E-24
5.49207E-03 6.18624E-24
5.62181E-03 5.89231E-24
5.75306E-03 5.61519E-24
5.88581E-03 5.35373E-24
6.02007E-03 5.10691E-24
6.15583E-03 4.87376E-24
6.29310E-03 4.65338E-24
6.43187E-03 4.44496E-24
6.57214E-03 4.24773E-24
6.71392E-03 4.06098E-24
6.85720E-03 3.88407E-24
7.00198E-03 3.71638E-24
7.14827E-03 3.55735E-24
7.29605E-03 3.40645E-24
7.44534E-03 3.26320E-24
7.59612E-03 3.12713E-24
7.97965E-03 2.81572E-24
8.37255E-03 2.54080E-24
8.77480E-03 2.29743E-24
9.18641E-03 2.08141E-24
9.60736E-03 1.88919E-24
1.00376E-02 1.71773E-24
1.04773E-02 1.56445E-24
1.09262E-02 1.42712E-24
1.13844E-02 1.30382E-24
1.18520E-02 1.19289E-24
1.23288E-02 1.09292E-24
1.28150E-02 1.00264E-24
1.33104E-02 9.20981E-25
1.38150E-02 8.46993E-25
1.43290E-02 7.79848E-25
1.48521E-02 7.18819E-25
1.53845E-02 6.63267E-25
1.59262E-02 6.12628E-25
1.64770E-02 5.66405E-25
1.70371E-02 5.24157E-25
1.76063E-02 4.85494E-25
1.81848E-02 4.50067E-25
1.87724E-02 4.17569E-25
1.93692E-02 3.87723E-25
1.99751E-02 3.60284E-25
2.05901E-02 3.35030E-25
2.12143E-02 3.11764E-25
2.18476E-02 2.90309E-25
2.24900E-02 2.70505E-25
2.31415E-02 2.52209E-25
2.38021E-02 2.35290E-25
2.44717E-02 2.19632E-25
2.51504E-02 2.05129E-25
2.58382E-02 1.91686E-25
2.65349E-02 1.79215E-25
2.72407E-02 1.67637E-25
2.79555E-02 1.56881E-25
2.86793E-02 1.46882E-25
2.94120E-02 1.37580E-25
3.01537E-02 1.28921E-25
3.09043E-02 1.20856E-25
3.16639E-02 1.13339E-25
3.24324E-02 1.06329E-25
3.32098E-02 9.97880E-26
3.39961E-02 9.36816E-26
3.47912E-02 8.79777E-26
3.55952E-02 8.26472E-26
3.64081E-02 7.76632E-26
3.72297E-02 7.30008E-26
3.80602E-02 6.86374E-26
3.88995E-02 6.45520E-26
3.97476E-02 6.07253E-26
4.06044E-02 5.71393E-26
4.14700E-02 5.37776E-26
4.23443E-02 5.06249E-26
4.32273E-02 4.76671E-26
4.41190E-02 4.48912E-26
4.50194E-02 4.22852E-26
4.59284E-02 3.98377E-26
4.68461E-02 3.75384E-26
4.87074E-02 3.33464E-26
5.06030E-02 2.96401E-26
5.25328E-02 2.63596E-26
5.44967E-02 2.34530E-26
5.64946E-02 2.08753E-26
5.85262E-02 1.85873E-26
6.05914E-02 1.65548E-26
6.26901E-02 1.47480E-26
6.48222E-02 1.31408E-26
6.69873E-02 1.17102E-26
6.91854E-02 1.04363E-26
7.14163E-02 9.30126E-27
7.36799E-02 8.28956E-27
7.59760E-02 7.38748E-27
7.83043E-02 6.58289E-27
8.06647E-02 5.86507E-27
8.30571E-02 5.22453E-27
8.54812E-02 4.65287E-27
8.79369E-02 4.14263E-27
9.04240E-02 3.68719E-27
9.29422E-02 3.28064E-27
9.54915E-02 2.91777E-27
9.80716E-02 2.59391E-27
1.00682E-01 2.30489E-27
1.03323E-01 2.04703E-27
1.05995E-01 1.81700E-27
1.08696E-01 1.61187E-27
1.11427E-01 1.42899E-27
1.14188E-01 1.26601E-27
1.16978E-01 1.12083E-27
1.19797E-01 9.91554E-28
1.22645E-01 8.76505E-28
1.25522E-01 7.74171E-28
1.28428E-01 6.83202E-28
1.31361E-01 6.02389E-28
1.34323E-01 5.30648E-28
1.37313E-01 4.67009E-28
1.40330E-01 4.10602E-28
1.43375E-01 3.60650E-28
1.46447E-01 3.16454E-28
1.49545E-01 2.77390E-28
1.52671E-01 2.42898E-28
1.55823E-01 2.12476E-28
1.59001E-01 1.85677E-28
1.62205E-01 1.62098E-28
1.65435E-01 1.41380E-28
1.68690E-01 1.23201E-28
1.71970E-01 1.07274E-28
1.75276E-01 9.33416E-29
1.78606E-01 8.11747E-29
1.81961E-01 7.05680E-29
1.85340E-01 6.13386E-29
1.88743E-01 5.33235E-29
1.92169E-01 4.63772E-29
1.95619E-01 4.03704E-29
1.99092E-01 3.51880E-29
2.02589E-01 3.07277E-29
2.06107E-01 2.68986E-29
2.09649E-01 2.36202E-29
2.13212E-01 2.08212E-29
2.16797E-01 1.84385E-29
2.20404E-01 1.64162E-29
2.24032E-01 1.47052E-29
2.27680E-01 1.32622E-29
2.31350E-01 1.20491E-29
2.35040E-01 1.10325E-29
2.38751E-01 1.01831E-29
2.42481E-01 9.47543E-30
2.46231E-01 8.88709E-30
2.50000E-01 8.39876E-30
2.53788E-01 7.99365E-30
2.57595E-01 7.65726E-30
2.61421E-01 7.37710E-30
2.65264E-01 7.14246E-30
2.69126E-01 6.94422E-30
2.73005E-01 6.77460E-30
2.76901E-01 6.62707E-30
2.80814E-01 6.49612E-30
2.84744E-01 6.37717E-30
2.88691E-01 6.26647E-30
2.92653E-01 6.16092E-30
2.96632E-01 6.05805E-30
3.00625E-01 5.95590E-30
3.04634E-01 5.85295E-30
3.08658E-01 5.74807E-30
3.12697E-01 5.64042E-30
3.16749E-01 5.52947E-30
3.20816E-01 5.41487E-30
3.24896E-01 5.29650E-30
3.28990E-01 5.17436E-30
3.33097E-01 5.04859E-30
3.37216E-01 4.91941E-30
3.41348E-01 4.78714E-30
3.45492E-01 4.65214E-30
3.49647E-01 4.51480E-30
3.53814E-01 4.37557E-30
3.57992E-01 4.23489E-30
3.62181E-01 4.09320E-30
3.66381E-01 3.95095E-30
3.70590E-01 3.80859E-30
3.74810E-01 3.66653E-30
3.79039E-01 3.52519E-30
3.83277E-01 3.38494E-30
3.87524E-01 3.24615E-30
3.91780E-01 3.10915E-30
3.96044E-01 2.97424E-30
4.00316E-01 2.84170E-30
4.04596E-01 2.71179E-30
4.08882E-01 2.58472E-30
4.13176E-01 2.46070E-30
4.17476E-01 2.33989E-30
4.21783E-01 2.22244E-30
4.26095E-01 2.10846E-30
4.30413E-01 1.99805E-30
4.34737E-01 1.89130E-30
4.39065E-01 1.78824E-30
4.43398E-01 1.68892E-30
4.47736E-01 1.59335E-30
4.52077E-01 1.50154E-30
4.56422E-01 1.41347E-30
4.60770E-01 1.32911E-30
4.65122E-01 1.24843E-30
4.69476E-01 1.17137E-30
4.73832E-01 1.09788E-30
4.78190E-01 1.02788E-30
4.82550E-01 9.61290E-31
4.86912E-01 8.98038E-31
4.91274E-01 8.38031E-31
4.95637E-01 7.81176E-31
5.00000E-01 7.27375E-31
5.04363E-01 6.76529E-31
5.08726E-01 6.28536E-31
5.13088E-01 5.83291E-31
5.17450E-01 5.40689E-31
5.21810E-01 5.00627E-31
5.26168E-01 4.62998E-31
5.30524E-01 4.27697E-31
5.34878E-01 3.94623E-31
5.39230E-01 3.63672E-31
5.43578E-01 3.34743E-31
5.47923E-01 3.07739E-31
5.52264E-01 2.82563E-31
5.56602E-01 2.59121E-31
5.60935E-01 2.37320E-31
5.65263E-01 2.17073E-31
5.69587E-01 1.98294E-31
5.73905E-01 1.80898E-31
5.78217E-01 1.64807E-31
5.82524E-01 1.49942E-31
5.86824E-01 1.36230E-31
5.91118E-01 1.23600E-31
5.95404E-01 1.11983E-31
5.99684E-01 1.01315E-31
6.03956E-01 9.15325E-32
6.08220E-01 8.25776E-32
6.12476E-01 7.43937E-32
6.16723E-01 6.69275E-32
6.20961E-01 6.01281E-32
6.25190E-01 5.39478E-32
6.29410E-01 4.83411E-32
6.33619E-01 4.32654E-32
6.37819E-01 3.86801E-32
6.42008E-01 3.45474E-32
6.46186E-01 3.08314E-32
6.50353E-01 2.74988E-32
6.54508E-01 2.45181E-32
6.58652E-01 2.18598E-32
6.62784E-01 1.94965E-32
6.66903E-01 1.74025E-32
6.71010E-01 1.55538E-32
6.75104E-01 1.39281E-32
6.79184E-01 1.25049E-32
6.83251E-01 1.12647E-32
6.87303E-01 1.01900E-32
6.91342E-01 9.26405E-33
6.95366E-01 8.47180E-33
6.99375E-01 7.79917E-33
7.03368E-01 7.23324E-33
7.07347E-01 6.76215E-33
7.11309E-01 6.37501E-33
7.15256E-01 6.06184E-33
7.19186E-01 5.81354E-33
7.23099E-01 5.62180E-33
7.26995E-01 5.47905E-33
7.30874E-01 5.37845E-33
7.34736E-01 5.31378E-33
7.38579E-01 5.27942E-33
7.42405E-01 5.27034E-33
7.46212E-01 5.28199E-33
7.50000E-01 5.31032E-33
7.53769E-01 5.35171E-33
7.57519E-01 5.40294E-33
7.61249E-01 5.46119E-33
7.64960E-01 5.52394E-33
7.68650E-01 5.58902E-33
7.72320E-01 5.65452E-33
7.75968E-01 5.71881E-33
7.79596E-01 5.78048E-33
7.83203E-01 5.83835E-33
7.86788E-01 5.89143E-33
7.90351E-01 5.93889E-33
7.93893E-01 5.98009E-33
7.97411E-01 6.01450E-33
8.00908E-01 6.04174E-33
8.04381E-01 6.06153E-33
8.07831E-01 6.07369E-33
8.11257E-01 6.07813E-33
8.14660E-01 6.07485E-33
8.18039E-01 6.06390E-33
8.21394E-01 6.04540E-33
8.24724E-01 6.01950E-33
8.28030E-01 5.98643E-33
8.31310E-01 5.94642E-33
8.34565E-01 5.89976E-33
8.37795E-01 5.84673E-33
8.40999E-01 5.78766E-33
8.44177E-01 5.72289E-33
8.47329E-01 5.65274E-33
8.50455E-01 5.57758E-33
8.53553E-01 5.49777E-33
8.56625E-01 5.41364E-33
8.59670E-01 5.32557E-33
8.62687E-01 5.23390E-33
8.65677E-01 5.13897E-33
8.68639E-01 5.04113E-33
8.71572E-01 4.94071E-33
8.74478E-01 4.83802E-33
8.77355E-01 4.73337E-33
8.80203E-01 4.62708E-33
8.83022E-01 4.51941E-33
8.85812E-01 4.41066E-33
8.88573E-01 4.30107E-33
8.91304E-01 4.19090E-33
8.94005E-01 4.08039E-33
8.96677E-01 3.96975E-33
8.99318E-01 3.85921E-33
9.01928E-01 3.74895E-33
9.04508E-01 3.63916E-33
9.07058E-01 3.53002E-33
9.09576E-01 3.42168E-33
9.12063E-01 3.31429E-33
9.14519E-01 3.20799E-33
9.16943E-01 3.10290E-33
9.19335E-01 2.99914E-33
9.21696E-01 2.89682E-33
9.24024E-01 2.79602E-33
9.26320E-01 2.69684E-33
9.28584E-01 2.59934E-33
9.30815E-01 2.50360E-33
9.33013E-01 2.40968E-33
9.35178E-01 2.31762E-33
9.37310E-01 2.22748E-33
9.39409E-01 2.13928E-33
9.41474E-01 2.05306E-33
9.43505E-01 1.96884E-33
9.45503E-01 1.88665E-33
9.47467E-01 1.80649E-33
9.49397E-01 1.72837E-33
9.51293E-01 1.65231E-33
9.53154E-01 1.57829E-33
9.54981E-01 1.50632E-33
9.56773E-01 1.43638E-33
9.58530E-01 1.36847E-33
9.60252E-01 1.30258E-33
9.61940E-01 1.23868E-33
9.63592E-01 1.17676E-33
9.65209E-01 1.11679E-33
9.66790E-01 1.05876E-33
9.68336E-01 1.00264E-33
9.69846E-01 9.48402E-34
9.71321E-01 8.96020E-34
9.72759E-01 8.45467E-34
9.74162E-01 7.96712E-34
9.75528E-01 7.49726E-34
9.76858E-01 7.04479E-34
9.78152E-01 6.60938E-34
9.79410E-01 6.19075E-34
9.80631E-01 5.78856E-34
9.81815E-01 5.40252E-34
9.82963E-01 5.03231E-34
9.84074E-01 4.67761E-34
9.85148E-01 4.33814E-34
9.86185E-01 4.01357E-34
9.87185E-01 3.70362E-34
9.88148E-01 3.40799E-34
9.89074E-01 3.12641E-34
9.89962E-01 2.85859E-34
9.90814E-01 2.60426E-34
9.91627E-01 2.36316E-34
9.92404E-01 2.13504E-34
9.93143E-01 1.91965E-34
9.93844E-01 1.71676E-34
9.94508E-01 1.52615E-34
9.95134E-01 1.34760E-34
9.95722E-01 1.18091E-34
9.96273E-01 1.02588E-34
9.96786E-01 8.82357E-35
9.97261E-01 7.50142E-35
9.97698E-01 6.29093E-35
9.98097E-01 5.19057E-35
9.98459E-01 4.19906E-35
9.98782E-01 3.31523E-35
9.99067E-01 2.53789E-35
9.99315E-01 1.86615E-35
9.99524E-01 1.29917E-35
9.99695E-01 8.36260E-36
9.99829E-01 4.76810E-36
9.99924E-01 2.20373E-36
9.99981E-01 6.66619E-37
1.00000E+00 1.54777E-37
