 #
 # Subroutine ELSEPA. Elastic scattering of electrons and positrons
 #                    by neutral atoms and positive ions
 #
 # Projectile: electron
 # Kinetic energy = 2.50000E+07 eV = 9.18733E+05 a.u.
 #
 # WARNING: High-energy factorization with free-atom DF screening.
 #          Absorption, polarization and exchange corrections are
 #          switched off.
 #          Phase shifts are calculated for the bare nucleus.
 #          Scattering amplitudes are not evaluated.
 #
 # Element: Se,  Z =  34,  atomic weight = 7.89600E+01 g/mol
 #
 # Nuclear model: Fermi distribution
 #                Average radius = 4.59042E-13 cm
 #                Skin thickness = 5.46000E-14 cm
 #
 # Number of electrons = 34
 #
 # Total elastic cross section = 2.60926E-18 cm**2 = 9.31782E-02 a0**2
 # 1st transport cross section = 3.39833E-24 cm**2 = 1.21357E-07 a0**2
 # 2nd transport cross section = 9.79944E-24 cm**2 = 3.49944E-07 a0**2
 #
 #
 # Differential cross section:                       MU=(1-COS(THETA))/2
 #
 #  THETA        MU          DCS          DCS        Sherman      error
 #  (deg)                 (cm**2/sr)   (a0**2/sr)    function
 #----------------------------------------------------------------------
0.00000E+00 1.28034E-11
7.61557E-13 1.28018E-11
1.18994E-12 1.28010E-11
1.71346E-12 1.27999E-11
2.33225E-12 1.27987E-11
3.04617E-12 1.27973E-11
3.85530E-12 1.27957E-11
4.75964E-12 1.27939E-11
5.75917E-12 1.27919E-11
6.85391E-12 1.27897E-11
8.04379E-12 1.27873E-11
9.32893E-12 1.27848E-11
1.07092E-11 1.27821E-11
1.21847E-11 1.27791E-11
1.37554E-11 1.27760E-11
1.54213E-11 1.27727E-11
1.71823E-11 1.27693E-11
1.90386E-11 1.27656E-11
2.09900E-11 1.27617E-11
2.30367E-11 1.27577E-11
2.51785E-11 1.27535E-11
2.74156E-11 1.27490E-11
2.97478E-11 1.27445E-11
3.21752E-11 1.27397E-11
3.46979E-11 1.27347E-11
3.73157E-11 1.27296E-11
4.00286E-11 1.27242E-11
4.28368E-11 1.27187E-11
4.57402E-11 1.27130E-11
4.87388E-11 1.27071E-11
5.18325E-11 1.27010E-11
5.50215E-11 1.26948E-11
5.83057E-11 1.26884E-11
6.16850E-11 1.26818E-11
6.51595E-11 1.26750E-11
6.87293E-11 1.26680E-11
7.23943E-11 1.26608E-11
7.61544E-11 1.26535E-11
1.18991E-10 1.25704E-11
1.71347E-10 1.24700E-11
2.33223E-10 1.23529E-11
3.04617E-10 1.22198E-11
3.85531E-10 1.20706E-11
4.75965E-10 1.19075E-11
5.75917E-10 1.17323E-11
6.85389E-10 1.15428E-11
8.04380E-10 1.13451E-11
9.32891E-10 1.11331E-11
1.07092E-09 1.09169E-11
1.21847E-09 1.06872E-11
1.37554E-09 1.04555E-11
1.54213E-09 1.02138E-11
1.71823E-09 9.97076E-12
1.90386E-09 9.72146E-12
2.09900E-09 9.47096E-12
2.30367E-09 9.21821E-12
2.51785E-09 8.96389E-12
2.74156E-09 8.71129E-12
2.97478E-09 8.45650E-12
3.21752E-09 8.20712E-12
3.46978E-09 7.95482E-12
3.73156E-09 7.71119E-12
4.00286E-09 7.46391E-12
4.28368E-09 7.22652E-12
4.57402E-09 6.98790E-12
4.87388E-09 6.75810E-12
5.18326E-09 6.52998E-12
5.50215E-09 6.30920E-12
5.83057E-09 6.09253E-12
6.16850E-09 5.88181E-12
6.51596E-09 5.67717E-12
6.87293E-09 5.47724E-12
7.23942E-09 5.28487E-12
7.61544E-09 5.09616E-12
1.18991E-08 3.53687E-12
1.71347E-08 2.47444E-12
2.33223E-08 1.76913E-12
3.04617E-08 1.30041E-12
3.85531E-08 9.78674E-13
4.75965E-08 7.57270E-13
5.75917E-08 6.02284E-13
6.85389E-08 4.83952E-13
8.04380E-08 3.97986E-13
9.32891E-08 3.27520E-13
1.07092E-07 2.74891E-13
1.21847E-07 2.29950E-13
1.37554E-07 1.95138E-13
1.54213E-07 1.65413E-13
1.71823E-07 1.41432E-13
1.90386E-07 1.21110E-13
2.09900E-07 1.04201E-13
2.30367E-07 8.99779E-14
2.51785E-07 7.78841E-14
2.74156E-07 6.77489E-14
2.97478E-07 5.90074E-14
3.21752E-07 5.16783E-14
3.46978E-07 4.52994E-14
3.73156E-07 3.99301E-14
4.00286E-07 3.52296E-14
4.28368E-07 3.12365E-14
4.57402E-07 2.77482E-14
4.87388E-07 2.47468E-14
5.18325E-07 2.21259E-14
5.50215E-07 1.98467E-14
5.83057E-07 1.78518E-14
6.16850E-07 1.61021E-14
6.51596E-07 1.45646E-14
6.87293E-07 1.32065E-14
7.23942E-07 1.20074E-14
7.61543E-07 1.09414E-14
1.18991E-06 4.83795E-15
1.71347E-06 2.48804E-15
2.33223E-06 1.40972E-15
3.04617E-06 8.55529E-16
3.85531E-06 5.46500E-16
4.75964E-06 3.64615E-16
5.75916E-06 2.52052E-16
6.85388E-06 1.79597E-16
8.04378E-06 1.31329E-16
9.32888E-06 9.82347E-17
1.07092E-05 7.49489E-17
1.21846E-05 5.81840E-17
1.37553E-05 4.58655E-17
1.54212E-05 3.66493E-17
1.71822E-05 2.96407E-17
1.90385E-05 2.42311E-17
2.09899E-05 2.00090E-17
2.30365E-05 1.66688E-17
2.51783E-05 1.39975E-17
2.74153E-05 1.18404E-17
2.97475E-05 1.00831E-17
3.21749E-05 8.64002E-18
3.46974E-05 7.44646E-18
3.73152E-05 6.45238E-18
4.00281E-05 5.61901E-18
4.28362E-05 4.91604E-18
4.57395E-05 4.31960E-18
4.87380E-05 3.81076E-18
5.18317E-05 3.37458E-18
5.50205E-05 2.99896E-18
5.83045E-05 2.67411E-18
6.16838E-05 2.39206E-18
6.51582E-05 2.14624E-18
6.87277E-05 1.93119E-18
7.23925E-05 1.74242E-18
7.61524E-05 1.57620E-18
9.21439E-05 1.08015E-18
1.09658E-04 7.64669E-19
1.28695E-04 5.56391E-19
1.49255E-04 4.14402E-19
1.71338E-04 3.14958E-19
1.94942E-04 2.43628E-19
2.20070E-04 1.91399E-19
2.46720E-04 1.52450E-19
2.74892E-04 1.22925E-19
3.04586E-04 1.00218E-19
3.35803E-04 8.25228E-20
3.68542E-04 6.85691E-20
4.02802E-04 5.74459E-20
4.38585E-04 4.84913E-20
4.75889E-04 4.12172E-20
5.14715E-04 3.52585E-20
5.55063E-04 3.03400E-20
5.96931E-04 2.62509E-20
6.40321E-04 2.28290E-20
6.85233E-04 1.99476E-20
7.31665E-04 1.75074E-20
7.79618E-04 1.54298E-20
8.29092E-04 1.36518E-20
8.80086E-04 1.21232E-20
9.32601E-04 1.08029E-20
9.86636E-04 9.65794E-21
1.04219E-03 8.66098E-21
1.09927E-03 7.78963E-21
1.15786E-03 7.02536E-21
1.21797E-03 6.35275E-21
1.27961E-03 5.75891E-21
1.34276E-03 5.23300E-21
1.40743E-03 4.76591E-21
1.47362E-03 4.34990E-21
1.54133E-03 3.97841E-21
1.61056E-03 3.64584E-21
1.68131E-03 3.34738E-21
1.75357E-03 3.07892E-21
1.82735E-03 2.83691E-21
1.90265E-03 2.61828E-21
1.97947E-03 2.42036E-21
2.05780E-03 2.24084E-21
2.13765E-03 2.07771E-21
2.21902E-03 1.92920E-21
2.30190E-03 1.79376E-21
2.38630E-03 1.67003E-21
2.47222E-03 1.55682E-21
2.55965E-03 1.45307E-21
2.64859E-03 1.35784E-21
2.73905E-03 1.27032E-21
2.83103E-03 1.18975E-21
2.92452E-03 1.11549E-21
3.01952E-03 1.04696E-21
3.11604E-03 9.83621E-22
3.21407E-03 9.25019E-22
3.31362E-03 8.70731E-22
3.41468E-03 8.20381E-22
3.51725E-03 7.73631E-22
3.62133E-03 7.30174E-22
3.72692E-03 6.89738E-22
3.83403E-03 6.52071E-22
3.94265E-03 6.16950E-22
4.05278E-03 5.84172E-22
4.16442E-03 5.53548E-22
4.27757E-03 5.24914E-22
4.39223E-03 4.98112E-22
4.50840E-03 4.73007E-22
4.62608E-03 4.49469E-22
4.74527E-03 4.27383E-22
4.86597E-03 4.06642E-22
4.98817E-03 3.87149E-22
5.11188E-03 3.68815E-22
5.23711E-03 3.51557E-22
5.36383E-03 3.35301E-22
5.49207E-03 3.19978E-22
5.62181E-03 3.05523E-22
5.75306E-03 2.91879E-22
5.88581E-03 2.78991E-22
6.02007E-03 2.66810E-22
6.15583E-03 2.55289E-22
6.29310E-03 2.44385E-22
6.43187E-03 2.34060E-22
6.57214E-03 2.24277E-22
6.71392E-03 2.15002E-22
6.85720E-03 2.06203E-22
7.00198E-03 1.97852E-22
7.14827E-03 1.89921E-22
7.29605E-03 1.82385E-22
7.44534E-03 1.75221E-22
7.59612E-03 1.68407E-22
7.97965E-03 1.52772E-22
8.37255E-03 1.38917E-22
8.77480E-03 1.26603E-22
9.18641E-03 1.15631E-22
9.60736E-03 1.05826E-22
1.00376E-02 9.70430E-23
1.04773E-02 8.91565E-23
1.09262E-02 8.20583E-23
1.13844E-02 7.56558E-23
1.18520E-02 6.98682E-23
1.23288E-02 6.46259E-23
1.28150E-02 5.98684E-23
1.33104E-02 5.55424E-23
1.38150E-02 5.16018E-23
1.43290E-02 4.80062E-23
1.48521E-02 4.47194E-23
1.53845E-02 4.17107E-23
1.59262E-02 3.89513E-23
1.64770E-02 3.64179E-23
1.70371E-02 3.40875E-23
1.76063E-02 3.19416E-23
1.81848E-02 2.99625E-23
1.87724E-02 2.81349E-23
1.93692E-02 2.64451E-23
1.99751E-02 2.48808E-23
2.05901E-02 2.34308E-23
2.12143E-02 2.20854E-23
2.18476E-02 2.08355E-23
2.24900E-02 1.96730E-23
2.31415E-02 1.85908E-23
2.38021E-02 1.75823E-23
2.44717E-02 1.66415E-23
2.51504E-02 1.57629E-23
2.58382E-02 1.49417E-23
2.65349E-02 1.41735E-23
2.72407E-02 1.34542E-23
2.79555E-02 1.27801E-23
2.86793E-02 1.21477E-23
2.94120E-02 1.15541E-23
3.01537E-02 1.09964E-23
3.09043E-02 1.04721E-23
3.16639E-02 9.97864E-24
3.24324E-02 9.51400E-24
3.32098E-02 9.07614E-24
3.39961E-02 8.66323E-24
3.47912E-02 8.27357E-24
3.55952E-02 7.90561E-24
3.64081E-02 7.55791E-24
3.72297E-02 7.22913E-24
3.80602E-02 6.91806E-24
3.88995E-02 6.62355E-24
3.97476E-02 6.34456E-24
4.06044E-02 6.08011E-24
4.14700E-02 5.82931E-24
4.23443E-02 5.59130E-24
4.32273E-02 5.36532E-24
4.41190E-02 5.15064E-24
4.50194E-02 4.94658E-24
4.59284E-02 4.75252E-24
4.68461E-02 4.56788E-24
4.87074E-02 4.22470E-24
5.06030E-02 3.91312E-24
5.25328E-02 3.62968E-24
5.44967E-02 3.37139E-24
5.64946E-02 3.13562E-24
5.85262E-02 2.92003E-24
6.05914E-02 2.72260E-24
6.26901E-02 2.54151E-24
6.48222E-02 2.37516E-24
6.69873E-02 2.22213E-24
6.91854E-02 2.08116E-24
7.14163E-02 1.95113E-24
7.36799E-02 1.83104E-24
7.59760E-02 1.71997E-24
7.83043E-02 1.61714E-24
8.06647E-02 1.52182E-24
8.30571E-02 1.43336E-24
8.54812E-02 1.35117E-24
8.79369E-02 1.27473E-24
9.04240E-02 1.20356E-24
9.29422E-02 1.13724E-24
9.54915E-02 1.07537E-24
9.80716E-02 1.01760E-24
1.00682E-01 9.63603E-25
1.03323E-01 9.13094E-25
1.05995E-01 8.65804E-25
1.08696E-01 8.21490E-25
1.11427E-01 7.79930E-25
1.14188E-01 7.40923E-25
1.16978E-01 7.04282E-25
1.19797E-01 6.69839E-25
1.22645E-01 6.37436E-25
1.25522E-01 6.06931E-25
1.28428E-01 5.78193E-25
1.31361E-01 5.51101E-25
1.34323E-01 5.25543E-25
1.37313E-01 5.01417E-25
1.40330E-01 4.78627E-25
1.43375E-01 4.57087E-25
1.46447E-01 4.36715E-25
1.49545E-01 4.17437E-25
1.52671E-01 3.99183E-25
1.55823E-01 3.81889E-25
1.59001E-01 3.65496E-25
1.62205E-01 3.49947E-25
1.65435E-01 3.35193E-25
1.68690E-01 3.21184E-25
1.71970E-01 3.07877E-25
1.75276E-01 2.95230E-25
1.78606E-01 2.83204E-25
1.81961E-01 2.71764E-25
1.85340E-01 2.60876E-25
1.88743E-01 2.50508E-25
1.92169E-01 2.40632E-25
1.95619E-01 2.31220E-25
1.99092E-01 2.22245E-25
2.02589E-01 2.13685E-25
2.06107E-01 2.05517E-25
2.09649E-01 1.97720E-25
2.13212E-01 1.90273E-25
2.16797E-01 1.83159E-25
2.20404E-01 1.76360E-25
2.24032E-01 1.69859E-25
2.27680E-01 1.63641E-25
2.31350E-01 1.57693E-25
2.35040E-01 1.51999E-25
2.38751E-01 1.46547E-25
2.42481E-01 1.41326E-25
2.46231E-01 1.36324E-25
2.50000E-01 1.31530E-25
2.53788E-01 1.26933E-25
2.57595E-01 1.22525E-25
2.61421E-01 1.18296E-25
2.65264E-01 1.14239E-25
2.69126E-01 1.10344E-25
2.73005E-01 1.06604E-25
2.76901E-01 1.03012E-25
2.80814E-01 9.95607E-26
2.84744E-01 9.62444E-26
2.88691E-01 9.30566E-26
2.92653E-01 8.99914E-26
2.96632E-01 8.70435E-26
3.00625E-01 8.42076E-26
3.04634E-01 8.14786E-26
3.08658E-01 7.88520E-26
3.12697E-01 7.63233E-26
3.16749E-01 7.38881E-26
3.20816E-01 7.15426E-26
3.24896E-01 6.92828E-26
3.28990E-01 6.71052E-26
3.33097E-01 6.50062E-26
3.37216E-01 6.29825E-26
3.41348E-01 6.10311E-26
3.45492E-01 5.91490E-26
3.49647E-01 5.73332E-26
3.53814E-01 5.55811E-26
3.57992E-01 5.38901E-26
3.62181E-01 5.22578E-26
3.66381E-01 5.06817E-26
3.70590E-01 4.91597E-26
3.74810E-01 4.76895E-26
3.79039E-01 4.62693E-26
3.83277E-01 4.48969E-26
3.87524E-01 4.35706E-26
3.91780E-01 4.22885E-26
3.96044E-01 4.10490E-26
4.00316E-01 3.98505E-26
4.04596E-01 3.86913E-26
4.08882E-01 3.75700E-26
4.13176E-01 3.64852E-26
4.17476E-01 3.54355E-26
4.21783E-01 3.44196E-26
4.26095E-01 3.34363E-26
4.30413E-01 3.24843E-26
4.34737E-01 3.15625E-26
4.39065E-01 3.06698E-26
4.43398E-01 2.98052E-26
4.47736E-01 2.89676E-26
4.52077E-01 2.81561E-26
4.56422E-01 2.73698E-26
4.60770E-01 2.66077E-26
4.65122E-01 2.58690E-26
4.69476E-01 2.51530E-26
4.73832E-01 2.44587E-26
4.78190E-01 2.37854E-26
4.82550E-01 2.31325E-26
4.86912E-01 2.24992E-26
4.91274E-01 2.18849E-26
4.95637E-01 2.12888E-26
5.00000E-01 2.07104E-26
5.04363E-01 2.01492E-26
5.08726E-01 1.96044E-26
5.13088E-01 1.90756E-26
5.17450E-01 1.85622E-26
5.21810E-01 1.80638E-26
5.26168E-01 1.75797E-26
5.30524E-01 1.71097E-26
5.34878E-01 1.66531E-26
5.39230E-01 1.62096E-26
5.43578E-01 1.57788E-26
5.47923E-01 1.53602E-26
5.52264E-01 1.49534E-26
5.56602E-01 1.45581E-26
5.60935E-01 1.41739E-26
5.65263E-01 1.38004E-26
5.69587E-01 1.34374E-26
5.73905E-01 1.30844E-26
5.78217E-01 1.27412E-26
5.82524E-01 1.24075E-26
5.86824E-01 1.20829E-26
5.91118E-01 1.17673E-26
5.95404E-01 1.14603E-26
5.99684E-01 1.11616E-26
6.03956E-01 1.08710E-26
6.08220E-01 1.05883E-26
6.12476E-01 1.03131E-26
6.16723E-01 1.00454E-26
6.20961E-01 9.78487E-27
6.25190E-01 9.53127E-27
6.29410E-01 9.28441E-27
6.33619E-01 9.04410E-27
6.37819E-01 8.81015E-27
6.42008E-01 8.58236E-27
6.46186E-01 8.36055E-27
6.50353E-01 8.14456E-27
6.54508E-01 7.93421E-27
6.58652E-01 7.72935E-27
6.62784E-01 7.52980E-27
6.66903E-01 7.33542E-27
6.71010E-01 7.14606E-27
6.75104E-01 6.96158E-27
6.79184E-01 6.78184E-27
6.83251E-01 6.60671E-27
6.87303E-01 6.43605E-27
6.91342E-01 6.26974E-27
6.95366E-01 6.10766E-27
6.99375E-01 5.94968E-27
7.03368E-01 5.79570E-27
7.07347E-01 5.64561E-27
7.11309E-01 5.49930E-27
7.15256E-01 5.35666E-27
7.19186E-01 5.21759E-27
7.23099E-01 5.08200E-27
7.26995E-01 4.94978E-27
7.30874E-01 4.82086E-27
7.34736E-01 4.69514E-27
7.38579E-01 4.57253E-27
7.42405E-01 4.45296E-27
7.46212E-01 4.33633E-27
7.50000E-01 4.22257E-27
7.53769E-01 4.11161E-27
7.57519E-01 4.00337E-27
7.61249E-01 3.89778E-27
7.64960E-01 3.79477E-27
7.68650E-01 3.69427E-27
7.72320E-01 3.59622E-27
7.75968E-01 3.50055E-27
7.79596E-01 3.40720E-27
7.83203E-01 3.31611E-27
7.86788E-01 3.22722E-27
7.90351E-01 3.14048E-27
7.93893E-01 3.05583E-27
7.97411E-01 2.97322E-27
8.00908E-01 2.89260E-27
8.04381E-01 2.81391E-27
8.07831E-01 2.73711E-27
8.11257E-01 2.66216E-27
8.14660E-01 2.58899E-27
8.18039E-01 2.51757E-27
8.21394E-01 2.44786E-27
8.24724E-01 2.37982E-27
8.28030E-01 2.31339E-27
8.31310E-01 2.24855E-27
8.34565E-01 2.18525E-27
8.37795E-01 2.12346E-27
8.40999E-01 2.06314E-27
8.44177E-01 2.00425E-27
8.47329E-01 1.94677E-27
8.50455E-01 1.89065E-27
8.53553E-01 1.83586E-27
8.56625E-01 1.78237E-27
8.59670E-01 1.73016E-27
8.62687E-01 1.67918E-27
8.65677E-01 1.62942E-27
8.68639E-01 1.58084E-27
8.71572E-01 1.53342E-27
8.74478E-01 1.48712E-27
8.77355E-01 1.44193E-27
8.80203E-01 1.39781E-27
8.83022E-01 1.35475E-27
8.85812E-01 1.31272E-27
8.88573E-01 1.27169E-27
8.91304E-01 1.23164E-27
8.94005E-01 1.19256E-27
8.96677E-01 1.15441E-27
8.99318E-01 1.11719E-27
9.01928E-01 1.08086E-27
9.04508E-01 1.04541E-27
9.07058E-01 1.01082E-27
9.09576E-01 9.77066E-28
9.12063E-01 9.44137E-28
9.14519E-01 9.12014E-28
9.16943E-01 8.80678E-28
9.19335E-01 8.50113E-28
9.21696E-01 8.20303E-28
9.24024E-01 7.91232E-28
9.26320E-01 7.62884E-28
9.28584E-01 7.35245E-28
9.30815E-01 7.08301E-28
9.33013E-01 6.82036E-28
9.35178E-01 6.56439E-28
9.37310E-01 6.31494E-28
9.39409E-01 6.07190E-28
9.41474E-01 5.83513E-28
9.43505E-01 5.60452E-28
9.45503E-01 5.37995E-28
9.47467E-01 5.16130E-28
9.49397E-01 4.94846E-28
9.51293E-01 4.74132E-28
9.53154E-01 4.53978E-28
9.54981E-01 4.34373E-28
9.56773E-01 4.15308E-28
9.58530E-01 3.96772E-28
9.60252E-01 3.78758E-28
9.61940E-01 3.61254E-28
9.63592E-01 3.44254E-28
9.65209E-01 3.27748E-28
9.66790E-01 3.11727E-28
9.68336E-01 2.96185E-28
9.69846E-01 2.81113E-28
9.71321E-01 2.66504E-28
9.72759E-01 2.52351E-28
9.74162E-01 2.38646E-28
9.75528E-01 2.25383E-28
9.76858E-01 2.12556E-28
9.78152E-01 2.00157E-28
9.79410E-01 1.88181E-28
9.80631E-01 1.76623E-28
9.81815E-01 1.65476E-28
9.82963E-01 1.54735E-28
9.84074E-01 1.44395E-28
9.85148E-01 1.34450E-28
9.86185E-01 1.24897E-28
9.87185E-01 1.15729E-28
9.88148E-01 1.06944E-28
9.89074E-01 9.85359E-29
9.89962E-01 9.05016E-29
9.90814E-01 8.28369E-29
9.91627E-01 7.55382E-29
9.92404E-01 6.86020E-29
9.93143E-01 6.20248E-29
9.93844E-01 5.58036E-29
9.94508E-01 4.99354E-29
9.95134E-01 4.44173E-29
9.95722E-01 3.92468E-29
9.96273E-01 3.44213E-29
9.96786E-01 2.99385E-29
9.97261E-01 2.57963E-29
9.97698E-01 2.19927E-29
9.98097E-01 1.85258E-29
9.98459E-01 1.53942E-29
9.98782E-01 1.25961E-29
9.99067E-01 1.01304E-29
9.99315E-01 7.99580E-30
9.99524E-01 6.19132E-30
9.99695E-01 4.71610E-30
9.99829E-01 3.56943E-30
9.99924E-01 2.75077E-30
9.99981E-01 2.25973E-30
1.00000E+00 2.09608E-30
