 #
 # Subroutine ELSEPA. Elastic scattering of electrons and positrons
 #                    by neutral atoms and positive ions
 #
 # Projectile: electron
 # Kinetic energy = 3.50000E+06 eV = 1.28623E+05 a.u.
 #
 # WARNING: High-energy factorization with free-atom DF screening.
 #          Absorption, polarization and exchange corrections are
 #          switched off.
 #          Phase shifts are calculated for the bare nucleus.
 #          Scattering amplitudes are not evaluated.
 #
 # Element: Se,  Z =  34,  atomic weight = 7.89600E+01 g/mol
 #
 # Nuclear model: Fermi distribution
 #                Average radius = 4.59042E-13 cm
 #                Skin thickness = 5.46000E-14 cm
 #
 # Number of electrons = 34
 #
 # Total elastic cross section = 2.65502E-18 cm**2 = 9.48125E-02 a0**2
 # 1st transport cross section = 1.09609E-22 cm**2 = 3.91421E-06 a0**2
 # 2nd transport cross section = 3.08334E-22 cm**2 = 1.10108E-05 a0**2
 #
 #
 # Differential cross section:                       MU=(1-COS(THETA))/2
 #
 #  THETA        MU          DCS          DCS        Sherman      error
 #  (deg)                 (cm**2/sr)   (a0**2/sr)    function
 #----------------------------------------------------------------------
0.00000E+00 3.16500E-13
7.61557E-13 3.16499E-13
1.18994E-12 3.16499E-13
1.71346E-12 3.16498E-13
2.33225E-12 3.16498E-13
3.04617E-12 3.16497E-13
3.85530E-12 3.16496E-13
4.75964E-12 3.16495E-13
5.75917E-12 3.16493E-13
6.85391E-12 3.16492E-13
8.04379E-12 3.16491E-13
9.32893E-12 3.16489E-13
1.07092E-11 3.16488E-13
1.21847E-11 3.16486E-13
1.37554E-11 3.16484E-13
1.54213E-11 3.16482E-13
1.71823E-11 3.16480E-13
1.90386E-11 3.16478E-13
2.09900E-11 3.16475E-13
2.30367E-11 3.16473E-13
2.51785E-11 3.16470E-13
2.74156E-11 3.16468E-13
2.97478E-11 3.16465E-13
3.21752E-11 3.16462E-13
3.46979E-11 3.16459E-13
3.73157E-11 3.16456E-13
4.00286E-11 3.16453E-13
4.28368E-11 3.16450E-13
4.57402E-11 3.16446E-13
4.87388E-11 3.16443E-13
5.18325E-11 3.16439E-13
5.50215E-11 3.16435E-13
5.83057E-11 3.16431E-13
6.16850E-11 3.16427E-13
6.51595E-11 3.16423E-13
6.87293E-11 3.16419E-13
7.23943E-11 3.16414E-13
7.61544E-11 3.16410E-13
1.18991E-10 3.16359E-13
1.71347E-10 3.16297E-13
2.33223E-10 3.16223E-13
3.04617E-10 3.16138E-13
3.85531E-10 3.16042E-13
4.75965E-10 3.15935E-13
5.75917E-10 3.15816E-13
6.85389E-10 3.15686E-13
8.04380E-10 3.15545E-13
9.32891E-10 3.15393E-13
1.07092E-09 3.15230E-13
1.21847E-09 3.15055E-13
1.37554E-09 3.14869E-13
1.54213E-09 3.14672E-13
1.71823E-09 3.14465E-13
1.90386E-09 3.14246E-13
2.09900E-09 3.14016E-13
2.30367E-09 3.13775E-13
2.51785E-09 3.13523E-13
2.74156E-09 3.13261E-13
2.97478E-09 3.12987E-13
3.21752E-09 3.12703E-13
3.46978E-09 3.12408E-13
3.73156E-09 3.12103E-13
4.00286E-09 3.11786E-13
4.28368E-09 3.11459E-13
4.57402E-09 3.11122E-13
4.87388E-09 3.10774E-13
5.18326E-09 3.10416E-13
5.50215E-09 3.10047E-13
5.83057E-09 3.09668E-13
6.16850E-09 3.09279E-13
6.51596E-09 3.08879E-13
6.87293E-09 3.08469E-13
7.23942E-09 3.08049E-13
7.61544E-09 3.07620E-13
1.18991E-08 3.02786E-13
1.71347E-08 2.96992E-13
2.33223E-08 2.90421E-13
3.04617E-08 2.83059E-13
3.85531E-08 2.75039E-13
4.75965E-08 2.66516E-13
5.75917E-08 2.57592E-13
6.85389E-08 2.48206E-13
8.04380E-08 2.38626E-13
9.32891E-08 2.28953E-13
1.07092E-07 2.19178E-13
1.21847E-07 2.09356E-13
1.37554E-07 1.99674E-13
1.54213E-07 1.90189E-13
1.71823E-07 1.80790E-13
1.90386E-07 1.71652E-13
2.09900E-07 1.62838E-13
2.30367E-07 1.54337E-13
2.51785E-07 1.46077E-13
2.74156E-07 1.38201E-13
2.97478E-07 1.30708E-13
3.21752E-07 1.23533E-13
3.46978E-07 1.16695E-13
3.73156E-07 1.10238E-13
4.00286E-07 1.04147E-13
4.28368E-07 9.83393E-14
4.57402E-07 9.28762E-14
4.87388E-07 8.77458E-14
5.18325E-07 8.29151E-14
5.50215E-07 7.83504E-14
5.83057E-07 7.40757E-14
6.16850E-07 7.00723E-14
6.51596E-07 6.63015E-14
6.87293E-07 6.27628E-14
7.23942E-07 5.94524E-14
7.61543E-07 5.63543E-14
1.18991E-06 3.41411E-14
1.71347E-06 2.19901E-14
2.33223E-06 1.51878E-14
3.04617E-06 1.08847E-14
3.85531E-06 8.04835E-15
4.75964E-06 6.10584E-15
5.75916E-06 4.71293E-15
6.85388E-06 3.65517E-15
8.04378E-06 2.87316E-15
9.32888E-06 2.28281E-15
1.07092E-05 1.82544E-15
1.21846E-05 1.47001E-15
1.37553E-05 1.19499E-15
1.54212E-05 9.79610E-16
1.71822E-05 8.08102E-16
1.90385E-05 6.72031E-16
2.09899E-05 5.63437E-16
2.30365E-05 4.75757E-16
2.51783E-05 4.04316E-16
2.74153E-05 3.45944E-16
2.97475E-05 2.97874E-16
3.21749E-05 2.57965E-16
3.46974E-05 2.24654E-16
3.73152E-05 1.96672E-16
4.00281E-05 1.73007E-16
4.28362E-05 1.52857E-16
4.57395E-05 1.35630E-16
4.87380E-05 1.20824E-16
5.18317E-05 1.08025E-16
5.50205E-05 9.68953E-17
5.83045E-05 8.71904E-17
6.16838E-05 7.86931E-17
6.51582E-05 7.12099E-17
6.87277E-05 6.46008E-17
7.23925E-05 5.87497E-17
7.61524E-05 5.35522E-17
9.21439E-05 3.76988E-17
1.09658E-04 2.72826E-17
1.28695E-04 2.02040E-17
1.49255E-04 1.52521E-17
1.71338E-04 1.17210E-17
1.94942E-04 9.14466E-18
2.20070E-04 7.23677E-18
2.46720E-04 5.79955E-18
2.74892E-04 4.69920E-18
3.04586E-04 3.84778E-18
3.35803E-04 3.18087E-18
3.68542E-04 2.65250E-18
4.02802E-04 2.22934E-18
4.38585E-04 1.88760E-18
4.75889E-04 1.60916E-18
5.14715E-04 1.38033E-18
5.55063E-04 1.19090E-18
5.96931E-04 1.03304E-18
6.40321E-04 9.00610E-19
6.85233E-04 7.88776E-19
7.31665E-04 6.93853E-19
7.79618E-04 6.12860E-19
8.29092E-04 5.43390E-19
8.80086E-04 4.83509E-19
9.32601E-04 4.31691E-19
9.86636E-04 3.86663E-19
1.04219E-03 3.47365E-19
1.09927E-03 3.12949E-19
1.15786E-03 2.82708E-19
1.21797E-03 2.56047E-19
1.27961E-03 2.32455E-19
1.34276E-03 2.11528E-19
1.40743E-03 1.92913E-19
1.47362E-03 1.76304E-19
1.54133E-03 1.61446E-19
1.61056E-03 1.48126E-19
1.68131E-03 1.36156E-19
1.75357E-03 1.25371E-19
1.82735E-03 1.15636E-19
1.90265E-03 1.06830E-19
1.97947E-03 9.88484E-20
2.05780E-03 9.15983E-20
2.13765E-03 8.50029E-20
2.21902E-03 7.89922E-20
2.30190E-03 7.35041E-20
2.38630E-03 6.84850E-20
2.47222E-03 6.38883E-20
2.55965E-03 5.96720E-20
2.64859E-03 5.57978E-20
2.73905E-03 5.22338E-20
2.83103E-03 4.89507E-20
2.92452E-03 4.59222E-20
3.01952E-03 4.31244E-20
3.11604E-03 4.05371E-20
3.21407E-03 3.81416E-20
3.31362E-03 3.59207E-20
3.41468E-03 3.38594E-20
3.51725E-03 3.19444E-20
3.62133E-03 3.01634E-20
3.72692E-03 2.85048E-20
3.83403E-03 2.69590E-20
3.94265E-03 2.55170E-20
4.05278E-03 2.41704E-20
4.16442E-03 2.29117E-20
4.27757E-03 2.17341E-20
4.39223E-03 2.06315E-20
4.50840E-03 1.95980E-20
4.62608E-03 1.86287E-20
4.74527E-03 1.77188E-20
4.86597E-03 1.68640E-20
4.98817E-03 1.60603E-20
5.11188E-03 1.53040E-20
5.23711E-03 1.45919E-20
5.36383E-03 1.39209E-20
5.49207E-03 1.32882E-20
5.62181E-03 1.26911E-20
5.75306E-03 1.21274E-20
5.88581E-03 1.15947E-20
6.02007E-03 1.10910E-20
6.15583E-03 1.06146E-20
6.29310E-03 1.01635E-20
6.43187E-03 9.73626E-21
6.57214E-03 9.33132E-21
6.71392E-03 8.94732E-21
6.85720E-03 8.58294E-21
7.00198E-03 8.23700E-21
7.14827E-03 7.90841E-21
7.29605E-03 7.59612E-21
7.44534E-03 7.29915E-21
7.59612E-03 7.01662E-21
7.97965E-03 6.36814E-21
8.37255E-03 5.79321E-21
8.77480E-03 5.28202E-21
9.18641E-03 4.82626E-21
9.60736E-03 4.41886E-21
1.00376E-02 4.05378E-21
1.04773E-02 3.72583E-21
1.09262E-02 3.43055E-21
1.13844E-02 3.16412E-21
1.18520E-02 2.92320E-21
1.23288E-02 2.70492E-21
1.28150E-02 2.50675E-21
1.33104E-02 2.32651E-21
1.38150E-02 2.16228E-21
1.43290E-02 2.01238E-21
1.48521E-02 1.87532E-21
1.53845E-02 1.74982E-21
1.59262E-02 1.63471E-21
1.64770E-02 1.52897E-21
1.70371E-02 1.43170E-21
1.76063E-02 1.34209E-21
1.81848E-02 1.25944E-21
1.87724E-02 1.18309E-21
1.93692E-02 1.11248E-21
1.99751E-02 1.04711E-21
2.05901E-02 9.86492E-22
2.12143E-02 9.30233E-22
2.18476E-02 8.77957E-22
2.24900E-02 8.29329E-22
2.31415E-02 7.84046E-22
2.38021E-02 7.41835E-22
2.44717E-02 7.02448E-22
2.51504E-02 6.65660E-22
2.58382E-02 6.31267E-22
2.65349E-02 5.99084E-22
2.72407E-02 5.68941E-22
2.79555E-02 5.40685E-22
2.86793E-02 5.14175E-22
2.94120E-02 4.89282E-22
3.01537E-02 4.65890E-22
3.09043E-02 4.43889E-22
3.16639E-02 4.23183E-22
3.24324E-02 4.03679E-22
3.32098E-02 3.85294E-22
3.39961E-02 3.67953E-22
3.47912E-02 3.51584E-22
3.55952E-02 3.36122E-22
3.64081E-02 3.21507E-22
3.72297E-02 3.07685E-22
3.80602E-02 2.94603E-22
3.88995E-02 2.82214E-22
3.97476E-02 2.70475E-22
4.06044E-02 2.59345E-22
4.14700E-02 2.48786E-22
4.23443E-02 2.38763E-22
4.32273E-02 2.29244E-22
4.41190E-02 2.20198E-22
4.50194E-02 2.11597E-22
4.59284E-02 2.03416E-22
4.68461E-02 1.95629E-22
4.87074E-02 1.81149E-22
5.06030E-02 1.67994E-22
5.25328E-02 1.56020E-22
5.44967E-02 1.45102E-22
5.64946E-02 1.35129E-22
5.85262E-02 1.26004E-22
6.05914E-02 1.17641E-22
6.26901E-02 1.09965E-22
6.48222E-02 1.02910E-22
6.69873E-02 9.64141E-23
6.91854E-02 9.04263E-23
7.14163E-02 8.48988E-23
7.36799E-02 7.97898E-23
7.59760E-02 7.50614E-23
7.83043E-02 7.06800E-23
8.06647E-02 6.66153E-23
8.30571E-02 6.28400E-23
8.54812E-02 5.93296E-23
8.79369E-02 5.60621E-23
9.04240E-02 5.30173E-23
9.29422E-02 5.01772E-23
9.54915E-02 4.75255E-23
9.80716E-02 4.50472E-23
1.00682E-01 4.27288E-23
1.03323E-01 4.05581E-23
1.05995E-01 3.85237E-23
1.08696E-01 3.66156E-23
1.11427E-01 3.48244E-23
1.14188E-01 3.31415E-23
1.16978E-01 3.15592E-23
1.19797E-01 3.00702E-23
1.22645E-01 2.86680E-23
1.25522E-01 2.73465E-23
1.28428E-01 2.61003E-23
1.31361E-01 2.49242E-23
1.34323E-01 2.38134E-23
1.37313E-01 2.27638E-23
1.40330E-01 2.17712E-23
1.43375E-01 2.08320E-23
1.46447E-01 1.99426E-23
1.49545E-01 1.91001E-23
1.52671E-01 1.83014E-23
1.55823E-01 1.75438E-23
1.59001E-01 1.68247E-23
1.62205E-01 1.61420E-23
1.65435E-01 1.54932E-23
1.68690E-01 1.48765E-23
1.71970E-01 1.42900E-23
1.75276E-01 1.37318E-23
1.78606E-01 1.32004E-23
1.81961E-01 1.26942E-23
1.85340E-01 1.22118E-23
1.88743E-01 1.17518E-23
1.92169E-01 1.13131E-23
1.95619E-01 1.08943E-23
1.99092E-01 1.04946E-23
2.02589E-01 1.01127E-23
2.06107E-01 9.74785E-24
2.09649E-01 9.39903E-24
2.13212E-01 9.06543E-24
2.16797E-01 8.74626E-24
2.20404E-01 8.44078E-24
2.24032E-01 8.14827E-24
2.27680E-01 7.86809E-24
2.31350E-01 7.59963E-24
2.35040E-01 7.34228E-24
2.38751E-01 7.09551E-24
2.42481E-01 6.85879E-24
2.46231E-01 6.63164E-24
2.50000E-01 6.41360E-24
2.53788E-01 6.20422E-24
2.57595E-01 6.00310E-24
2.61421E-01 5.80985E-24
2.65264E-01 5.62410E-24
2.69126E-01 5.44552E-24
2.73005E-01 5.27376E-24
2.76901E-01 5.10852E-24
2.80814E-01 4.94950E-24
2.84744E-01 4.79642E-24
2.88691E-01 4.64903E-24
2.92653E-01 4.50705E-24
2.96632E-01 4.37027E-24
3.00625E-01 4.23845E-24
3.04634E-01 4.11138E-24
3.08658E-01 3.98886E-24
3.12697E-01 3.87069E-24
3.16749E-01 3.75669E-24
3.20816E-01 3.64668E-24
3.24896E-01 3.54050E-24
3.28990E-01 3.43799E-24
3.33097E-01 3.33899E-24
3.37216E-01 3.24337E-24
3.41348E-01 3.15098E-24
3.45492E-01 3.06170E-24
3.49647E-01 2.97541E-24
3.53814E-01 2.89198E-24
3.57992E-01 2.81130E-24
3.62181E-01 2.73327E-24
3.66381E-01 2.65778E-24
3.70590E-01 2.58473E-24
3.74810E-01 2.51404E-24
3.79039E-01 2.44560E-24
3.83277E-01 2.37933E-24
3.87524E-01 2.31515E-24
3.91780E-01 2.25299E-24
3.96044E-01 2.19277E-24
4.00316E-01 2.13442E-24
4.04596E-01 2.07786E-24
4.08882E-01 2.02304E-24
4.13176E-01 1.96988E-24
4.17476E-01 1.91834E-24
4.21783E-01 1.86835E-24
4.26095E-01 1.81986E-24
4.30413E-01 1.77281E-24
4.34737E-01 1.72715E-24
4.39065E-01 1.68284E-24
4.43398E-01 1.63982E-24
4.47736E-01 1.59806E-24
4.52077E-01 1.55750E-24
4.56422E-01 1.51812E-24
4.60770E-01 1.47986E-24
4.65122E-01 1.44270E-24
4.69476E-01 1.40658E-24
4.73832E-01 1.37149E-24
4.78190E-01 1.33738E-24
4.82550E-01 1.30422E-24
4.86912E-01 1.27199E-24
4.91274E-01 1.24064E-24
4.95637E-01 1.21016E-24
5.00000E-01 1.18051E-24
5.04363E-01 1.15166E-24
5.08726E-01 1.12360E-24
5.13088E-01 1.09630E-24
5.17450E-01 1.06972E-24
5.21810E-01 1.04386E-24
5.26168E-01 1.01869E-24
5.30524E-01 9.94176E-25
5.34878E-01 9.70311E-25
5.39230E-01 9.47071E-25
5.43578E-01 9.24437E-25
5.47923E-01 9.02391E-25
5.52264E-01 8.80915E-25
5.56602E-01 8.59992E-25
5.60935E-01 8.39605E-25
5.65263E-01 8.19738E-25
5.69587E-01 8.00376E-25
5.73905E-01 7.81503E-25
5.78217E-01 7.63106E-25
5.82524E-01 7.45169E-25
5.86824E-01 7.27681E-25
5.91118E-01 7.10626E-25
5.95404E-01 6.93994E-25
5.99684E-01 6.77771E-25
6.03956E-01 6.61948E-25
6.08220E-01 6.46511E-25
6.12476E-01 6.31451E-25
6.16723E-01 6.16757E-25
6.20961E-01 6.02418E-25
6.25190E-01 5.88425E-25
6.29410E-01 5.74767E-25
6.33619E-01 5.61436E-25
6.37819E-01 5.48421E-25
6.42008E-01 5.35715E-25
6.46186E-01 5.23309E-25
6.50353E-01 5.11194E-25
6.54508E-01 4.99364E-25
6.58652E-01 4.87811E-25
6.62784E-01 4.76529E-25
6.66903E-01 4.65509E-25
6.71010E-01 4.54744E-25
6.75104E-01 4.44227E-25
6.79184E-01 4.33952E-25
6.83251E-01 4.23911E-25
6.87303E-01 4.14100E-25
6.91342E-01 4.04512E-25
6.95366E-01 3.95142E-25
6.99375E-01 3.85984E-25
7.03368E-01 3.77033E-25
7.07347E-01 3.68283E-25
7.11309E-01 3.59730E-25
7.15256E-01 3.51369E-25
7.19186E-01 3.43193E-25
7.23099E-01 3.35200E-25
7.26995E-01 3.27384E-25
7.30874E-01 3.19741E-25
7.34736E-01 3.12267E-25
7.38579E-01 3.04957E-25
7.42405E-01 2.97807E-25
7.46212E-01 2.90814E-25
7.50000E-01 2.83974E-25
7.53769E-01 2.77283E-25
7.57519E-01 2.70738E-25
7.61249E-01 2.64335E-25
7.64960E-01 2.58070E-25
7.68650E-01 2.51942E-25
7.72320E-01 2.45945E-25
7.75968E-01 2.40077E-25
7.79596E-01 2.34336E-25
7.83203E-01 2.28718E-25
7.86788E-01 2.23220E-25
7.90351E-01 2.17840E-25
7.93893E-01 2.12575E-25
7.97411E-01 2.07422E-25
8.00908E-01 2.02379E-25
8.04381E-01 1.97443E-25
8.07831E-01 1.92611E-25
8.11257E-01 1.87883E-25
8.14660E-01 1.83254E-25
8.18039E-01 1.78724E-25
8.21394E-01 1.74289E-25
8.24724E-01 1.69949E-25
8.28030E-01 1.65700E-25
8.31310E-01 1.61541E-25
8.34565E-01 1.57469E-25
8.37795E-01 1.53484E-25
8.40999E-01 1.49582E-25
8.44177E-01 1.45763E-25
8.47329E-01 1.42025E-25
8.50455E-01 1.38365E-25
8.53553E-01 1.34783E-25
8.56625E-01 1.31276E-25
8.59670E-01 1.27844E-25
8.62687E-01 1.24484E-25
8.65677E-01 1.21195E-25
8.68639E-01 1.17975E-25
8.71572E-01 1.14824E-25
8.74478E-01 1.11740E-25
8.77355E-01 1.08722E-25
8.80203E-01 1.05767E-25
8.83022E-01 1.02876E-25
8.85812E-01 1.00047E-25
8.88573E-01 9.72777E-26
8.91304E-01 9.45683E-26
8.94005E-01 9.19171E-26
8.96677E-01 8.93231E-26
8.99318E-01 8.67853E-26
9.01928E-01 8.43025E-26
9.04508E-01 8.18737E-26
9.07058E-01 7.94980E-26
9.09576E-01 7.71745E-26
9.12063E-01 7.49020E-26
9.14519E-01 7.26798E-26
9.16943E-01 7.05070E-26
9.19335E-01 6.83826E-26
9.21696E-01 6.63058E-26
9.24024E-01 6.42759E-26
9.26320E-01 6.22919E-26
9.28584E-01 6.03532E-26
9.30815E-01 5.84589E-26
9.33013E-01 5.66084E-26
9.35178E-01 5.48009E-26
9.37310E-01 5.30356E-26
9.39409E-01 5.13120E-26
9.41474E-01 4.96294E-26
9.43505E-01 4.79871E-26
9.45503E-01 4.63845E-26
9.47467E-01 4.48209E-26
9.49397E-01 4.32959E-26
9.51293E-01 4.18087E-26
9.53154E-01 4.03589E-26
9.54981E-01 3.89459E-26
9.56773E-01 3.75693E-26
9.58530E-01 3.62283E-26
9.60252E-01 3.49227E-26
9.61940E-01 3.36518E-26
9.63592E-01 3.24152E-26
9.65209E-01 3.12125E-26
9.66790E-01 3.00433E-26
9.68336E-01 2.89070E-26
9.69846E-01 2.78033E-26
9.71321E-01 2.67317E-26
9.72759E-01 2.56920E-26
9.74162E-01 2.46836E-26
9.75528E-01 2.37063E-26
9.76858E-01 2.27597E-26
9.78152E-01 2.18434E-26
9.79410E-01 2.09572E-26
9.80631E-01 2.01007E-26
9.81815E-01 1.92735E-26
9.82963E-01 1.84755E-26
9.84074E-01 1.77063E-26
9.85148E-01 1.69656E-26
9.86185E-01 1.62532E-26
9.87185E-01 1.55688E-26
9.88148E-01 1.49122E-26
9.89074E-01 1.42832E-26
9.89962E-01 1.36815E-26
9.90814E-01 1.31070E-26
9.91627E-01 1.25593E-26
9.92404E-01 1.20384E-26
9.93143E-01 1.15441E-26
9.93844E-01 1.10761E-26
9.94508E-01 1.06343E-26
9.95134E-01 1.02186E-26
9.95722E-01 9.82878E-27
9.96273E-01 9.46475E-27
9.96786E-01 9.12638E-27
9.97261E-01 8.81353E-27
9.97698E-01 8.52611E-27
9.98097E-01 8.26402E-27
9.98459E-01 8.02716E-27
9.98782E-01 7.81545E-27
9.99067E-01 7.62882E-27
9.99315E-01 7.46720E-27
9.99524E-01 7.33054E-27
9.99695E-01 7.21880E-27
9.99829E-01 7.13192E-27
9.99924E-01 7.06989E-27
9.99981E-01 7.03268E-27
1.00000E+00 7.02028E-27
