 #
 # Subroutine ELSEPA. Elastic scattering of electrons and positrons
 #                    by neutral atoms and positive ions
 #
 # Projectile: electron
 # Kinetic energy = 1.50000E+07 eV = 5.51240E+05 a.u.
 #
 # WARNING: High-energy factorization with free-atom DF screening.
 #          Absorption, polarization and exchange corrections are
 #          switched off.
 #          Phase shifts are calculated for the bare nucleus.
 #          Scattering amplitudes are not evaluated.
 #
 # Element: Se,  Z =  34,  atomic weight = 7.89600E+01 g/mol
 #
 # Nuclear model: Fermi distribution
 #                Average radius = 4.59042E-13 cm
 #                Skin thickness = 5.46000E-14 cm
 #
 # Number of electrons = 34
 #
 # Total elastic cross section = 2.61117E-18 cm**2 = 9.32465E-02 a0**2
 # 1st transport cross section = 8.71948E-24 cm**2 = 3.11378E-07 a0**2
 # 2nd transport cross section = 2.49426E-23 cm**2 = 8.90717E-07 a0**2
 #
 #
 # Differential cross section:                       MU=(1-COS(THETA))/2
 #
 #  THETA        MU          DCS          DCS        Sherman      error
 #  (deg)                 (cm**2/sr)   (a0**2/sr)    function
 #----------------------------------------------------------------------
0.00000E+00 4.73313E-12
7.61557E-13 4.73292E-12
1.18994E-12 4.73280E-12
1.71346E-12 4.73266E-12
2.33225E-12 4.73249E-12
3.04617E-12 4.73230E-12
3.85530E-12 4.73208E-12
4.75964E-12 4.73183E-12
5.75917E-12 4.73156E-12
6.85391E-12 4.73126E-12
8.04379E-12 4.73094E-12
9.32893E-12 4.73059E-12
1.07092E-11 4.73022E-12
1.21847E-11 4.72982E-12
1.37554E-11 4.72939E-12
1.54213E-11 4.72894E-12
1.71823E-11 4.72846E-12
1.90386E-11 4.72796E-12
2.09900E-11 4.72743E-12
2.30367E-11 4.72688E-12
2.51785E-11 4.72630E-12
2.74156E-11 4.72569E-12
2.97478E-11 4.72506E-12
3.21752E-11 4.72440E-12
3.46979E-11 4.72372E-12
3.73157E-11 4.72301E-12
4.00286E-11 4.72228E-12
4.28368E-11 4.72152E-12
4.57402E-11 4.72074E-12
4.87388E-11 4.71993E-12
5.18325E-11 4.71910E-12
5.50215E-11 4.71823E-12
5.83057E-11 4.71735E-12
6.16850E-11 4.71644E-12
6.51595E-11 4.71550E-12
6.87293E-11 4.71454E-12
7.23943E-11 4.71355E-12
7.61544E-11 4.71254E-12
1.18991E-10 4.70103E-12
1.71347E-10 4.68703E-12
2.33223E-10 4.67055E-12
3.04617E-10 4.65166E-12
3.85531E-10 4.63038E-12
4.75965E-10 4.60678E-12
5.75917E-10 4.58090E-12
6.85389E-10 4.55280E-12
8.04380E-10 4.52255E-12
9.32891E-10 4.49022E-12
1.07092E-09 4.45544E-12
1.21847E-09 4.41897E-12
1.37554E-09 4.38105E-12
1.54213E-09 4.34131E-12
1.71823E-09 4.29918E-12
1.90386E-09 4.25597E-12
2.09900E-09 4.21181E-12
2.30367E-09 4.16519E-12
2.51785E-09 4.11734E-12
2.74156E-09 4.06893E-12
2.97478E-09 4.01949E-12
3.21752E-09 3.96771E-12
3.46978E-09 3.91573E-12
3.73156E-09 3.86366E-12
4.00286E-09 3.80961E-12
4.28368E-09 3.75478E-12
4.57402E-09 3.70019E-12
4.87388E-09 3.64548E-12
5.18326E-09 3.58851E-12
5.50215E-09 3.53209E-12
5.83057E-09 3.47628E-12
6.16850E-09 3.41919E-12
6.51596E-09 3.36160E-12
6.87293E-09 3.30488E-12
7.23942E-09 3.24885E-12
7.61544E-09 3.19073E-12
1.18991E-08 2.63703E-12
1.71347E-08 2.13927E-12
2.33223E-08 1.71750E-12
3.04617E-08 1.37479E-12
3.85531E-08 1.10299E-12
4.75965E-08 8.90294E-13
5.75917E-08 7.24754E-13
6.85389E-08 5.95805E-13
8.04380E-08 4.94941E-13
9.32891E-08 4.15481E-13
1.07092E-07 3.50454E-13
1.21847E-07 2.99372E-13
1.37554E-07 2.59059E-13
1.54213E-07 2.25791E-13
1.71823E-07 1.96846E-13
1.90386E-07 1.73332E-13
2.09900E-07 1.54030E-13
2.30367E-07 1.36527E-13
2.51785E-07 1.21552E-13
2.74156E-07 1.09011E-13
2.97478E-07 9.81311E-14
3.21752E-07 8.79731E-14
3.46978E-07 7.93343E-14
3.73156E-07 7.19402E-14
4.00286E-07 6.50526E-14
4.28368E-07 5.88931E-14
4.57402E-07 5.35614E-14
4.87388E-07 4.88558E-14
5.18325E-07 4.43820E-14
5.50215E-07 4.04720E-14
5.83057E-07 3.70404E-14
6.16850E-07 3.38650E-14
6.51596E-07 3.09713E-14
6.87293E-07 2.84117E-14
7.23942E-07 2.61304E-14
7.61543E-07 2.39754E-14
1.18991E-06 1.10257E-14
1.71347E-06 5.68011E-15
2.33223E-06 3.22762E-15
3.04617E-06 1.98082E-15
3.85531E-06 1.28959E-15
4.75964E-06 8.77685E-16
5.75916E-06 6.18156E-16
6.85388E-06 4.47588E-16
8.04378E-06 3.31623E-16
9.32888E-06 2.50554E-16
1.07092E-05 1.92445E-16
1.21846E-05 1.50243E-16
1.37553E-05 1.18936E-16
1.54212E-05 9.52534E-17
1.71822E-05 7.71802E-17
1.90385E-05 6.31851E-17
2.09899E-05 5.22212E-17
2.30365E-05 4.35321E-17
2.51783E-05 3.65782E-17
2.74153E-05 3.09584E-17
2.97475E-05 2.63758E-17
3.21749E-05 2.26136E-17
3.46974E-05 1.95018E-17
3.73152E-05 1.69083E-17
4.00281E-05 1.47340E-17
4.28362E-05 1.28999E-17
4.57395E-05 1.13431E-17
4.87380E-05 1.00145E-17
5.18317E-05 8.87527E-18
5.50205E-05 7.89396E-18
5.83045E-05 7.04444E-18
6.16838E-05 6.30656E-18
6.51582E-05 5.66320E-18
6.87277E-05 5.09993E-18
7.23925E-05 4.60510E-18
7.61524E-05 4.16910E-18
9.21439E-05 2.86580E-18
1.09658E-04 2.03433E-18
1.28695E-04 1.48377E-18
1.49255E-04 1.10740E-18
1.71338E-04 8.43145E-19
1.94942E-04 6.53177E-19
2.20070E-04 5.13806E-19
2.46720E-04 4.09692E-19
2.74892E-04 3.30653E-19
3.04586E-04 2.69789E-19
3.35803E-04 2.22304E-19
3.68542E-04 1.84823E-19
4.02802E-04 1.54920E-19
4.38585E-04 1.30829E-19
4.75889E-04 1.11246E-19
5.14715E-04 9.51951E-20
5.55063E-04 8.19398E-20
5.96931E-04 7.09149E-20
6.40321E-04 6.16850E-20
6.85233E-04 5.39105E-20
7.31665E-04 4.73243E-20
7.79618E-04 4.17151E-20
8.29092E-04 3.69138E-20
8.80086E-04 3.27848E-20
9.32601E-04 2.92181E-20
9.86636E-04 2.61241E-20
1.04219E-03 2.34298E-20
1.09927E-03 2.10746E-20
1.15786E-03 1.90085E-20
1.21797E-03 1.71900E-20
1.27961E-03 1.55843E-20
1.34276E-03 1.41621E-20
1.40743E-03 1.28988E-20
1.47362E-03 1.17736E-20
1.54133E-03 1.07688E-20
1.61056E-03 9.86910E-21
1.68131E-03 9.06167E-21
1.75357E-03 8.33534E-21
1.82735E-03 7.68053E-21
1.90265E-03 7.08894E-21
1.97947E-03 6.55337E-21
2.05780E-03 6.06757E-21
2.13765E-03 5.62609E-21
2.21902E-03 5.22415E-21
2.30190E-03 4.85758E-21
2.38630E-03 4.52269E-21
2.47222E-03 4.21626E-21
2.55965E-03 3.93543E-21
2.64859E-03 3.67766E-21
2.73905E-03 3.44073E-21
2.83103E-03 3.22263E-21
2.92452E-03 3.02160E-21
3.01952E-03 2.83605E-21
3.11604E-03 2.66458E-21
3.21407E-03 2.50592E-21
3.31362E-03 2.35894E-21
3.41468E-03 2.22261E-21
3.51725E-03 2.09603E-21
3.62133E-03 1.97836E-21
3.72692E-03 1.86887E-21
3.83403E-03 1.76687E-21
3.94265E-03 1.67177E-21
4.05278E-03 1.58301E-21
4.16442E-03 1.50008E-21
4.27757E-03 1.42253E-21
4.39223E-03 1.34995E-21
4.50840E-03 1.28196E-21
4.62608E-03 1.21822E-21
4.74527E-03 1.15840E-21
4.86597E-03 1.10223E-21
4.98817E-03 1.04943E-21
5.11188E-03 9.99773E-22
5.23711E-03 9.53030E-22
5.36383E-03 9.09000E-22
5.49207E-03 8.67494E-22
5.62181E-03 8.28341E-22
5.75306E-03 7.91383E-22
5.88581E-03 7.56472E-22
6.02007E-03 7.23474E-22
6.15583E-03 6.92264E-22
6.29310E-03 6.62727E-22
6.43187E-03 6.34756E-22
6.57214E-03 6.08252E-22
6.71392E-03 5.83124E-22
6.85720E-03 5.59286E-22
7.00198E-03 5.36661E-22
7.14827E-03 5.15173E-22
7.29605E-03 4.94756E-22
7.44534E-03 4.75345E-22
7.59612E-03 4.56882E-22
7.97965E-03 4.14516E-22
8.37255E-03 3.76972E-22
8.77480E-03 3.43605E-22
9.18641E-03 3.13867E-22
9.60736E-03 2.87294E-22
1.00376E-02 2.63489E-22
1.04773E-02 2.42111E-22
1.09262E-02 2.22870E-22
1.13844E-02 2.05513E-22
1.18520E-02 1.89822E-22
1.23288E-02 1.75609E-22
1.28150E-02 1.62708E-22
1.33104E-02 1.50978E-22
1.38150E-02 1.40291E-22
1.43290E-02 1.30539E-22
1.48521E-02 1.21625E-22
1.53845E-02 1.13462E-22
1.59262E-02 1.05978E-22
1.64770E-02 9.91038E-23
1.70371E-02 9.27813E-23
1.76063E-02 8.69580E-23
1.81848E-02 8.15872E-23
1.87724E-02 7.66273E-23
1.93692E-02 7.20407E-23
1.99751E-02 6.77942E-23
2.05901E-02 6.38579E-23
2.12143E-02 6.02050E-23
2.18476E-02 5.68111E-23
2.24900E-02 5.36543E-23
2.31415E-02 5.07151E-23
2.38021E-02 4.79757E-23
2.44717E-02 4.54199E-23
2.51504E-02 4.30331E-23
2.58382E-02 4.08018E-23
2.65349E-02 3.87142E-23
2.72407E-02 3.67592E-23
2.79555E-02 3.49268E-23
2.86793E-02 3.32078E-23
2.94120E-02 3.15938E-23
3.01537E-02 3.00773E-23
3.09043E-02 2.86513E-23
3.16639E-02 2.73092E-23
3.24324E-02 2.60452E-23
3.32098E-02 2.48540E-23
3.39961E-02 2.37304E-23
3.47912E-02 2.26700E-23
3.55952E-02 2.16685E-23
3.64081E-02 2.07219E-23
3.72297E-02 1.98267E-23
3.80602E-02 1.89797E-23
3.88995E-02 1.81776E-23
3.97476E-02 1.74176E-23
4.06044E-02 1.66972E-23
4.14700E-02 1.60138E-23
4.23443E-02 1.53652E-23
4.32273E-02 1.47491E-23
4.41190E-02 1.41640E-23
4.50194E-02 1.36076E-23
4.59284E-02 1.30784E-23
4.68461E-02 1.25747E-23
4.87074E-02 1.16385E-23
5.06030E-02 1.07880E-23
5.25328E-02 1.00142E-23
5.44967E-02 9.30872E-24
5.64946E-02 8.66448E-24
5.85262E-02 8.07518E-24
6.05914E-02 7.53528E-24
6.26901E-02 7.03985E-24
6.48222E-02 6.58456E-24
6.69873E-02 6.16556E-24
6.91854E-02 5.77941E-24
7.14163E-02 5.42306E-24
7.36799E-02 5.09377E-24
7.59760E-02 4.78912E-24
7.83043E-02 4.50691E-24
8.06647E-02 4.24517E-24
8.30571E-02 4.00216E-24
8.54812E-02 3.77627E-24
8.79369E-02 3.56607E-24
9.04240E-02 3.37027E-24
9.29422E-02 3.18769E-24
9.54915E-02 3.01728E-24
9.80716E-02 2.85808E-24
1.00682E-01 2.70919E-24
1.03323E-01 2.56984E-24
1.05995E-01 2.43930E-24
1.08696E-01 2.31690E-24
1.11427E-01 2.20204E-24
1.14188E-01 2.09416E-24
1.16978E-01 1.99278E-24
1.19797E-01 1.89741E-24
1.22645E-01 1.80763E-24
1.25522E-01 1.72306E-24
1.28428E-01 1.64334E-24
1.31361E-01 1.56813E-24
1.34323E-01 1.49713E-24
1.37313E-01 1.43007E-24
1.40330E-01 1.36667E-24
1.43375E-01 1.30672E-24
1.46447E-01 1.24997E-24
1.49545E-01 1.19623E-24
1.52671E-01 1.14531E-24
1.55823E-01 1.09703E-24
1.59001E-01 1.05124E-24
1.62205E-01 1.00777E-24
1.65435E-01 9.66487E-25
1.68690E-01 9.27263E-25
1.71970E-01 8.89974E-25
1.75276E-01 8.54507E-25
1.78606E-01 8.20756E-25
1.81961E-01 7.88623E-25
1.85340E-01 7.58015E-25
1.88743E-01 7.28846E-25
1.92169E-01 7.01037E-25
1.95619E-01 6.74511E-25
1.99092E-01 6.49199E-25
2.02589E-01 6.25035E-25
2.06107E-01 6.01957E-25
2.09649E-01 5.79906E-25
2.13212E-01 5.58830E-25
2.16797E-01 5.38676E-25
2.20404E-01 5.19397E-25
2.24032E-01 5.00948E-25
2.27680E-01 4.83286E-25
2.31350E-01 4.66372E-25
2.35040E-01 4.50168E-25
2.38751E-01 4.34639E-25
2.42481E-01 4.19752E-25
2.46231E-01 4.05474E-25
2.50000E-01 3.91778E-25
2.53788E-01 3.78633E-25
2.57595E-01 3.66015E-25
2.61421E-01 3.53899E-25
2.65264E-01 3.42260E-25
2.69126E-01 3.31076E-25
2.73005E-01 3.20327E-25
2.76901E-01 3.09992E-25
2.80814E-01 3.00053E-25
2.84744E-01 2.90491E-25
2.88691E-01 2.81291E-25
2.92653E-01 2.72434E-25
2.96632E-01 2.63908E-25
3.00625E-01 2.55696E-25
3.04634E-01 2.47785E-25
3.08658E-01 2.40163E-25
3.12697E-01 2.32816E-25
3.16749E-01 2.25734E-25
3.20816E-01 2.18904E-25
3.24896E-01 2.12316E-25
3.28990E-01 2.05961E-25
3.33097E-01 1.99828E-25
3.37216E-01 1.93908E-25
3.41348E-01 1.88193E-25
3.45492E-01 1.82675E-25
3.49647E-01 1.77344E-25
3.53814E-01 1.72194E-25
3.57992E-01 1.67218E-25
3.62181E-01 1.62409E-25
3.66381E-01 1.57759E-25
3.70590E-01 1.53264E-25
3.74810E-01 1.48916E-25
3.79039E-01 1.44711E-25
3.83277E-01 1.40642E-25
3.87524E-01 1.36705E-25
3.91780E-01 1.32894E-25
3.96044E-01 1.29205E-25
4.00316E-01 1.25634E-25
4.04596E-01 1.22175E-25
4.08882E-01 1.18825E-25
4.13176E-01 1.15579E-25
4.17476E-01 1.12435E-25
4.21783E-01 1.09387E-25
4.26095E-01 1.06434E-25
4.30413E-01 1.03570E-25
4.34737E-01 1.00794E-25
4.39065E-01 9.81016E-26
4.43398E-01 9.54903E-26
4.47736E-01 9.29572E-26
4.52077E-01 9.04996E-26
4.56422E-01 8.81148E-26
4.60770E-01 8.58004E-26
4.65122E-01 8.35538E-26
4.69476E-01 8.13729E-26
4.73832E-01 7.92553E-26
4.78190E-01 7.71990E-26
4.82550E-01 7.52018E-26
4.86912E-01 7.32618E-26
4.91274E-01 7.13771E-26
4.95637E-01 6.95459E-26
5.00000E-01 6.77664E-26
5.04363E-01 6.60369E-26
5.08726E-01 6.43558E-26
5.13088E-01 6.27215E-26
5.17450E-01 6.11325E-26
5.21810E-01 5.95873E-26
5.26168E-01 5.80846E-26
5.30524E-01 5.66230E-26
5.34878E-01 5.52013E-26
5.39230E-01 5.38181E-26
5.43578E-01 5.24722E-26
5.47923E-01 5.11625E-26
5.52264E-01 4.98879E-26
5.56602E-01 4.86473E-26
5.60935E-01 4.74396E-26
5.65263E-01 4.62639E-26
5.69587E-01 4.51192E-26
5.73905E-01 4.40044E-26
5.78217E-01 4.29188E-26
5.82524E-01 4.18615E-26
5.86824E-01 4.08315E-26
5.91118E-01 3.98282E-26
5.95404E-01 3.88506E-26
5.99684E-01 3.78982E-26
6.03956E-01 3.69700E-26
6.08220E-01 3.60655E-26
6.12476E-01 3.51838E-26
6.16723E-01 3.43245E-26
6.20961E-01 3.34867E-26
6.25190E-01 3.26700E-26
6.29410E-01 3.18736E-26
6.33619E-01 3.10971E-26
6.37819E-01 3.03399E-26
6.42008E-01 2.96013E-26
6.46186E-01 2.88810E-26
6.50353E-01 2.81784E-26
6.54508E-01 2.74929E-26
6.58652E-01 2.68242E-26
6.62784E-01 2.61717E-26
6.66903E-01 2.55351E-26
6.71010E-01 2.49138E-26
6.75104E-01 2.43075E-26
6.79184E-01 2.37158E-26
6.83251E-01 2.31382E-26
6.87303E-01 2.25745E-26
6.91342E-01 2.20241E-26
6.95366E-01 2.14868E-26
6.99375E-01 2.09622E-26
7.03368E-01 2.04500E-26
7.07347E-01 1.99499E-26
7.11309E-01 1.94615E-26
7.15256E-01 1.89845E-26
7.19186E-01 1.85186E-26
7.23099E-01 1.80636E-26
7.26995E-01 1.76192E-26
7.30874E-01 1.71851E-26
7.34736E-01 1.67610E-26
7.38579E-01 1.63467E-26
7.42405E-01 1.59419E-26
7.46212E-01 1.55464E-26
7.50000E-01 1.51599E-26
7.53769E-01 1.47823E-26
7.57519E-01 1.44133E-26
7.61249E-01 1.40527E-26
7.64960E-01 1.37003E-26
7.68650E-01 1.33559E-26
7.72320E-01 1.30192E-26
7.75968E-01 1.26902E-26
7.79596E-01 1.23686E-26
7.83203E-01 1.20542E-26
7.86788E-01 1.17469E-26
7.90351E-01 1.14464E-26
7.93893E-01 1.11527E-26
7.97411E-01 1.08656E-26
8.00908E-01 1.05849E-26
8.04381E-01 1.03104E-26
8.07831E-01 1.00421E-26
8.11257E-01 9.77968E-27
8.14660E-01 9.52314E-27
8.18039E-01 9.27229E-27
8.21394E-01 9.02701E-27
8.24724E-01 8.78716E-27
8.28030E-01 8.55263E-27
8.31310E-01 8.32329E-27
8.34565E-01 8.09902E-27
8.37795E-01 7.87971E-27
8.40999E-01 7.66526E-27
8.44177E-01 7.45554E-27
8.47329E-01 7.25045E-27
8.50455E-01 7.04990E-27
8.53553E-01 6.85378E-27
8.56625E-01 6.66200E-27
8.59670E-01 6.47446E-27
8.62687E-01 6.29106E-27
8.65677E-01 6.11173E-27
8.68639E-01 5.93637E-27
8.71572E-01 5.76489E-27
8.74478E-01 5.59722E-27
8.77355E-01 5.43328E-27
8.80203E-01 5.27298E-27
8.83022E-01 5.11625E-27
8.85812E-01 4.96302E-27
8.88573E-01 4.81321E-27
8.91304E-01 4.66676E-27
8.94005E-01 4.52359E-27
8.96677E-01 4.38364E-27
8.99318E-01 4.24685E-27
9.01928E-01 4.11315E-27
9.04508E-01 3.98247E-27
9.07058E-01 3.85477E-27
9.09576E-01 3.72998E-27
9.12063E-01 3.60805E-27
9.14519E-01 3.48892E-27
9.16943E-01 3.37254E-27
9.19335E-01 3.25885E-27
9.21696E-01 3.14781E-27
9.24024E-01 3.03936E-27
9.26320E-01 2.93346E-27
9.28584E-01 2.83006E-27
9.30815E-01 2.72911E-27
9.33013E-01 2.63058E-27
9.35178E-01 2.53441E-27
9.37310E-01 2.44057E-27
9.39409E-01 2.34901E-27
9.41474E-01 2.25970E-27
9.43505E-01 2.17260E-27
9.45503E-01 2.08766E-27
9.47467E-01 2.00486E-27
9.49397E-01 1.92416E-27
9.51293E-01 1.84552E-27
9.53154E-01 1.76891E-27
9.54981E-01 1.69430E-27
9.56773E-01 1.62166E-27
9.58530E-01 1.55095E-27
9.60252E-01 1.48215E-27
9.61940E-01 1.41522E-27
9.63592E-01 1.35015E-27
9.65209E-01 1.28689E-27
9.66790E-01 1.22543E-27
9.68336E-01 1.16575E-27
9.69846E-01 1.10781E-27
9.71321E-01 1.05159E-27
9.72759E-01 9.97069E-28
9.74162E-01 9.44226E-28
9.75528E-01 8.93038E-28
9.76858E-01 8.43484E-28
9.78152E-01 7.95544E-28
9.79410E-01 7.49198E-28
9.80631E-01 7.04428E-28
9.81815E-01 6.61216E-28
9.82963E-01 6.19543E-28
9.84074E-01 5.79393E-28
9.85148E-01 5.40751E-28
9.86185E-01 5.03600E-28
9.87185E-01 4.67925E-28
9.88148E-01 4.33712E-28
9.89074E-01 4.00948E-28
9.89962E-01 3.69620E-28
9.90814E-01 3.39714E-28
9.91627E-01 3.11220E-28
9.92404E-01 2.84125E-28
9.93143E-01 2.58418E-28
9.93844E-01 2.34091E-28
9.94508E-01 2.11132E-28
9.95134E-01 1.89534E-28
9.95722E-01 1.69287E-28
9.96273E-01 1.50383E-28
9.96786E-01 1.32815E-28
9.97261E-01 1.16576E-28
9.97698E-01 1.01659E-28
9.98097E-01 8.80593E-29
9.98459E-01 7.57708E-29
9.98782E-01 6.47887E-29
9.99067E-01 5.51087E-29
9.99315E-01 4.67271E-29
9.99524E-01 3.96406E-29
9.99695E-01 3.38463E-29
9.99829E-01 2.93420E-29
9.99924E-01 2.61259E-29
9.99981E-01 2.41967E-29
1.00000E+00 2.35538E-29
