 #
 # Subroutine ELSEPA. Elastic scattering of electrons and positrons
 #                    by neutral atoms and positive ions
 #
 # Projectile: electron
 # Kinetic energy = 5.00000E+06 eV = 1.83747E+05 a.u.
 #
 # WARNING: High-energy factorization with free-atom DF screening.
 #          Absorption, polarization and exchange corrections are
 #          switched off.
 #          Phase shifts are calculated for the bare nucleus.
 #          Scattering amplitudes are not evaluated.
 #
 # Element: Se,  Z =  34,  atomic weight = 7.89600E+01 g/mol
 #
 # Nuclear model: Fermi distribution
 #                Average radius = 4.59042E-13 cm
 #                Skin thickness = 5.46000E-14 cm
 #
 # Number of electrons = 34
 #
 # Total elastic cross section = 2.63744E-18 cm**2 = 9.41847E-02 a0**2
 # 1st transport cross section = 6.03651E-23 cm**2 = 2.15568E-06 a0**2
 # 2nd transport cross section = 1.70517E-22 cm**2 = 6.08926E-06 a0**2
 #
 #
 # Differential cross section:                       MU=(1-COS(THETA))/2
 #
 #  THETA        MU          DCS          DCS        Sherman      error
 #  (deg)                 (cm**2/sr)   (a0**2/sr)    function
 #----------------------------------------------------------------------
0.00000E+00 5.97489E-13
7.61557E-13 5.97485E-13
1.18994E-12 5.97483E-13
1.71346E-12 5.97481E-13
2.33225E-12 5.97478E-13
3.04617E-12 5.97475E-13
3.85530E-12 5.97472E-13
4.75964E-12 5.97468E-13
5.75917E-12 5.97464E-13
6.85391E-12 5.97459E-13
8.04379E-12 5.97454E-13
9.32893E-12 5.97449E-13
1.07092E-11 5.97443E-13
1.21847E-11 5.97436E-13
1.37554E-11 5.97430E-13
1.54213E-11 5.97423E-13
1.71823E-11 5.97415E-13
1.90386E-11 5.97407E-13
2.09900E-11 5.97399E-13
2.30367E-11 5.97390E-13
2.51785E-11 5.97381E-13
2.74156E-11 5.97371E-13
2.97478E-11 5.97361E-13
3.21752E-11 5.97351E-13
3.46979E-11 5.97340E-13
3.73157E-11 5.97329E-13
4.00286E-11 5.97317E-13
4.28368E-11 5.97305E-13
4.57402E-11 5.97293E-13
4.87388E-11 5.97280E-13
5.18325E-11 5.97267E-13
5.50215E-11 5.97253E-13
5.83057E-11 5.97239E-13
6.16850E-11 5.97225E-13
6.51595E-11 5.97210E-13
6.87293E-11 5.97194E-13
7.23943E-11 5.97179E-13
7.61544E-11 5.97163E-13
1.18991E-10 5.96980E-13
1.71347E-10 5.96756E-13
2.33223E-10 5.96492E-13
3.04617E-10 5.96187E-13
3.85531E-10 5.95842E-13
4.75965E-10 5.95457E-13
5.75917E-10 5.95031E-13
6.85389E-10 5.94566E-13
8.04380E-10 5.94061E-13
9.32891E-10 5.93516E-13
1.07092E-09 5.92931E-13
1.21847E-09 5.92307E-13
1.37554E-09 5.91644E-13
1.54213E-09 5.90942E-13
1.71823E-09 5.90201E-13
1.90386E-09 5.89422E-13
2.09900E-09 5.88604E-13
2.30367E-09 5.87749E-13
2.51785E-09 5.86855E-13
2.74156E-09 5.85924E-13
2.97478E-09 5.84956E-13
3.21752E-09 5.83951E-13
3.46978E-09 5.82909E-13
3.73156E-09 5.81830E-13
4.00286E-09 5.80716E-13
4.28368E-09 5.79566E-13
4.57402E-09 5.78380E-13
4.87388E-09 5.77159E-13
5.18326E-09 5.75904E-13
5.50215E-09 5.74614E-13
5.83057E-09 5.73290E-13
6.16850E-09 5.71933E-13
6.51596E-09 5.70542E-13
6.87293E-09 5.69119E-13
7.23942E-09 5.67663E-13
7.61544E-09 5.66175E-13
1.18991E-08 5.49628E-13
1.71347E-08 5.30369E-13
2.33223E-08 5.08886E-13
3.04617E-08 4.85684E-13
3.85531E-08 4.61264E-13
4.75965E-08 4.36103E-13
5.75917E-08 4.10638E-13
6.85389E-08 3.85255E-13
8.04380E-08 3.60284E-13
9.32891E-08 3.35997E-13
1.07092E-07 3.12608E-13
1.21847E-07 2.90275E-13
1.37554E-07 2.69110E-13
1.54213E-07 2.49181E-13
1.71823E-07 2.30519E-13
1.90386E-07 2.13128E-13
2.09900E-07 1.96986E-13
2.30367E-07 1.82055E-13
2.51785E-07 1.68283E-13
2.74156E-07 1.55611E-13
2.97478E-07 1.43972E-13
3.21752E-07 1.33297E-13
3.46978E-07 1.23517E-13
3.73156E-07 1.14565E-13
4.00286E-07 1.06373E-13
4.28368E-07 9.88789E-14
4.57402E-07 9.20228E-14
4.87388E-07 8.57489E-14
5.18325E-07 8.00052E-14
5.50215E-07 7.47438E-14
5.83057E-07 6.99205E-14
6.16850E-07 6.54952E-14
6.51596E-07 6.14309E-14
6.87293E-07 5.76943E-14
7.23942E-07 5.42549E-14
7.61543E-07 5.10853E-14
1.18991E-06 2.97845E-14
1.71347E-06 1.89404E-14
2.33223E-06 1.27118E-14
3.04617E-06 8.82026E-15
3.85531E-06 6.26013E-15
4.75964E-06 4.52301E-15
5.75916E-06 3.32053E-15
6.85388E-06 2.47550E-15
8.04378E-06 1.87371E-15
9.32888E-06 1.43958E-15
1.07092E-05 1.12224E-15
1.21846E-05 8.87151E-16
1.37553E-05 7.10620E-16
1.54212E-05 5.76262E-16
1.71822E-05 4.72643E-16
1.90385E-05 3.91707E-16
2.09899E-05 3.27714E-16
2.30365E-05 2.76537E-16
2.51783E-05 2.35168E-16
2.74153E-05 2.01396E-16
2.97475E-05 1.73571E-16
3.21749E-05 1.50454E-16
3.46974E-05 1.31100E-16
3.73152E-05 1.14783E-16
4.00281E-05 1.00937E-16
4.28362E-05 8.91206E-17
4.57395E-05 7.89809E-17
4.87380E-05 7.02376E-17
5.18317E-05 6.26642E-17
5.50205E-05 5.60768E-17
5.83045E-05 5.03249E-17
6.16838E-05 4.52844E-17
6.51582E-05 4.08526E-17
6.87277E-05 3.69438E-17
7.23925E-05 3.34860E-17
7.61524E-05 3.04187E-17
9.21439E-05 2.11362E-17
1.09658E-04 1.51153E-17
1.28695E-04 1.10825E-17
1.49255E-04 8.30486E-18
1.71338E-04 6.34413E-18
1.94942E-04 4.92939E-18
2.20070E-04 3.88841E-18
2.46720E-04 3.10886E-18
2.74892E-04 2.51577E-18
3.04586E-04 2.05803E-18
3.35803E-04 1.70016E-18
3.68542E-04 1.41706E-18
4.02802E-04 1.19069E-18
4.38585E-04 1.00792E-18
4.75889E-04 8.59002E-19
5.14715E-04 7.36674E-19
5.55063E-04 6.35421E-19
5.96931E-04 5.51020E-19
6.40321E-04 4.80206E-19
6.85233E-04 4.20432E-19
7.31665E-04 3.69692E-19
7.79618E-04 3.26392E-19
8.29092E-04 2.89258E-19
8.80086E-04 2.57265E-19
9.32601E-04 2.29580E-19
9.86636E-04 2.05525E-19
1.04219E-03 1.84544E-19
1.09927E-03 1.66175E-19
1.15786E-03 1.50038E-19
1.21797E-03 1.35816E-19
1.27961E-03 1.23241E-19
1.34276E-03 1.12089E-19
1.40743E-03 1.02173E-19
1.47362E-03 9.33300E-20
1.54133E-03 8.54246E-20
1.61056E-03 7.83398E-20
1.68131E-03 7.19755E-20
1.75357E-03 6.62453E-20
1.82735E-03 6.10750E-20
1.90265E-03 5.64001E-20
1.97947E-03 5.21647E-20
2.05780E-03 4.83202E-20
2.13765E-03 4.48241E-20
2.21902E-03 4.16390E-20
2.30190E-03 3.87324E-20
2.38630E-03 3.60755E-20
2.47222E-03 3.36431E-20
2.55965E-03 3.14126E-20
2.64859E-03 2.93644E-20
2.73905E-03 2.74808E-20
2.83103E-03 2.57462E-20
2.92452E-03 2.41467E-20
3.01952E-03 2.26698E-20
3.11604E-03 2.13044E-20
3.21407E-03 2.00405E-20
3.31362E-03 1.88692E-20
3.41468E-03 1.77825E-20
3.51725E-03 1.67732E-20
3.62133E-03 1.58347E-20
3.72692E-03 1.49611E-20
3.83403E-03 1.41471E-20
3.94265E-03 1.33879E-20
4.05278E-03 1.26791E-20
4.16442E-03 1.20168E-20
4.27757E-03 1.13973E-20
4.39223E-03 1.08174E-20
4.50840E-03 1.02740E-20
4.62608E-03 9.76446E-21
4.74527E-03 9.28623E-21
4.86597E-03 8.83702E-21
4.98817E-03 8.41476E-21
5.11188E-03 8.01753E-21
5.23711E-03 7.64355E-21
5.36383E-03 7.29122E-21
5.49207E-03 6.95904E-21
5.62181E-03 6.64565E-21
5.75306E-03 6.34977E-21
5.88581E-03 6.07025E-21
6.02007E-03 5.80602E-21
6.15583E-03 5.55607E-21
6.29310E-03 5.31949E-21
6.43187E-03 5.09542E-21
6.57214E-03 4.88309E-21
6.71392E-03 4.68175E-21
6.85720E-03 4.49074E-21
7.00198E-03 4.30941E-21
7.14827E-03 4.13719E-21
7.29605E-03 3.97353E-21
7.44534E-03 3.81793E-21
7.59612E-03 3.66990E-21
7.97965E-03 3.33020E-21
8.37255E-03 3.02910E-21
8.77480E-03 2.76144E-21
9.18641E-03 2.52286E-21
9.60736E-03 2.30963E-21
1.00376E-02 2.11858E-21
1.04773E-02 1.94699E-21
1.09262E-02 1.79252E-21
1.13844E-02 1.65316E-21
1.18520E-02 1.52716E-21
1.23288E-02 1.41301E-21
1.28150E-02 1.30940E-21
1.33104E-02 1.21517E-21
1.38150E-02 1.12931E-21
1.43290E-02 1.05096E-21
1.48521E-02 9.79326E-22
1.53845E-02 9.13733E-22
1.59262E-02 8.53577E-22
1.64770E-02 7.98325E-22
1.70371E-02 7.47501E-22
1.76063E-02 7.00686E-22
1.81848E-02 6.57504E-22
1.87724E-02 6.17621E-22
1.93692E-02 5.80738E-22
1.99751E-02 5.46587E-22
2.05901E-02 5.14927E-22
2.12143E-02 4.85544E-22
2.18476E-02 4.58242E-22
2.24900E-02 4.32846E-22
2.31415E-02 4.09198E-22
2.38021E-02 3.87155E-22
2.44717E-02 3.66588E-22
2.51504E-02 3.47379E-22
2.58382E-02 3.29421E-22
2.65349E-02 3.12617E-22
2.72407E-02 2.96879E-22
2.79555E-02 2.82127E-22
2.86793E-02 2.68287E-22
2.94120E-02 2.55291E-22
3.01537E-02 2.43079E-22
3.09043E-02 2.31594E-22
3.16639E-02 2.20785E-22
3.24324E-02 2.10604E-22
3.32098E-02 2.01007E-22
3.39961E-02 1.91955E-22
3.47912E-02 1.83411E-22
3.55952E-02 1.75341E-22
3.64081E-02 1.67713E-22
3.72297E-02 1.60498E-22
3.80602E-02 1.53671E-22
3.88995E-02 1.47205E-22
3.97476E-02 1.41078E-22
4.06044E-02 1.35270E-22
4.14700E-02 1.29759E-22
4.23443E-02 1.24528E-22
4.32273E-02 1.19561E-22
4.41190E-02 1.14840E-22
4.50194E-02 1.10352E-22
4.59284E-02 1.06082E-22
4.68461E-02 1.02019E-22
4.87074E-02 9.44633E-23
5.06030E-02 8.75992E-23
5.25328E-02 8.13516E-23
5.44967E-02 7.56549E-23
5.64946E-02 7.04515E-23
5.85262E-02 6.56907E-23
6.05914E-02 6.13279E-23
6.26901E-02 5.73235E-23
6.48222E-02 5.36427E-23
6.69873E-02 5.02543E-23
6.91854E-02 4.71307E-23
7.14163E-02 4.42475E-23
7.36799E-02 4.15826E-23
7.59760E-02 3.91163E-23
7.83043E-02 3.68310E-23
8.06647E-02 3.47110E-23
8.30571E-02 3.27420E-23
8.54812E-02 3.09112E-23
8.79369E-02 2.92072E-23
9.04240E-02 2.76193E-23
9.29422E-02 2.61383E-23
9.54915E-02 2.47554E-23
9.80716E-02 2.34632E-23
1.00682E-01 2.22543E-23
1.03323E-01 2.11224E-23
1.05995E-01 2.00617E-23
1.08696E-01 1.90669E-23
1.11427E-01 1.81330E-23
1.14188E-01 1.72556E-23
1.16978E-01 1.64307E-23
1.19797E-01 1.56544E-23
1.22645E-01 1.49235E-23
1.25522E-01 1.42347E-23
1.28428E-01 1.35851E-23
1.31361E-01 1.29720E-23
1.34323E-01 1.23931E-23
1.37313E-01 1.18460E-23
1.40330E-01 1.13287E-23
1.43375E-01 1.08392E-23
1.46447E-01 1.03757E-23
1.49545E-01 9.93664E-24
1.52671E-01 9.52042E-24
1.55823E-01 9.12564E-24
1.59001E-01 8.75098E-24
1.62205E-01 8.39522E-24
1.65435E-01 8.05722E-24
1.68690E-01 7.73592E-24
1.71970E-01 7.43035E-24
1.75276E-01 7.13957E-24
1.78606E-01 6.86273E-24
1.81961E-01 6.59903E-24
1.85340E-01 6.34774E-24
1.88743E-01 6.10816E-24
1.92169E-01 5.87964E-24
1.95619E-01 5.66156E-24
1.99092E-01 5.45336E-24
2.02589E-01 5.25450E-24
2.06107E-01 5.06448E-24
2.09649E-01 4.88283E-24
2.13212E-01 4.70912E-24
2.16797E-01 4.54294E-24
2.20404E-01 4.38389E-24
2.24032E-01 4.23160E-24
2.27680E-01 4.08574E-24
2.31350E-01 3.94598E-24
2.35040E-01 3.81201E-24
2.38751E-01 3.68355E-24
2.42481E-01 3.56034E-24
2.46231E-01 3.44211E-24
2.50000E-01 3.32863E-24
2.53788E-01 3.21966E-24
2.57595E-01 3.11500E-24
2.61421E-01 3.01443E-24
2.65264E-01 2.91778E-24
2.69126E-01 2.82486E-24
2.73005E-01 2.73550E-24
2.76901E-01 2.64953E-24
2.80814E-01 2.56680E-24
2.84744E-01 2.48716E-24
2.88691E-01 2.41049E-24
2.92653E-01 2.33664E-24
2.96632E-01 2.26550E-24
3.00625E-01 2.19694E-24
3.04634E-01 2.13086E-24
3.08658E-01 2.06714E-24
3.12697E-01 2.00569E-24
3.16749E-01 1.94641E-24
3.20816E-01 1.88921E-24
3.24896E-01 1.83400E-24
3.28990E-01 1.78071E-24
3.33097E-01 1.72925E-24
3.37216E-01 1.67955E-24
3.41348E-01 1.63152E-24
3.45492E-01 1.58511E-24
3.49647E-01 1.54026E-24
3.53814E-01 1.49691E-24
3.57992E-01 1.45499E-24
3.62181E-01 1.41444E-24
3.66381E-01 1.37521E-24
3.70590E-01 1.33726E-24
3.74810E-01 1.30053E-24
3.79039E-01 1.26497E-24
3.83277E-01 1.23055E-24
3.87524E-01 1.19722E-24
3.91780E-01 1.16493E-24
3.96044E-01 1.13365E-24
4.00316E-01 1.10335E-24
4.04596E-01 1.07398E-24
4.08882E-01 1.04551E-24
4.13176E-01 1.01791E-24
4.17476E-01 9.91152E-25
4.21783E-01 9.65199E-25
4.26095E-01 9.40024E-25
4.30413E-01 9.15601E-25
4.34737E-01 8.91902E-25
4.39065E-01 8.68903E-25
4.43398E-01 8.46579E-25
4.47736E-01 8.24906E-25
4.52077E-01 8.03863E-25
4.56422E-01 7.83427E-25
4.60770E-01 7.63578E-25
4.65122E-01 7.44297E-25
4.69476E-01 7.25563E-25
4.73832E-01 7.07359E-25
4.78190E-01 6.89668E-25
4.82550E-01 6.72471E-25
4.86912E-01 6.55753E-25
4.91274E-01 6.39499E-25
4.95637E-01 6.23692E-25
5.00000E-01 6.08319E-25
5.04363E-01 5.93366E-25
5.08726E-01 5.78819E-25
5.13088E-01 5.64665E-25
5.17450E-01 5.50892E-25
5.21810E-01 5.37487E-25
5.26168E-01 5.24440E-25
5.30524E-01 5.11739E-25
5.34878E-01 4.99373E-25
5.39230E-01 4.87332E-25
5.43578E-01 4.75607E-25
5.47923E-01 4.64186E-25
5.52264E-01 4.53062E-25
5.56602E-01 4.42225E-25
5.60935E-01 4.31666E-25
5.65263E-01 4.21377E-25
5.69587E-01 4.11351E-25
5.73905E-01 4.01579E-25
5.78217E-01 3.92053E-25
5.82524E-01 3.82768E-25
5.86824E-01 3.73715E-25
5.91118E-01 3.64887E-25
5.95404E-01 3.56279E-25
5.99684E-01 3.47884E-25
6.03956E-01 3.39696E-25
6.08220E-01 3.31708E-25
6.12476E-01 3.23916E-25
6.16723E-01 3.16314E-25
6.20961E-01 3.08896E-25
6.25190E-01 3.01658E-25
6.29410E-01 2.94593E-25
6.33619E-01 2.87698E-25
6.37819E-01 2.80968E-25
6.42008E-01 2.74398E-25
6.46186E-01 2.67984E-25
6.50353E-01 2.61722E-25
6.54508E-01 2.55607E-25
6.58652E-01 2.49635E-25
6.62784E-01 2.43803E-25
6.66903E-01 2.38108E-25
6.71010E-01 2.32544E-25
6.75104E-01 2.27109E-25
6.79184E-01 2.21800E-25
6.83251E-01 2.16613E-25
6.87303E-01 2.11545E-25
6.91342E-01 2.06593E-25
6.95366E-01 2.01753E-25
6.99375E-01 1.97024E-25
7.03368E-01 1.92402E-25
7.07347E-01 1.87884E-25
7.11309E-01 1.83468E-25
7.15256E-01 1.79151E-25
7.19186E-01 1.74930E-25
7.23099E-01 1.70804E-25
7.26995E-01 1.66770E-25
7.30874E-01 1.62826E-25
7.34736E-01 1.58969E-25
7.38579E-01 1.55197E-25
7.42405E-01 1.51508E-25
7.46212E-01 1.47900E-25
7.50000E-01 1.44372E-25
7.53769E-01 1.40921E-25
7.57519E-01 1.37545E-25
7.61249E-01 1.34243E-25
7.64960E-01 1.31013E-25
7.68650E-01 1.27853E-25
7.72320E-01 1.24761E-25
7.75968E-01 1.21736E-25
7.79596E-01 1.18776E-25
7.83203E-01 1.15881E-25
7.86788E-01 1.13047E-25
7.90351E-01 1.10274E-25
7.93893E-01 1.07561E-25
7.97411E-01 1.04906E-25
8.00908E-01 1.02308E-25
8.04381E-01 9.97649E-26
8.07831E-01 9.72763E-26
8.11257E-01 9.48408E-26
8.14660E-01 9.24571E-26
8.18039E-01 9.01240E-26
8.21394E-01 8.78406E-26
8.24724E-01 8.56056E-26
8.28030E-01 8.34181E-26
8.31310E-01 8.12769E-26
8.34565E-01 7.91812E-26
8.37795E-01 7.71298E-26
8.40999E-01 7.51219E-26
8.44177E-01 7.31565E-26
8.47329E-01 7.12328E-26
8.50455E-01 6.93498E-26
8.53553E-01 6.75068E-26
8.56625E-01 6.57028E-26
8.59670E-01 6.39370E-26
8.62687E-01 6.22088E-26
8.65677E-01 6.05172E-26
8.68639E-01 5.88617E-26
8.71572E-01 5.72413E-26
8.74478E-01 5.56555E-26
8.77355E-01 5.41035E-26
8.80203E-01 5.25847E-26
8.83022E-01 5.10984E-26
8.85812E-01 4.96440E-26
8.88573E-01 4.82208E-26
8.91304E-01 4.68283E-26
8.94005E-01 4.54659E-26
8.96677E-01 4.41330E-26
8.99318E-01 4.28290E-26
9.01928E-01 4.15533E-26
9.04508E-01 4.03056E-26
9.07058E-01 3.90852E-26
9.09576E-01 3.78916E-26
9.12063E-01 3.67245E-26
9.14519E-01 3.55832E-26
9.16943E-01 3.44673E-26
9.19335E-01 3.33764E-26
9.21696E-01 3.23100E-26
9.24024E-01 3.12677E-26
9.26320E-01 3.02492E-26
9.28584E-01 2.92539E-26
9.30815E-01 2.82815E-26
9.33013E-01 2.73316E-26
9.35178E-01 2.64039E-26
9.37310E-01 2.54979E-26
9.39409E-01 2.46134E-26
9.41474E-01 2.37499E-26
9.43505E-01 2.29072E-26
9.45503E-01 2.20849E-26
9.47467E-01 2.12827E-26
9.49397E-01 2.05002E-26
9.51293E-01 1.97373E-26
9.53154E-01 1.89936E-26
9.54981E-01 1.82688E-26
9.56773E-01 1.75627E-26
9.58530E-01 1.68750E-26
9.60252E-01 1.62054E-26
9.61940E-01 1.55536E-26
9.63592E-01 1.49195E-26
9.65209E-01 1.43028E-26
9.66790E-01 1.37032E-26
9.68336E-01 1.31206E-26
9.69846E-01 1.25548E-26
9.71321E-01 1.20054E-26
9.72759E-01 1.14724E-26
9.74162E-01 1.09555E-26
9.75528E-01 1.04545E-26
9.76858E-01 9.96932E-27
9.78152E-01 9.49968E-27
9.79410E-01 9.04545E-27
9.80631E-01 8.60647E-27
9.81815E-01 8.18256E-27
9.82963E-01 7.77359E-27
9.84074E-01 7.37940E-27
9.85148E-01 6.99985E-27
9.86185E-01 6.63481E-27
9.87185E-01 6.28414E-27
9.88148E-01 5.94772E-27
9.89074E-01 5.62543E-27
9.89962E-01 5.31716E-27
9.90814E-01 5.02279E-27
9.91627E-01 4.74222E-27
9.92404E-01 4.47535E-27
9.93143E-01 4.22210E-27
9.93844E-01 3.98235E-27
9.94508E-01 3.75605E-27
9.95134E-01 3.54309E-27
9.95722E-01 3.34341E-27
9.96273E-01 3.15694E-27
9.96786E-01 2.98362E-27
9.97261E-01 2.82337E-27
9.97698E-01 2.67615E-27
9.98097E-01 2.54191E-27
9.98459E-01 2.42059E-27
9.98782E-01 2.31215E-27
9.99067E-01 2.21656E-27
9.99315E-01 2.13378E-27
9.99524E-01 2.06379E-27
9.99695E-01 2.00656E-27
9.99829E-01 1.96206E-27
9.99924E-01 1.93029E-27
9.99981E-01 1.91123E-27
1.00000E+00 1.90488E-27
