 #
 # Subroutine ELSEPA. Elastic scattering of electrons and positrons
 #                    by neutral atoms and positive ions
 #
 # Projectile: electron
 # Kinetic energy = 4.50000E+08 eV = 1.65372E+07 a.u.
 #
 # WARNING: High-energy factorization with free-atom DF screening.
 #          Absorption, polarization and exchange corrections are
 #          switched off.
 #          Phase shifts are calculated for the bare nucleus.
 #          Scattering amplitudes are not evaluated.
 #
 # Element: Se,  Z =  34,  atomic weight = 7.89600E+01 g/mol
 #
 # Nuclear model: Fermi distribution
 #                Average radius = 4.59042E-13 cm
 #                Skin thickness = 5.46000E-14 cm
 #
 # Number of electrons = 34
 #
 # Total elastic cross section = 2.60879E-18 cm**2 = 9.31616E-02 a0**2
 # 1st transport cross section = 1.15485E-26 cm**2 = 4.12403E-10 a0**2
 # 2nd transport cross section = 3.46268E-26 cm**2 = 1.23655E-09 a0**2
 #
 #
 # Differential cross section:                       MU=(1-COS(THETA))/2
 #
 #  THETA        MU          DCS          DCS        Sherman      error
 #  (deg)                 (cm**2/sr)   (a0**2/sr)    function
 #----------------------------------------------------------------------
0.00000E+00 3.99282E-09
7.61557E-13 3.84976E-09
1.18994E-12 3.77248E-09
1.71346E-12 3.68142E-09
2.33225E-12 3.57753E-09
3.04617E-12 3.46314E-09
3.85530E-12 3.34025E-09
4.75964E-12 3.21083E-09
5.75917E-12 3.07678E-09
6.85391E-12 2.93839E-09
8.04379E-12 2.79836E-09
9.32893E-12 2.65849E-09
1.07092E-11 2.52010E-09
1.21847E-11 2.38429E-09
1.37554E-11 2.25159E-09
1.54213E-11 2.12202E-09
1.71823E-11 1.99740E-09
1.90386E-11 1.87813E-09
2.09900E-11 1.76449E-09
2.30367E-11 1.65661E-09
2.51785E-11 1.55393E-09
2.74156E-11 1.45688E-09
2.97478E-11 1.36568E-09
3.21752E-11 1.28016E-09
3.46979E-11 1.20010E-09
3.73157E-11 1.12524E-09
4.00286E-11 1.05496E-09
4.28368E-11 9.89504E-10
4.57402E-11 9.28589E-10
4.87388E-11 8.71929E-10
5.18325E-11 8.19248E-10
5.50215E-11 7.70169E-10
5.83057E-11 7.24475E-10
6.16850E-11 6.82045E-10
6.51595E-11 6.42637E-10
6.87293E-11 6.06024E-10
7.23943E-11 5.71996E-10
7.61544E-11 5.40266E-10
1.18991E-10 3.19824E-10
1.71347E-10 2.05900E-10
2.33223E-10 1.40254E-10
3.04617E-10 9.97082E-11
3.85531E-10 7.29858E-11
4.75965E-10 5.45207E-11
5.75917E-10 4.13327E-11
6.85389E-10 3.15812E-11
8.04380E-10 2.44116E-11
9.32891E-10 1.90867E-11
1.07092E-09 1.50834E-11
1.21847E-09 1.20419E-11
1.37554E-09 9.70645E-12
1.54213E-09 7.89619E-12
1.71823E-09 6.48700E-12
1.90386E-09 5.37866E-12
2.09900E-09 4.49848E-12
2.30367E-09 3.79303E-12
2.51785E-09 3.22216E-12
2.74156E-09 2.75680E-12
2.97478E-09 2.37395E-12
3.21752E-09 2.05661E-12
3.46978E-09 1.79177E-12
3.73156E-09 1.56920E-12
4.00286E-09 1.38069E-12
4.28368E-09 1.22020E-12
4.57402E-09 1.08275E-12
4.87388E-09 9.64386E-13
5.18326E-09 8.61930E-13
5.50215E-09 7.72753E-13
5.83057E-09 6.94801E-13
6.16850E-09 6.26462E-13
6.51596E-09 5.66330E-13
6.87293E-09 5.13240E-13
7.23942E-09 4.66215E-13
7.61544E-09 4.24382E-13
1.18991E-08 1.83009E-13
1.71347E-08 9.07093E-14
2.33223E-08 4.97486E-14
3.04617E-08 2.94868E-14
3.85531E-08 1.85735E-14
4.75965E-08 1.22807E-14
5.75917E-08 8.44566E-15
6.85389E-08 5.99977E-15
8.04380E-08 4.37965E-15
9.32891E-08 3.27172E-15
1.07092E-07 2.49313E-15
1.21847E-07 1.93296E-15
1.37554E-07 1.52159E-15
1.54213E-07 1.21399E-15
1.71823E-07 9.80274E-16
1.90386E-07 8.00136E-16
2.09900E-07 6.59498E-16
2.30367E-07 5.48412E-16
2.51785E-07 4.59735E-16
2.74156E-07 3.88258E-16
2.97478E-07 3.30133E-16
3.21752E-07 2.82477E-16
3.46978E-07 2.43109E-16
3.73156E-07 2.10360E-16
4.00286E-07 1.82938E-16
4.28368E-07 1.59839E-16
4.57402E-07 1.40270E-16
4.87388E-07 1.23603E-16
5.18325E-07 1.09338E-16
5.50215E-07 9.70712E-17
5.83057E-07 8.64761E-17
6.16850E-07 7.72870E-17
6.51596E-07 6.92858E-17
6.87293E-07 6.22931E-17
7.23942E-07 5.61602E-17
7.61543E-07 5.07635E-17
1.18991E-06 2.08262E-17
1.71347E-06 1.00521E-17
2.33223E-06 5.42874E-18
3.04617E-06 3.18342E-18
3.85531E-06 1.98797E-18
4.75964E-06 1.30462E-18
5.75916E-06 8.91264E-19
6.85388E-06 6.29414E-19
8.04378E-06 4.57052E-19
9.32888E-06 3.39861E-19
1.07092E-05 2.57940E-19
1.21846E-05 1.99284E-19
1.37553E-05 1.56396E-19
1.54212E-05 1.24450E-19
1.71822E-05 1.00262E-19
1.90385E-05 8.16681E-20
2.09899E-05 6.72096E-20
2.30365E-05 5.58125E-20
2.51783E-05 4.67292E-20
2.74153E-05 3.94185E-20
2.97475E-05 3.34821E-20
3.21749E-05 2.86224E-20
3.46974E-05 2.46142E-20
3.73152E-05 2.12848E-20
4.00281E-05 1.85006E-20
4.28362E-05 1.61577E-20
4.57395E-05 1.41743E-20
4.87380E-05 1.24860E-20
5.18317E-05 1.10415E-20
5.50205E-05 9.79993E-21
5.83045E-05 8.72805E-21
6.16838E-05 7.79886E-21
6.51582E-05 6.99023E-21
6.87277E-05 6.28389E-21
7.23925E-05 5.66467E-21
7.61524E-05 5.10716E-21
9.21439E-05 3.48670E-21
1.09658E-04 2.46022E-21
1.28695E-04 1.78477E-21
1.49255E-04 1.32555E-21
1.71338E-04 1.00469E-21
1.94942E-04 7.75013E-22
2.20070E-04 6.07161E-22
2.46720E-04 4.82211E-22
2.74892E-04 3.87658E-22
3.04586E-04 3.15064E-22
3.35803E-04 2.58585E-22
3.68542E-04 2.14125E-22
4.02802E-04 1.78745E-22
4.38585E-04 1.50314E-22
4.75889E-04 1.27261E-22
5.14715E-04 1.08413E-22
5.55063E-04 9.28865E-23
5.96931E-04 8.00050E-23
6.40321E-04 6.92484E-23
6.85233E-04 6.02115E-23
7.31665E-04 5.25763E-23
7.79618E-04 4.60914E-23
8.29092E-04 4.05560E-23
8.80086E-04 3.58095E-23
9.32601E-04 3.17215E-23
9.86636E-04 2.81862E-23
1.04219E-03 2.51172E-23
1.09927E-03 2.24432E-23
1.15786E-03 2.01054E-23
1.21797E-03 1.80547E-23
1.27961E-03 1.62504E-23
1.34276E-03 1.46583E-23
1.40743E-03 1.32494E-23
1.47362E-03 1.19993E-23
1.54133E-03 1.08874E-23
1.61056E-03 9.89603E-24
1.68131E-03 9.01006E-24
1.75357E-03 8.21656E-24
1.82735E-03 7.50440E-24
1.90265E-03 6.86396E-24
1.97947E-03 6.28692E-24
2.05780E-03 5.76604E-24
2.13765E-03 5.29504E-24
2.21902E-03 4.86843E-24
2.30190E-03 4.48139E-24
2.38630E-03 4.12971E-24
2.47222E-03 3.80969E-24
2.55965E-03 3.51806E-24
2.64859E-03 3.25194E-24
2.73905E-03 3.00876E-24
2.83103E-03 2.78628E-24
2.92452E-03 2.58248E-24
3.01952E-03 2.39557E-24
3.11604E-03 2.22396E-24
3.21407E-03 2.06622E-24
3.31362E-03 1.92108E-24
3.41468E-03 1.78740E-24
3.51725E-03 1.66414E-24
3.62133E-03 1.55040E-24
3.72692E-03 1.44533E-24
3.83403E-03 1.34820E-24
3.94265E-03 1.25832E-24
4.05278E-03 1.17508E-24
4.16442E-03 1.09794E-24
4.27757E-03 1.02639E-24
4.39223E-03 9.59980E-25
4.50840E-03 8.98291E-25
4.62608E-03 8.40950E-25
4.74527E-03 7.87614E-25
4.86597E-03 7.37973E-25
4.98817E-03 6.91740E-25
5.11188E-03 6.48656E-25
5.23711E-03 6.08483E-25
5.36383E-03 5.71002E-25
5.49207E-03 5.36015E-25
5.62181E-03 5.03337E-25
5.75306E-03 4.72802E-25
5.88581E-03 4.44253E-25
6.02007E-03 4.17550E-25
6.15583E-03 3.92561E-25
6.29310E-03 3.69166E-25
6.43187E-03 3.47253E-25
6.57214E-03 3.26721E-25
6.71392E-03 3.07474E-25
6.85720E-03 2.89425E-25
7.00198E-03 2.72493E-25
7.14827E-03 2.56603E-25
7.29605E-03 2.41685E-25
7.44534E-03 2.27676E-25
7.59612E-03 2.14516E-25
7.97965E-03 1.84976E-25
8.37255E-03 1.59644E-25
8.77480E-03 1.37883E-25
9.18641E-03 1.19163E-25
9.60736E-03 1.03036E-25
1.00376E-02 8.91254E-26
1.04773E-02 7.71144E-26
1.09262E-02 6.67335E-26
1.13844E-02 5.77541E-26
1.18520E-02 4.99813E-26
1.23288E-02 4.32491E-26
1.28150E-02 3.74154E-26
1.33104E-02 3.23584E-26
1.38150E-02 2.79735E-26
1.43290E-02 2.41708E-26
1.48521E-02 2.08729E-26
1.53845E-02 1.80128E-26
1.59262E-02 1.55328E-26
1.64770E-02 1.33828E-26
1.70371E-02 1.15197E-26
1.76063E-02 9.90580E-27
1.81848E-02 8.50858E-27
1.87724E-02 7.29972E-27
1.93692E-02 6.25459E-27
1.99751E-02 5.35180E-27
2.05901E-02 4.57269E-27
2.12143E-02 3.90104E-27
2.18476E-02 3.32271E-27
2.24900E-02 2.82538E-27
2.31415E-02 2.39831E-27
2.38021E-02 2.03214E-27
2.44717E-02 1.71870E-27
2.51504E-02 1.45090E-27
2.58382E-02 1.22254E-27
2.65349E-02 1.02822E-27
2.72407E-02 8.63244E-28
2.79555E-02 7.23527E-28
2.86793E-02 6.05516E-28
2.94120E-02 5.06122E-28
3.01537E-02 4.22665E-28
3.09043E-02 3.52820E-28
3.16639E-02 2.94576E-28
3.24324E-02 2.46189E-28
3.32098E-02 2.06155E-28
3.39961E-02 1.73177E-28
3.47912E-02 1.46138E-28
3.55952E-02 1.24079E-28
3.64081E-02 1.06177E-28
3.72297E-02 9.17290E-29
3.80602E-02 8.01347E-29
3.88995E-02 7.08844E-29
3.97476E-02 6.35458E-29
4.06044E-02 5.77543E-29
4.14700E-02 5.32030E-29
4.23443E-02 4.96354E-29
4.32273E-02 4.68378E-29
4.41190E-02 4.46336E-29
4.50194E-02 4.28776E-29
4.59284E-02 4.14517E-29
4.68461E-02 4.02605E-29
4.87074E-02 3.82940E-29
5.06030E-02 3.65495E-29
5.25328E-02 3.47825E-29
5.44967E-02 3.28734E-29
5.64946E-02 3.07848E-29
5.85262E-02 2.85298E-29
6.05914E-02 2.61500E-29
6.26901E-02 2.37004E-29
6.48222E-02 2.12388E-29
6.69873E-02 1.88195E-29
6.91854E-02 1.64896E-29
7.14163E-02 1.42872E-29
7.36799E-02 1.22406E-29
7.59760E-02 1.03689E-29
7.83043E-02 8.68256E-30
8.06647E-02 7.18500E-30
8.30571E-02 5.87348E-30
8.54812E-02 4.74054E-30
8.79369E-02 3.77524E-30
9.04240E-02 2.96418E-30
9.29422E-02 2.29253E-30
9.54915E-02 1.74473E-30
9.80716E-02 1.30522E-30
1.00682E-01 9.58894E-31
1.03323E-01 6.91474E-31
1.05995E-01 4.89778E-31
1.08696E-01 3.41876E-31
1.11427E-01 2.37173E-31
1.14188E-01 1.66429E-31
1.16978E-01 1.21722E-31
1.19797E-01 9.63833E-32
1.22645E-01 8.49054E-32
1.25522E-01 8.28294E-32
1.28428E-01 8.66282E-32
1.31361E-01 9.35859E-32
1.34323E-01 1.01679E-31
1.37313E-01 1.09465E-31
1.40330E-01 1.15976E-31
1.43375E-01 1.20628E-31
1.46447E-01 1.23132E-31
1.49545E-01 1.23428E-31
1.52671E-01 1.21616E-31
1.55823E-01 1.17909E-31
1.59001E-01 1.12590E-31
1.62205E-01 1.05974E-31
1.65435E-01 9.83908E-32
1.68690E-01 9.01557E-32
1.71970E-01 8.15627E-32
1.75276E-01 7.28729E-32
1.78606E-01 6.43095E-32
1.81961E-01 5.60558E-32
1.85340E-01 4.82557E-32
1.88743E-01 4.10152E-32
1.92169E-01 3.44058E-32
1.95619E-01 2.84686E-32
1.99092E-01 2.32179E-32
2.02589E-01 1.86468E-32
2.06107E-01 1.47303E-32
2.09649E-01 1.14303E-32
2.13212E-01 8.69924E-33
2.16797E-01 6.48301E-33
2.20404E-01 4.72424E-33
2.24032E-01 3.36458E-33
2.27680E-01 2.34665E-33
2.31350E-01 1.61560E-33
2.35040E-01 1.12022E-33
2.38751E-01 8.13730E-34
2.42481E-01 6.54284E-34
2.46231E-01 6.05176E-34
2.50000E-01 6.34868E-34
2.53788E-01 7.16838E-34
2.57595E-01 8.29307E-34
2.61421E-01 9.54872E-34
2.65264E-01 1.08008E-33
2.69126E-01 1.19496E-33
2.73005E-01 1.29257E-33
2.76901E-01 1.36852E-33
2.80814E-01 1.42054E-33
2.84744E-01 1.44802E-33
2.88691E-01 1.45169E-33
2.92653E-01 1.43327E-33
2.96632E-01 1.39513E-33
3.00625E-01 1.34010E-33
3.04634E-01 1.27122E-33
3.08658E-01 1.19156E-33
3.12697E-01 1.10415E-33
3.16749E-01 1.01182E-33
3.20816E-01 9.17123E-34
3.24896E-01 8.22343E-34
3.28990E-01 7.29421E-34
3.33097E-01 6.39966E-34
3.37216E-01 5.55257E-34
3.41348E-01 4.76260E-34
3.45492E-01 4.03647E-34
3.49647E-01 3.37833E-34
3.53814E-01 2.79001E-34
3.57992E-01 2.27138E-34
3.62181E-01 1.82071E-34
3.66381E-01 1.43494E-34
3.70590E-01 1.11004E-34
3.74810E-01 8.41261E-35
3.79039E-01 6.23370E-35
3.83277E-01 4.50895E-35
3.87524E-01 3.18302E-35
3.91780E-01 2.20136E-35
3.96044E-01 1.51157E-35
4.00316E-01 1.06429E-35
4.04596E-01 8.13896E-36
4.08882E-01 7.18961E-36
4.13176E-01 7.42524E-36
4.17476E-01 8.52178E-36
4.21783E-01 1.02003E-35
4.26095E-01 1.22256E-35
4.30413E-01 1.44034E-35
4.34737E-01 1.65780E-35
4.39065E-01 1.86279E-35
4.43398E-01 2.04631E-35
4.47736E-01 2.20203E-35
4.52077E-01 2.32600E-35
4.56422E-01 2.41622E-35
4.60770E-01 2.47231E-35
4.65122E-01 2.49520E-35
4.69476E-01 2.48684E-35
4.73832E-01 2.44989E-35
4.78190E-01 2.38754E-35
4.82550E-01 2.30330E-35
4.86912E-01 2.20081E-35
4.91274E-01 2.08372E-35
4.95637E-01 1.95559E-35
5.00000E-01 1.81976E-35
5.04363E-01 1.67933E-35
5.08726E-01 1.53711E-35
5.13088E-01 1.39555E-35
5.17450E-01 1.25678E-35
5.21810E-01 1.12260E-35
5.26168E-01 9.94454E-36
5.30524E-01 8.73481E-36
5.34878E-01 7.60522E-36
5.39230E-01 6.56150E-36
5.43578E-01 5.60700E-36
5.47923E-01 4.74292E-36
5.52264E-01 3.96869E-36
5.56602E-01 3.28217E-36
5.60935E-01 2.68001E-36
5.65263E-01 2.15788E-36
5.69587E-01 1.71070E-36
5.73905E-01 1.33288E-36
5.78217E-01 1.01849E-36
5.82524E-01 7.61432E-37
5.86824E-01 5.55626E-37
5.91118E-01 3.95064E-37
5.95404E-01 2.73944E-37
5.99684E-01 1.86757E-37
6.03956E-01 1.28317E-37
6.08220E-01 9.38339E-38
6.12476E-01 7.89150E-38
6.16723E-01 7.95964E-38
6.20961E-01 9.23363E-38
6.25190E-01 1.14015E-37
6.29410E-01 1.41920E-37
6.33619E-01 1.73727E-37
6.37819E-01 2.07474E-37
6.42008E-01 2.41540E-37
6.46186E-01 2.74612E-37
6.50353E-01 3.05656E-37
6.54508E-01 3.33886E-37
6.58652E-01 3.58734E-37
6.62784E-01 3.79830E-37
6.66903E-01 3.96956E-37
6.71010E-01 4.10034E-37
6.75104E-01 4.19107E-37
6.79184E-01 4.24305E-37
6.83251E-01 4.25828E-37
6.87303E-01 4.23929E-37
6.91342E-01 4.18908E-37
6.95366E-01 4.11086E-37
6.99375E-01 4.00799E-37
7.03368E-01 3.88384E-37
7.07347E-01 3.74182E-37
7.11309E-01 3.58523E-37
7.15256E-01 3.41718E-37
7.19186E-01 3.24063E-37
7.23099E-01 3.05830E-37
7.26995E-01 2.87265E-37
7.30874E-01 2.68595E-37
7.34736E-01 2.50017E-37
7.38579E-01 2.31704E-37
7.42405E-01 2.13809E-37
7.46212E-01 1.96452E-37
7.50000E-01 1.79740E-37
7.53769E-01 1.63750E-37
7.57519E-01 1.48552E-37
7.61249E-01 1.34184E-37
7.64960E-01 1.20681E-37
7.68650E-01 1.08057E-37
7.72320E-01 9.63149E-38
7.75968E-01 8.54506E-38
7.79596E-01 7.54458E-38
7.83203E-01 6.62808E-38
7.86788E-01 5.79248E-38
7.90351E-01 5.03447E-38
7.93893E-01 4.35028E-38
7.97411E-01 3.73587E-38
8.00908E-01 3.18703E-38
8.04381E-01 2.69956E-38
8.07831E-01 2.26903E-38
8.11257E-01 1.89118E-38
8.14660E-01 1.56160E-38
8.18039E-01 1.27632E-38
8.21394E-01 1.03113E-38
8.24724E-01 8.22386E-39
8.28030E-01 6.46225E-39
8.31310E-01 4.99304E-39
8.34565E-01 3.78279E-39
8.37795E-01 2.80166E-39
8.40999E-01 2.02170E-39
8.44177E-01 1.00000E-45
8.47329E-01 1.00000E-45
8.50455E-01 1.00000E-45
8.53553E-01 1.00000E-45
8.56625E-01 1.00000E-45
8.59670E-01 1.00000E-45
8.62687E-01 1.00000E-45
8.65677E-01 1.00000E-45
8.68639E-01 1.00000E-45
8.71572E-01 1.00000E-45
8.74478E-01 1.00000E-45
8.77355E-01 1.00000E-45
8.80203E-01 1.00000E-45
8.83022E-01 1.00000E-45
8.85812E-01 1.00000E-45
8.88573E-01 1.00000E-45
8.91304E-01 1.00000E-45
8.94005E-01 1.00000E-45
8.96677E-01 1.00000E-45
8.99318E-01 1.00000E-45
9.01928E-01 1.00000E-45
9.04508E-01 1.00000E-45
9.07058E-01 1.00000E-45
9.09576E-01 1.00000E-45
9.12063E-01 1.00000E-45
9.14519E-01 1.00000E-45
9.16943E-01 1.00000E-45
9.19335E-01 1.00000E-45
9.21696E-01 1.00000E-45
9.24024E-01 1.00000E-45
9.26320E-01 1.00000E-45
9.28584E-01 1.00000E-45
9.30815E-01 1.00000E-45
9.33013E-01 1.00000E-45
9.35178E-01 1.00000E-45
9.37310E-01 1.00000E-45
9.39409E-01 1.00000E-45
9.41474E-01 1.00000E-45
9.43505E-01 1.00000E-45
9.45503E-01 1.00000E-45
9.47467E-01 1.00000E-45
9.49397E-01 1.00000E-45
9.51293E-01 1.00000E-45
9.53154E-01 1.00000E-45
9.54981E-01 1.00000E-45
9.56773E-01 1.00000E-45
9.58530E-01 1.00000E-45
9.60252E-01 1.00000E-45
9.61940E-01 1.00000E-45
9.63592E-01 1.00000E-45
9.65209E-01 1.00000E-45
9.66790E-01 1.00000E-45
9.68336E-01 1.00000E-45
9.69846E-01 1.00000E-45
9.71321E-01 1.00000E-45
9.72759E-01 1.00000E-45
9.74162E-01 1.00000E-45
9.75528E-01 1.00000E-45
9.76858E-01 1.00000E-45
9.78152E-01 1.00000E-45
9.79410E-01 1.00000E-45
9.80631E-01 1.00000E-45
9.81815E-01 1.00000E-45
9.82963E-01 1.00000E-45
9.84074E-01 1.00000E-45
9.85148E-01 1.00000E-45
9.86185E-01 1.00000E-45
9.87185E-01 1.00000E-45
9.88148E-01 1.00000E-45
9.89074E-01 1.00000E-45
9.89962E-01 1.00000E-45
9.90814E-01 1.00000E-45
9.91627E-01 1.00000E-45
9.92404E-01 1.00000E-45
9.93143E-01 1.00000E-45
9.93844E-01 1.00000E-45
9.94508E-01 1.00000E-45
9.95134E-01 1.00000E-45
9.95722E-01 1.00000E-45
9.96273E-01 1.00000E-45
9.96786E-01 1.00000E-45
9.97261E-01 1.00000E-45
9.97698E-01 1.00000E-45
9.98097E-01 1.00000E-45
9.98459E-01 1.00000E-45
9.98782E-01 1.00000E-45
9.99067E-01 1.00000E-45
9.99315E-01 1.00000E-45
9.99524E-01 1.00000E-45
9.99695E-01 1.00000E-45
9.99829E-01 1.00000E-45
9.99924E-01 1.00000E-45
9.99981E-01 1.00000E-45
1.00000E+00 1.00000E-45
