 #
 # Subroutine ELSEPA. Elastic scattering of electrons and positrons
 #                    by neutral atoms and positive ions
 #
 # Projectile: electron
 # Kinetic energy = 1.50000E+06 eV = 5.51240E+04 a.u.
 #
 # WARNING: High-energy factorization with free-atom DF screening.
 #          Absorption, polarization and exchange corrections are
 #          switched off.
 #          Phase shifts are calculated for the bare nucleus.
 #          Scattering amplitudes are not evaluated.
 #
 # Element: Se,  Z =  34,  atomic weight = 7.89600E+01 g/mol
 #
 # Nuclear model: Fermi distribution
 #                Average radius = 4.59042E-13 cm
 #                Skin thickness = 5.46000E-14 cm
 #
 # Number of electrons = 34
 #
 # Total elastic cross section = 2.79371E-18 cm**2 = 9.97650E-02 a0**2
 # 1st transport cross section = 4.22603E-22 cm**2 = 1.50914E-05 a0**2
 # 2nd transport cross section = 1.17445E-21 cm**2 = 4.19402E-05 a0**2
 #
 #
 # Differential cross section:                       MU=(1-COS(THETA))/2
 #
 #  THETA        MU          DCS          DCS        Sherman      error
 #  (deg)                 (cm**2/sr)   (a0**2/sr)    function
 #----------------------------------------------------------------------
0.00000E+00 7.95596E-14
7.61557E-13 7.95596E-14
1.18994E-12 7.95596E-14
1.71346E-12 7.95595E-14
2.33225E-12 7.95595E-14
3.04617E-12 7.95594E-14
3.85530E-12 7.95594E-14
4.75964E-12 7.95593E-14
5.75917E-12 7.95593E-14
6.85391E-12 7.95592E-14
8.04379E-12 7.95591E-14
9.32893E-12 7.95590E-14
1.07092E-11 7.95589E-14
1.21847E-11 7.95588E-14
1.37554E-11 7.95587E-14
1.54213E-11 7.95586E-14
1.71823E-11 7.95585E-14
1.90386E-11 7.95584E-14
2.09900E-11 7.95582E-14
2.30367E-11 7.95581E-14
2.51785E-11 7.95579E-14
2.74156E-11 7.95578E-14
2.97478E-11 7.95576E-14
3.21752E-11 7.95575E-14
3.46979E-11 7.95573E-14
3.73157E-11 7.95571E-14
4.00286E-11 7.95569E-14
4.28368E-11 7.95567E-14
4.57402E-11 7.95565E-14
4.87388E-11 7.95563E-14
5.18325E-11 7.95561E-14
5.50215E-11 7.95559E-14
5.83057E-11 7.95557E-14
6.16850E-11 7.95554E-14
6.51595E-11 7.95552E-14
6.87293E-11 7.95549E-14
7.23943E-11 7.95547E-14
7.61544E-11 7.95544E-14
1.18991E-10 7.95514E-14
1.71347E-10 7.95477E-14
2.33223E-10 7.95434E-14
3.04617E-10 7.95383E-14
3.85531E-10 7.95326E-14
4.75965E-10 7.95262E-14
5.75917E-10 7.95191E-14
6.85389E-10 7.95113E-14
8.04380E-10 7.95029E-14
9.32891E-10 7.94938E-14
1.07092E-09 7.94840E-14
1.21847E-09 7.94735E-14
1.37554E-09 7.94623E-14
1.54213E-09 7.94505E-14
1.71823E-09 7.94380E-14
1.90386E-09 7.94248E-14
2.09900E-09 7.94109E-14
2.30367E-09 7.93964E-14
2.51785E-09 7.93811E-14
2.74156E-09 7.93652E-14
2.97478E-09 7.93487E-14
3.21752E-09 7.93314E-14
3.46978E-09 7.93135E-14
3.73156E-09 7.92949E-14
4.00286E-09 7.92757E-14
4.28368E-09 7.92557E-14
4.57402E-09 7.92351E-14
4.87388E-09 7.92138E-14
5.18326E-09 7.91919E-14
5.50215E-09 7.91693E-14
5.83057E-09 7.91460E-14
6.16850E-09 7.91221E-14
6.51596E-09 7.90975E-14
6.87293E-09 7.90722E-14
7.23942E-09 7.90463E-14
7.61544E-09 7.90197E-14
1.18991E-08 7.87176E-14
1.71347E-08 7.83505E-14
2.33223E-08 7.79199E-14
3.04617E-08 7.74274E-14
3.85531E-08 7.68747E-14
4.75965E-08 7.62637E-14
5.75917E-08 7.55970E-14
6.85389E-08 7.48688E-14
8.04380E-08 7.40946E-14
9.32891E-08 7.32833E-14
1.07092E-07 7.24070E-14
1.21847E-07 7.14976E-14
1.37554E-07 7.05602E-14
1.54213E-07 6.95595E-14
1.71823E-07 6.85424E-14
1.90386E-07 6.74991E-14
2.09900E-07 6.64066E-14
2.30367E-07 6.53097E-14
2.51785E-07 6.41856E-14
2.74156E-07 6.30297E-14
2.97478E-07 6.18803E-14
3.21752E-07 6.07003E-14
3.46978E-07 5.95077E-14
3.73156E-07 5.83311E-14
4.00286E-07 5.71189E-14
4.28368E-07 5.59139E-14
4.57402E-07 5.47324E-14
4.87388E-07 5.35099E-14
5.18325E-07 5.23133E-14
5.50215E-07 5.11361E-14
5.83057E-07 4.99324E-14
6.16850E-07 4.87615E-14
6.51596E-07 4.76029E-14
6.87293E-07 4.64357E-14
7.23942E-07 4.53043E-14
7.61543E-07 4.41780E-14
1.18991E-06 3.39010E-14
1.71347E-06 2.56886E-14
2.33223E-06 1.94602E-14
3.04617E-06 1.48622E-14
3.85531E-06 1.15054E-14
4.75964E-06 9.04810E-15
5.75916E-06 7.23531E-15
6.85388E-06 5.84546E-15
8.04378E-06 4.81223E-15
9.32888E-06 4.04067E-15
1.07092E-05 3.39505E-15
1.21846E-05 2.89264E-15
1.37553E-05 2.49682E-15
1.54212E-05 2.14700E-15
1.71822E-05 1.86820E-15
1.90385E-05 1.63605E-15
2.09899E-05 1.42924E-15
2.30365E-05 1.25991E-15
2.51783E-05 1.11283E-15
2.74153E-05 9.82229E-16
2.97475E-05 8.73146E-16
3.21749E-05 7.75692E-16
3.46974E-05 6.90161E-16
3.73152E-05 6.17622E-16
4.00281E-05 5.51666E-16
4.28362E-05 4.94246E-16
4.57395E-05 4.44874E-16
4.87380E-05 3.99514E-16
5.18317E-05 3.60151E-16
5.50205E-05 3.25680E-16
5.83045E-05 2.94323E-16
6.16838E-05 2.66893E-16
6.51582E-05 2.42534E-16
6.87277E-05 2.20554E-16
7.23925E-05 2.01148E-16
7.61524E-05 1.83734E-16
9.21439E-05 1.30126E-16
1.09658E-04 9.47342E-17
1.28695E-04 7.06561E-17
1.49255E-04 5.38846E-17
1.71338E-04 4.18802E-17
1.94942E-04 3.31037E-17
2.20070E-04 2.65561E-17
2.46720E-04 2.15733E-17
2.74892E-04 1.77221E-17
3.04586E-04 1.46960E-17
3.35803E-04 1.22919E-17
3.68542E-04 1.03596E-17
4.02802E-04 8.79123E-18
4.38585E-04 7.50827E-18
4.75889E-04 6.44834E-18
5.14715E-04 5.56791E-18
5.55063E-04 4.83082E-18
5.96931E-04 4.21050E-18
6.40321E-04 3.68340E-18
6.85233E-04 3.23709E-18
7.31665E-04 2.85799E-18
7.79618E-04 2.52947E-18
8.29092E-04 2.24756E-18
8.80086E-04 2.00427E-18
9.32601E-04 1.79164E-18
9.86636E-04 1.60693E-18
1.04219E-03 1.44544E-18
1.09927E-03 1.30331E-18
1.15786E-03 1.17848E-18
1.21797E-03 1.06816E-18
1.27961E-03 9.70340E-19
1.34276E-03 8.83620E-19
1.40743E-03 8.06296E-19
1.47362E-03 7.37265E-19
1.54133E-03 6.75562E-19
1.61056E-03 6.20115E-19
1.68131E-03 5.70289E-19
1.75357E-03 5.25430E-19
1.82735E-03 4.84850E-19
1.90265E-03 4.48162E-19
1.97947E-03 4.14910E-19
2.05780E-03 3.84673E-19
2.13765E-03 3.57176E-19
2.21902E-03 3.32106E-19
2.30190E-03 3.09197E-19
2.38630E-03 2.88255E-19
2.47222E-03 2.69060E-19
2.55965E-03 2.51444E-19
2.64859E-03 2.35266E-19
2.73905E-03 2.20366E-19
2.83103E-03 2.06636E-19
2.92452E-03 1.93973E-19
3.01952E-03 1.82260E-19
3.11604E-03 1.71429E-19
3.21407E-03 1.61400E-19
3.31362E-03 1.52089E-19
3.41468E-03 1.43449E-19
3.51725E-03 1.35419E-19
3.62133E-03 1.27942E-19
3.72692E-03 1.20980E-19
3.83403E-03 1.14488E-19
3.94265E-03 1.08426E-19
4.05278E-03 1.02765E-19
4.16442E-03 9.74690E-20
4.27757E-03 9.25111E-20
4.39223E-03 8.78688E-20
4.50840E-03 8.35129E-20
4.62608E-03 7.94258E-20
4.74527E-03 7.55891E-20
4.86597E-03 7.19793E-20
4.98817E-03 6.85850E-20
5.11188E-03 6.53906E-20
5.23711E-03 6.23786E-20
5.36383E-03 5.95404E-20
5.49207E-03 5.68629E-20
5.62181E-03 5.43337E-20
5.75306E-03 5.19454E-20
5.88581E-03 4.96872E-20
6.02007E-03 4.75505E-20
6.15583E-03 4.55289E-20
6.29310E-03 4.36134E-20
6.43187E-03 4.17980E-20
6.57214E-03 4.00774E-20
6.71392E-03 3.84439E-20
6.85720E-03 3.68934E-20
7.00198E-03 3.54214E-20
7.14827E-03 3.40213E-20
7.29605E-03 3.26906E-20
7.44534E-03 3.14249E-20
7.59612E-03 3.02195E-20
7.97965E-03 2.74514E-20
8.37255E-03 2.49945E-20
8.77480E-03 2.28076E-20
9.18641E-03 2.08557E-20
9.60736E-03 1.91091E-20
1.00376E-02 1.75424E-20
1.04773E-02 1.61338E-20
1.09262E-02 1.48645E-20
1.13844E-02 1.37182E-20
1.18520E-02 1.26808E-20
1.23288E-02 1.17401E-20
1.28150E-02 1.08855E-20
1.33104E-02 1.01077E-20
1.38150E-02 9.39841E-21
1.43290E-02 8.75063E-21
1.48521E-02 8.15801E-21
1.53845E-02 7.61500E-21
1.59262E-02 7.11669E-21
1.64770E-02 6.65871E-21
1.70371E-02 6.23721E-21
1.76063E-02 5.84871E-21
1.81848E-02 5.49018E-21
1.87724E-02 5.15887E-21
1.93692E-02 4.85234E-21
1.99751E-02 4.56838E-21
2.05901E-02 4.30503E-21
2.12143E-02 4.06051E-21
2.18476E-02 3.83322E-21
2.24900E-02 3.62171E-21
2.31415E-02 3.42469E-21
2.38021E-02 3.24097E-21
2.44717E-02 3.06950E-21
2.51504E-02 2.90929E-21
2.58382E-02 2.75948E-21
2.65349E-02 2.61926E-21
2.72407E-02 2.48789E-21
2.79555E-02 2.36472E-21
2.86793E-02 2.24912E-21
2.94120E-02 2.14056E-21
3.01537E-02 2.03852E-21
3.09043E-02 1.94253E-21
3.16639E-02 1.85217E-21
3.24324E-02 1.76704E-21
3.32098E-02 1.68678E-21
3.39961E-02 1.61106E-21
3.47912E-02 1.53958E-21
3.55952E-02 1.47205E-21
3.64081E-02 1.40820E-21
3.72297E-02 1.34781E-21
3.80602E-02 1.29065E-21
3.88995E-02 1.23651E-21
3.97476E-02 1.18520E-21
4.06044E-02 1.13654E-21
4.14700E-02 1.09037E-21
4.23443E-02 1.04655E-21
4.32273E-02 1.00492E-21
4.41190E-02 9.65355E-22
4.50194E-02 9.27734E-22
4.59284E-02 8.91943E-22
4.68461E-02 8.57874E-22
4.87074E-02 7.94516E-22
5.06030E-02 7.36943E-22
5.25328E-02 6.84529E-22
5.44967E-02 6.36728E-22
5.64946E-02 5.93057E-22
5.85262E-02 5.53093E-22
6.05914E-02 5.16463E-22
6.26901E-02 4.82837E-22
6.48222E-02 4.51923E-22
6.69873E-02 4.23460E-22
6.91854E-02 3.97219E-22
7.14163E-02 3.72992E-22
7.36799E-02 3.50596E-22
7.59760E-02 3.29867E-22
7.83043E-02 3.10657E-22
8.06647E-02 2.92833E-22
8.30571E-02 2.76277E-22
8.54812E-02 2.60881E-22
8.79369E-02 2.46549E-22
9.04240E-02 2.33192E-22
9.29422E-02 2.20732E-22
9.54915E-02 2.09098E-22
9.80716E-02 1.98223E-22
1.00682E-01 1.88049E-22
1.03323E-01 1.78523E-22
1.05995E-01 1.69594E-22
1.08696E-01 1.61218E-22
1.11427E-01 1.53355E-22
1.14188E-01 1.45967E-22
1.16978E-01 1.39019E-22
1.19797E-01 1.32481E-22
1.22645E-01 1.26324E-22
1.25522E-01 1.20520E-22
1.28428E-01 1.15047E-22
1.31361E-01 1.09881E-22
1.34323E-01 1.05002E-22
1.37313E-01 1.00390E-22
1.40330E-01 9.60294E-23
1.43375E-01 9.19025E-23
1.46447E-01 8.79946E-23
1.49545E-01 8.42920E-23
1.52671E-01 8.07816E-23
1.55823E-01 7.74517E-23
1.59001E-01 7.42911E-23
1.62205E-01 7.12896E-23
1.65435E-01 6.84375E-23
1.68690E-01 6.57260E-23
1.71970E-01 6.31468E-23
1.75276E-01 6.06922E-23
1.78606E-01 5.83551E-23
1.81961E-01 5.61286E-23
1.85340E-01 5.40066E-23
1.88743E-01 5.19832E-23
1.92169E-01 5.00529E-23
1.95619E-01 4.82106E-23
1.99092E-01 4.64515E-23
2.02589E-01 4.47711E-23
2.06107E-01 4.31652E-23
2.09649E-01 4.16299E-23
2.13212E-01 4.01614E-23
2.16797E-01 3.87563E-23
2.20404E-01 3.74114E-23
2.24032E-01 3.61234E-23
2.27680E-01 3.48897E-23
2.31350E-01 3.37073E-23
2.35040E-01 3.25739E-23
2.38751E-01 3.14869E-23
2.42481E-01 3.04441E-23
2.46231E-01 2.94433E-23
2.50000E-01 2.84826E-23
2.53788E-01 2.75599E-23
2.57595E-01 2.66736E-23
2.61421E-01 2.58219E-23
2.65264E-01 2.50031E-23
2.69126E-01 2.42158E-23
2.73005E-01 2.34586E-23
2.76901E-01 2.27300E-23
2.80814E-01 2.20287E-23
2.84744E-01 2.13536E-23
2.88691E-01 2.07035E-23
2.92653E-01 2.00772E-23
2.96632E-01 1.94737E-23
3.00625E-01 1.88921E-23
3.04634E-01 1.83314E-23
3.08658E-01 1.77907E-23
3.12697E-01 1.72691E-23
3.16749E-01 1.67659E-23
3.20816E-01 1.62802E-23
3.24896E-01 1.58114E-23
3.28990E-01 1.53588E-23
3.33097E-01 1.49216E-23
3.37216E-01 1.44992E-23
3.41348E-01 1.40911E-23
3.45492E-01 1.36967E-23
3.49647E-01 1.33155E-23
3.53814E-01 1.29468E-23
3.57992E-01 1.25902E-23
3.62181E-01 1.22453E-23
3.66381E-01 1.19116E-23
3.70590E-01 1.15887E-23
3.74810E-01 1.12761E-23
3.79039E-01 1.09734E-23
3.83277E-01 1.06803E-23
3.87524E-01 1.03965E-23
3.91780E-01 1.01215E-23
3.96044E-01 9.85500E-24
4.00316E-01 9.59678E-24
4.04596E-01 9.34648E-24
4.08882E-01 9.10382E-24
4.13176E-01 8.86851E-24
4.17476E-01 8.64031E-24
4.21783E-01 8.41894E-24
4.26095E-01 8.20418E-24
4.30413E-01 7.99578E-24
4.34737E-01 7.79352E-24
4.39065E-01 7.59719E-24
4.43398E-01 7.40658E-24
4.47736E-01 7.22150E-24
4.52077E-01 7.04175E-24
4.56422E-01 6.86715E-24
4.60770E-01 6.69753E-24
4.65122E-01 6.53273E-24
4.69476E-01 6.37257E-24
4.73832E-01 6.21691E-24
4.78190E-01 6.06559E-24
4.82550E-01 5.91848E-24
4.86912E-01 5.77542E-24
4.91274E-01 5.63630E-24
4.95637E-01 5.50099E-24
5.00000E-01 5.36936E-24
5.04363E-01 5.24129E-24
5.08726E-01 5.11667E-24
5.13088E-01 4.99539E-24
5.17450E-01 4.87735E-24
5.21810E-01 4.76244E-24
5.26168E-01 4.65057E-24
5.30524E-01 4.54163E-24
5.34878E-01 4.43555E-24
5.39230E-01 4.33224E-24
5.43578E-01 4.23160E-24
5.47923E-01 4.13356E-24
5.52264E-01 4.03804E-24
5.56602E-01 3.94496E-24
5.60935E-01 3.85425E-24
5.65263E-01 3.76585E-24
5.69587E-01 3.67967E-24
5.73905E-01 3.59566E-24
5.78217E-01 3.51374E-24
5.82524E-01 3.43387E-24
5.86824E-01 3.35599E-24
5.91118E-01 3.28002E-24
5.95404E-01 3.20592E-24
5.99684E-01 3.13364E-24
6.03956E-01 3.06313E-24
6.08220E-01 2.99432E-24
6.12476E-01 2.92718E-24
6.16723E-01 2.86166E-24
6.20961E-01 2.79771E-24
6.25190E-01 2.73529E-24
6.29410E-01 2.67436E-24
6.33619E-01 2.61488E-24
6.37819E-01 2.55680E-24
6.42008E-01 2.50008E-24
6.46186E-01 2.44470E-24
6.50353E-01 2.39062E-24
6.54508E-01 2.33779E-24
6.58652E-01 2.28620E-24
6.62784E-01 2.23579E-24
6.66903E-01 2.18655E-24
6.71010E-01 2.13844E-24
6.75104E-01 2.09143E-24
6.79184E-01 2.04549E-24
6.83251E-01 2.00060E-24
6.87303E-01 1.95673E-24
6.91342E-01 1.91384E-24
6.95366E-01 1.87193E-24
6.99375E-01 1.83095E-24
7.03368E-01 1.79090E-24
7.07347E-01 1.75173E-24
7.11309E-01 1.71344E-24
7.15256E-01 1.67600E-24
7.19186E-01 1.63939E-24
7.23099E-01 1.60359E-24
7.26995E-01 1.56857E-24
7.30874E-01 1.53432E-24
7.34736E-01 1.50083E-24
7.38579E-01 1.46806E-24
7.42405E-01 1.43601E-24
7.46212E-01 1.40465E-24
7.50000E-01 1.37398E-24
7.53769E-01 1.34397E-24
7.57519E-01 1.31460E-24
7.61249E-01 1.28587E-24
7.64960E-01 1.25776E-24
7.68650E-01 1.23024E-24
7.72320E-01 1.20332E-24
7.75968E-01 1.17698E-24
7.79596E-01 1.15119E-24
7.83203E-01 1.12595E-24
7.86788E-01 1.10125E-24
7.90351E-01 1.07708E-24
7.93893E-01 1.05341E-24
7.97411E-01 1.03025E-24
8.00908E-01 1.00757E-24
8.04381E-01 9.85377E-25
8.07831E-01 9.63648E-25
8.11257E-01 9.42378E-25
8.14660E-01 9.21554E-25
8.18039E-01 9.01168E-25
8.21394E-01 8.81210E-25
8.24724E-01 8.61670E-25
8.28030E-01 8.42540E-25
8.31310E-01 8.23811E-25
8.34565E-01 8.05474E-25
8.37795E-01 7.87521E-25
8.40999E-01 7.69944E-25
8.44177E-01 7.52735E-25
8.47329E-01 7.35886E-25
8.50455E-01 7.19389E-25
8.53553E-01 7.03239E-25
8.56625E-01 6.87426E-25
8.59670E-01 6.71945E-25
8.62687E-01 6.56789E-25
8.65677E-01 6.41951E-25
8.68639E-01 6.27425E-25
8.71572E-01 6.13205E-25
8.74478E-01 5.99284E-25
8.77355E-01 5.85657E-25
8.80203E-01 5.72318E-25
8.83022E-01 5.59261E-25
8.85812E-01 5.46482E-25
8.88573E-01 5.33973E-25
8.91304E-01 5.21732E-25
8.94005E-01 5.09752E-25
8.96677E-01 4.98028E-25
8.99318E-01 4.86557E-25
9.01928E-01 4.75332E-25
9.04508E-01 4.64350E-25
9.07058E-01 4.53607E-25
9.09576E-01 4.43097E-25
9.12063E-01 4.32818E-25
9.14519E-01 4.22764E-25
9.16943E-01 4.12932E-25
9.19335E-01 4.03318E-25
9.21696E-01 3.93918E-25
9.24024E-01 3.84728E-25
9.26320E-01 3.75746E-25
9.28584E-01 3.66967E-25
9.30815E-01 3.58388E-25
9.33013E-01 3.50007E-25
9.35178E-01 3.41819E-25
9.37310E-01 3.33821E-25
9.39409E-01 3.26011E-25
9.41474E-01 3.18386E-25
9.43505E-01 3.10942E-25
9.45503E-01 3.03677E-25
9.47467E-01 2.96589E-25
9.49397E-01 2.89674E-25
9.51293E-01 2.82931E-25
9.53154E-01 2.76356E-25
9.54981E-01 2.69947E-25
9.56773E-01 2.63702E-25
9.58530E-01 2.57619E-25
9.60252E-01 2.51695E-25
9.61940E-01 2.45928E-25
9.63592E-01 2.40316E-25
9.65209E-01 2.34857E-25
9.66790E-01 2.29550E-25
9.68336E-01 2.24392E-25
9.69846E-01 2.19381E-25
9.71321E-01 2.14515E-25
9.72759E-01 2.09794E-25
9.74162E-01 2.05215E-25
9.75528E-01 2.00776E-25
9.76858E-01 1.96476E-25
9.78152E-01 1.92314E-25
9.79410E-01 1.88288E-25
9.80631E-01 1.84397E-25
9.81815E-01 1.80638E-25
9.82963E-01 1.77012E-25
9.84074E-01 1.73516E-25
9.85148E-01 1.70150E-25
9.86185E-01 1.66912E-25
9.87185E-01 1.63802E-25
9.88148E-01 1.60817E-25
9.89074E-01 1.57958E-25
9.89962E-01 1.55222E-25
9.90814E-01 1.52610E-25
9.91627E-01 1.50120E-25
9.92404E-01 1.47752E-25
9.93143E-01 1.45504E-25
9.93844E-01 1.43376E-25
9.94508E-01 1.41367E-25
9.95134E-01 1.39476E-25
9.95722E-01 1.37703E-25
9.96273E-01 1.36047E-25
9.96786E-01 1.34508E-25
9.97261E-01 1.33085E-25
9.97698E-01 1.31778E-25
9.98097E-01 1.30586E-25
9.98459E-01 1.29508E-25
9.98782E-01 1.28545E-25
9.99067E-01 1.27696E-25
9.99315E-01 1.26961E-25
9.99524E-01 1.26339E-25
9.99695E-01 1.25831E-25
9.99829E-01 1.25436E-25
9.99924E-01 1.25154E-25
9.99981E-01 1.24984E-25
1.00000E+00 1.24928E-25
