 #
 # Subroutine ELSEPA. Elastic scattering of electrons and positrons
 #                    by neutral atoms and positive ions
 #
 # Projectile: electron
 # Kinetic energy = 1.75000E+07 eV = 6.43113E+05 a.u.
 #
 # WARNING: High-energy factorization with free-atom DF screening.
 #          Absorption, polarization and exchange corrections are
 #          switched off.
 #          Phase shifts are calculated for the bare nucleus.
 #          Scattering amplitudes are not evaluated.
 #
 # Element: La,  Z =  57,  atomic weight = 1.38905E+02 g/mol
 #
 # Nuclear model: Fermi distribution
 #                Average radius = 5.54145E-13 cm
 #                Skin thickness = 5.46000E-14 cm
 #
 # Number of electrons = 57
 #
 # Total elastic cross section = 7.54055E-18 cm**2 = 2.69278E-01 a0**2
 # 1st transport cross section = 1.86916E-23 cm**2 = 6.67487E-07 a0**2
 # 2nd transport cross section = 5.30253E-23 cm**2 = 1.89357E-06 a0**2
 #
 #
 # Differential cross section:                       MU=(1-COS(THETA))/2
 #
 #  THETA        MU          DCS          DCS        Sherman      error
 #  (deg)                 (cm**2/sr)   (a0**2/sr)    function
 #----------------------------------------------------------------------
0.00000E+00 3.81802E-11
7.61557E-13 3.81737E-11
1.18994E-12 3.81701E-11
1.71346E-12 3.81656E-11
2.33225E-12 3.81604E-11
3.04617E-12 3.81543E-11
3.85530E-12 3.81475E-11
4.75964E-12 3.81399E-11
5.75917E-12 3.81314E-11
6.85391E-12 3.81222E-11
8.04379E-12 3.81121E-11
9.32893E-12 3.81013E-11
1.07092E-11 3.80896E-11
1.21847E-11 3.80772E-11
1.37554E-11 3.80640E-11
1.54213E-11 3.80499E-11
1.71823E-11 3.80351E-11
1.90386E-11 3.80195E-11
2.09900E-11 3.80031E-11
2.30367E-11 3.79859E-11
2.51785E-11 3.79680E-11
2.74156E-11 3.79492E-11
2.97478E-11 3.79297E-11
3.21752E-11 3.79094E-11
3.46979E-11 3.78883E-11
3.73157E-11 3.78664E-11
4.00286E-11 3.78438E-11
4.28368E-11 3.78204E-11
4.57402E-11 3.77962E-11
4.87388E-11 3.77712E-11
5.18325E-11 3.77455E-11
5.50215E-11 3.77191E-11
5.83057E-11 3.76918E-11
6.16850E-11 3.76638E-11
6.51595E-11 3.76351E-11
6.87293E-11 3.76056E-11
7.23943E-11 3.75754E-11
7.61544E-11 3.75444E-11
1.18991E-10 3.71943E-11
1.71347E-10 3.67735E-11
2.33223E-10 3.62860E-11
3.04617E-10 3.57362E-11
3.85531E-10 3.51292E-11
4.75965E-10 3.44702E-11
5.75917E-10 3.37647E-11
6.85389E-10 3.30187E-11
8.04380E-10 3.22425E-11
9.32891E-10 3.14338E-11
1.07092E-09 3.05958E-11
1.21847E-09 2.97483E-11
1.37554E-09 2.88860E-11
1.54213E-09 2.80088E-11
1.71823E-09 2.71376E-11
1.90386E-09 2.62663E-11
2.09900E-09 2.53922E-11
2.30367E-09 2.45354E-11
2.51785E-09 2.36904E-11
2.74156E-09 2.28515E-11
2.97478E-09 2.20371E-11
3.21752E-09 2.12429E-11
3.46978E-09 2.04610E-11
3.73156E-09 1.97071E-11
4.00286E-09 1.89786E-11
4.28368E-09 1.82659E-11
4.57402E-09 1.75819E-11
4.87388E-09 1.69257E-11
5.18326E-09 1.62869E-11
5.50215E-09 1.56755E-11
5.83057E-09 1.50922E-11
6.16850E-09 1.45265E-11
6.51596E-09 1.39859E-11
6.87293E-09 1.34722E-11
7.23942E-09 1.29754E-11
7.61544E-09 1.25007E-11
1.18991E-08 8.77878E-12
1.71347E-08 6.39084E-12
2.33223E-08 4.80092E-12
3.04617E-08 3.69087E-12
3.85531E-08 2.88579E-12
4.75965E-08 2.28630E-12
5.75917E-08 1.83171E-12
6.85389E-08 1.48265E-12
8.04380E-08 1.20319E-12
9.32891E-08 9.92164E-13
1.07092E-07 8.32253E-13
1.21847E-07 6.98308E-13
1.37554E-07 5.91349E-13
1.54213E-07 5.07184E-13
1.71823E-07 4.35516E-13
1.90386E-07 3.76375E-13
2.09900E-07 3.28439E-13
2.30367E-07 2.86785E-13
2.51785E-07 2.51423E-13
2.74156E-07 2.22103E-13
2.97478E-07 1.96292E-13
3.21752E-07 1.73902E-13
3.46978E-07 1.55004E-13
3.73156E-07 1.38277E-13
4.00286E-07 1.23554E-13
4.28368E-07 1.10945E-13
4.57402E-07 9.97628E-14
4.87388E-07 8.98292E-14
5.18325E-07 8.12153E-14
5.50215E-07 7.35622E-14
5.83057E-07 6.67217E-14
6.16850E-07 6.07249E-14
6.51596E-07 5.53804E-14
6.87293E-07 5.05793E-14
7.23942E-07 4.63295E-14
7.61543E-07 4.25244E-14
1.18991E-06 1.99385E-14
1.71347E-06 1.07493E-14
2.33223E-06 6.31539E-15
3.04617E-06 3.93619E-15
3.85531E-06 2.56569E-15
4.75964E-06 1.73756E-15
5.75916E-06 1.21721E-15
6.85388E-06 8.77702E-16
8.04378E-06 6.48817E-16
9.32888E-06 4.90493E-16
1.07092E-05 3.77903E-16
1.21846E-05 2.95985E-16
1.37553E-05 2.35171E-16
1.54212E-05 1.89184E-16
1.71822E-05 1.53932E-16
1.90385E-05 1.26483E-16
2.09899E-05 1.04967E-16
2.30365E-05 8.78229E-17
2.51783E-05 7.40089E-17
2.74153E-05 6.27883E-17
2.97475E-05 5.36070E-17
3.21749E-05 4.60407E-17
3.46974E-05 3.97631E-17
3.73152E-05 3.45204E-17
4.00281E-05 3.01123E-17
4.28362E-05 2.63863E-17
4.57395E-05 2.32185E-17
4.87380E-05 2.05107E-17
5.18317E-05 1.81848E-17
5.50205E-05 1.61779E-17
5.83045E-05 1.44397E-17
6.16838E-05 1.29288E-17
6.51582E-05 1.16109E-17
6.87277E-05 1.04571E-17
7.23925E-05 9.44339E-18
7.61524E-05 8.54996E-18
9.21439E-05 5.87782E-18
1.09658E-04 4.17313E-18
1.28695E-04 3.04490E-18
1.49255E-04 2.27369E-18
1.71338E-04 1.73229E-18
1.94942E-04 1.34300E-18
2.20070E-04 1.05732E-18
2.46720E-04 8.43813E-19
2.74892E-04 6.81623E-19
3.04586E-04 5.56650E-19
3.35803E-04 4.59075E-19
3.68542E-04 3.81997E-19
4.02802E-04 3.20456E-19
4.38585E-04 2.70838E-19
4.75889E-04 2.30474E-19
5.14715E-04 1.97365E-19
5.55063E-04 1.70002E-19
5.96931E-04 1.47227E-19
6.40321E-04 1.28147E-19
6.85233E-04 1.12065E-19
7.31665E-04 9.84321E-20
7.79618E-04 8.68151E-20
8.29092E-04 7.68650E-20
8.80086E-04 6.83035E-20
9.32601E-04 6.09041E-20
9.86636E-04 5.44820E-20
1.04219E-03 4.88866E-20
1.09927E-03 4.39932E-20
1.15786E-03 3.96985E-20
1.21797E-03 3.59168E-20
1.27961E-03 3.25761E-20
1.34276E-03 2.96161E-20
1.40743E-03 2.69857E-20
1.47362E-03 2.46420E-20
1.54133E-03 2.25480E-20
1.61056E-03 2.06726E-20
1.68131E-03 1.89889E-20
1.75357E-03 1.74738E-20
1.82735E-03 1.61074E-20
1.90265E-03 1.48725E-20
1.97947E-03 1.37542E-20
2.05780E-03 1.27395E-20
2.13765E-03 1.18171E-20
2.21902E-03 1.09770E-20
2.30190E-03 1.02106E-20
2.38630E-03 9.51025E-21
2.47222E-03 8.86922E-21
2.55965E-03 8.28156E-21
2.64859E-03 7.74203E-21
2.73905E-03 7.24594E-21
2.83103E-03 6.78918E-21
2.92452E-03 6.36804E-21
3.01952E-03 5.97924E-21
3.11604E-03 5.61982E-21
3.21407E-03 5.28717E-21
3.31362E-03 4.97891E-21
3.41468E-03 4.69293E-21
3.51725E-03 4.42732E-21
3.62133E-03 4.18035E-21
3.72692E-03 3.95047E-21
3.83403E-03 3.73628E-21
3.94265E-03 3.53651E-21
4.05278E-03 3.35001E-21
4.16442E-03 3.17572E-21
4.27757E-03 3.01270E-21
4.39223E-03 2.86008E-21
4.50840E-03 2.71707E-21
4.62608E-03 2.58295E-21
4.74527E-03 2.45707E-21
4.86597E-03 2.33883E-21
4.98817E-03 2.22766E-21
5.11188E-03 2.12308E-21
5.23711E-03 2.02461E-21
5.36383E-03 1.93182E-21
5.49207E-03 1.84434E-21
5.62181E-03 1.76179E-21
5.75306E-03 1.68385E-21
5.88581E-03 1.61020E-21
6.02007E-03 1.54057E-21
6.15583E-03 1.47470E-21
6.29310E-03 1.41234E-21
6.43187E-03 1.35328E-21
6.57214E-03 1.29729E-21
6.71392E-03 1.24420E-21
6.85720E-03 1.19382E-21
7.00198E-03 1.14599E-21
7.14827E-03 1.10056E-21
7.29605E-03 1.05737E-21
7.44534E-03 1.01630E-21
7.59612E-03 9.77224E-22
7.97965E-03 8.87521E-22
8.37255E-03 8.07974E-22
8.77480E-03 7.37226E-22
9.18641E-03 6.74128E-22
9.60736E-03 6.17706E-22
1.00376E-02 5.67125E-22
1.04773E-02 5.21670E-22
1.09262E-02 4.80726E-22
1.13844E-02 4.43765E-22
1.18520E-02 4.10329E-22
1.23288E-02 3.80018E-22
1.28150E-02 3.52485E-22
1.33104E-02 3.27431E-22
1.38150E-02 3.04590E-22
1.43290E-02 2.83730E-22
1.48521E-02 2.64647E-22
1.53845E-02 2.47161E-22
1.59262E-02 2.31114E-22
1.64770E-02 2.16364E-22
1.70371E-02 2.02788E-22
1.76063E-02 1.90273E-22
1.81848E-02 1.78722E-22
1.87724E-02 1.68045E-22
1.93692E-02 1.58165E-22
1.99751E-02 1.49009E-22
2.05901E-02 1.40516E-22
2.12143E-02 1.32627E-22
2.18476E-02 1.25292E-22
2.24900E-02 1.18464E-22
2.31415E-02 1.12101E-22
2.38021E-02 1.06166E-22
2.44717E-02 1.00624E-22
2.51504E-02 9.54435E-23
2.58382E-02 9.05973E-23
2.65349E-02 8.60588E-23
2.72407E-02 8.18051E-23
2.79555E-02 7.78149E-23
2.86793E-02 7.40685E-23
2.94120E-02 7.05478E-23
3.01537E-02 6.72370E-23
3.09043E-02 6.41212E-23
3.16639E-02 6.11860E-23
3.24324E-02 5.84193E-23
3.32098E-02 5.58098E-23
3.39961E-02 5.33461E-23
3.47912E-02 5.10189E-23
3.55952E-02 4.88191E-23
3.64081E-02 4.67383E-23
3.72297E-02 4.47687E-23
3.80602E-02 4.29032E-23
3.88995E-02 4.11354E-23
3.97476E-02 3.94588E-23
4.06044E-02 3.78681E-23
4.14700E-02 3.63578E-23
4.23443E-02 3.49231E-23
4.32273E-02 3.35595E-23
4.41190E-02 3.22627E-23
4.50194E-02 3.10288E-23
4.59284E-02 2.98541E-23
4.68461E-02 2.87352E-23
4.87074E-02 2.66523E-23
5.06030E-02 2.47572E-23
5.25328E-02 2.30296E-23
5.44967E-02 2.14519E-23
5.64946E-02 2.00086E-23
5.85262E-02 1.86860E-23
6.05914E-02 1.74721E-23
6.26901E-02 1.63564E-23
6.48222E-02 1.53292E-23
6.69873E-02 1.43822E-23
6.91854E-02 1.35079E-23
7.14163E-02 1.26996E-23
7.36799E-02 1.19513E-23
7.59760E-02 1.12579E-23
7.83043E-02 1.06144E-23
8.06647E-02 1.00166E-23
8.30571E-02 9.46055E-24
8.54812E-02 8.94282E-24
8.79369E-02 8.46023E-24
9.04240E-02 8.00994E-24
9.29422E-02 7.58935E-24
9.54915E-02 7.19612E-24
9.80716E-02 6.82812E-24
1.00682E-01 6.48342E-24
1.03323E-01 6.16025E-24
1.05995E-01 5.85699E-24
1.08696E-01 5.57219E-24
1.11427E-01 5.30450E-24
1.14188E-01 5.05269E-24
1.16978E-01 4.81563E-24
1.19797E-01 4.59228E-24
1.22645E-01 4.38170E-24
1.25522E-01 4.18302E-24
1.28428E-01 3.99542E-24
1.31361E-01 3.81818E-24
1.34323E-01 3.65060E-24
1.37313E-01 3.49205E-24
1.40330E-01 3.34196E-24
1.43375E-01 3.19979E-24
1.46447E-01 3.06502E-24
1.49545E-01 2.93722E-24
1.52671E-01 2.81593E-24
1.55823E-01 2.70077E-24
1.59001E-01 2.59136E-24
1.62205E-01 2.48737E-24
1.65435E-01 2.38847E-24
1.68690E-01 2.29436E-24
1.71970E-01 2.20477E-24
1.75276E-01 2.11944E-24
1.78606E-01 2.03812E-24
1.81961E-01 1.96060E-24
1.85340E-01 1.88665E-24
1.88743E-01 1.81609E-24
1.92169E-01 1.74872E-24
1.95619E-01 1.68438E-24
1.99092E-01 1.62290E-24
2.02589E-01 1.56414E-24
2.06107E-01 1.50794E-24
2.09649E-01 1.45418E-24
2.13212E-01 1.40272E-24
2.16797E-01 1.35346E-24
2.20404E-01 1.30628E-24
2.24032E-01 1.26107E-24
2.27680E-01 1.21774E-24
2.31350E-01 1.17620E-24
2.35040E-01 1.13635E-24
2.38751E-01 1.09812E-24
2.42481E-01 1.06142E-24
2.46231E-01 1.02619E-24
2.50000E-01 9.92353E-25
2.53788E-01 9.59845E-25
2.57595E-01 9.28603E-25
2.61421E-01 8.98569E-25
2.65264E-01 8.69689E-25
2.69126E-01 8.41909E-25
2.73005E-01 8.15179E-25
2.76901E-01 7.89454E-25
2.80814E-01 7.64688E-25
2.84744E-01 7.40839E-25
2.88691E-01 7.17866E-25
2.92653E-01 6.95732E-25
2.96632E-01 6.74401E-25
3.00625E-01 6.53837E-25
3.04634E-01 6.34009E-25
3.08658E-01 6.14886E-25
3.12697E-01 5.96437E-25
3.16749E-01 5.78635E-25
3.20816E-01 5.61453E-25
3.24896E-01 5.44866E-25
3.28990E-01 5.28849E-25
3.33097E-01 5.13379E-25
3.37216E-01 4.98435E-25
3.41348E-01 4.83995E-25
3.45492E-01 4.70039E-25
3.49647E-01 4.56549E-25
3.53814E-01 4.43505E-25
3.57992E-01 4.30892E-25
3.62181E-01 4.18691E-25
3.66381E-01 4.06887E-25
3.70590E-01 3.95466E-25
3.74810E-01 3.84412E-25
3.79039E-01 3.73711E-25
3.83277E-01 3.63352E-25
3.87524E-01 3.53319E-25
3.91780E-01 3.43603E-25
3.96044E-01 3.34191E-25
4.00316E-01 3.25071E-25
4.04596E-01 3.16234E-25
4.08882E-01 3.07669E-25
4.13176E-01 2.99366E-25
4.17476E-01 2.91316E-25
4.21783E-01 2.83511E-25
4.26095E-01 2.75940E-25
4.30413E-01 2.68597E-25
4.34737E-01 2.61473E-25
4.39065E-01 2.54560E-25
4.43398E-01 2.47852E-25
4.47736E-01 2.41341E-25
4.52077E-01 2.35021E-25
4.56422E-01 2.28884E-25
4.60770E-01 2.22926E-25
4.65122E-01 2.17139E-25
4.69476E-01 2.11519E-25
4.73832E-01 2.06059E-25
4.78190E-01 2.00755E-25
4.82550E-01 1.95601E-25
4.86912E-01 1.90592E-25
4.91274E-01 1.85723E-25
4.95637E-01 1.80991E-25
5.00000E-01 1.76390E-25
5.04363E-01 1.71917E-25
5.08726E-01 1.67567E-25
5.13088E-01 1.63337E-25
5.17450E-01 1.59222E-25
5.21810E-01 1.55219E-25
5.26168E-01 1.51325E-25
5.30524E-01 1.47536E-25
5.34878E-01 1.43849E-25
5.39230E-01 1.40261E-25
5.43578E-01 1.36768E-25
5.47923E-01 1.33368E-25
5.52264E-01 1.30058E-25
5.56602E-01 1.26836E-25
5.60935E-01 1.23698E-25
5.65263E-01 1.20642E-25
5.69587E-01 1.17666E-25
5.73905E-01 1.14767E-25
5.78217E-01 1.11943E-25
5.82524E-01 1.09191E-25
5.86824E-01 1.06511E-25
5.91118E-01 1.03899E-25
5.95404E-01 1.01354E-25
5.99684E-01 9.88729E-26
6.03956E-01 9.64550E-26
6.08220E-01 9.40981E-26
6.12476E-01 9.18005E-26
6.16723E-01 8.95604E-26
6.20961E-01 8.73763E-26
6.25190E-01 8.52466E-26
6.29410E-01 8.31697E-26
6.33619E-01 8.11442E-26
6.37819E-01 7.91686E-26
6.42008E-01 7.72415E-26
6.46186E-01 7.53616E-26
6.50353E-01 7.35277E-26
6.54508E-01 7.17384E-26
6.58652E-01 6.99925E-26
6.62784E-01 6.82889E-26
6.66903E-01 6.66264E-26
6.71010E-01 6.50039E-26
6.75104E-01 6.34203E-26
6.79184E-01 6.18746E-26
6.83251E-01 6.03657E-26
6.87303E-01 5.88928E-26
6.91342E-01 5.74548E-26
6.95366E-01 5.60508E-26
6.99375E-01 5.46800E-26
7.03368E-01 5.33414E-26
7.07347E-01 5.20342E-26
7.11309E-01 5.07577E-26
7.15256E-01 4.95110E-26
7.19186E-01 4.82934E-26
7.23099E-01 4.71040E-26
7.26995E-01 4.59423E-26
7.30874E-01 4.48074E-26
7.34736E-01 4.36987E-26
7.38579E-01 4.26156E-26
7.42405E-01 4.15574E-26
7.46212E-01 4.05235E-26
7.50000E-01 3.95132E-26
7.53769E-01 3.85260E-26
7.57519E-01 3.75614E-26
7.61249E-01 3.66187E-26
7.64960E-01 3.56974E-26
7.68650E-01 3.47970E-26
7.72320E-01 3.39170E-26
7.75968E-01 3.30569E-26
7.79596E-01 3.22162E-26
7.83203E-01 3.13945E-26
7.86788E-01 3.05912E-26
7.90351E-01 2.98060E-26
7.93893E-01 2.90384E-26
7.97411E-01 2.82881E-26
8.00908E-01 2.75545E-26
8.04381E-01 2.68373E-26
8.07831E-01 2.61361E-26
8.11257E-01 2.54506E-26
8.14660E-01 2.47803E-26
8.18039E-01 2.41250E-26
8.21394E-01 2.34842E-26
8.24724E-01 2.28577E-26
8.28030E-01 2.22452E-26
8.31310E-01 2.16462E-26
8.34565E-01 2.10605E-26
8.37795E-01 2.04879E-26
8.40999E-01 1.99279E-26
8.44177E-01 1.93804E-26
8.47329E-01 1.88450E-26
8.50455E-01 1.83215E-26
8.53553E-01 1.78096E-26
8.56625E-01 1.73090E-26
8.59670E-01 1.68196E-26
8.62687E-01 1.63410E-26
8.65677E-01 1.58731E-26
8.68639E-01 1.54156E-26
8.71572E-01 1.49683E-26
8.74478E-01 1.45310E-26
8.77355E-01 1.41034E-26
8.80203E-01 1.36854E-26
8.83022E-01 1.32767E-26
8.85812E-01 1.28772E-26
8.88573E-01 1.24866E-26
8.91304E-01 1.21049E-26
8.94005E-01 1.17317E-26
8.96677E-01 1.13670E-26
8.99318E-01 1.10105E-26
9.01928E-01 1.06622E-26
9.04508E-01 1.03217E-26
9.07058E-01 9.98906E-27
9.09576E-01 9.66403E-27
9.12063E-01 9.34647E-27
9.14519E-01 9.03624E-27
9.16943E-01 8.73320E-27
9.19335E-01 8.43721E-27
9.21696E-01 8.14813E-27
9.24024E-01 7.86585E-27
9.26320E-01 7.59023E-27
9.28584E-01 7.32114E-27
9.30815E-01 7.05847E-27
9.33013E-01 6.80211E-27
9.35178E-01 6.55193E-27
9.37310E-01 6.30783E-27
9.39409E-01 6.06970E-27
9.41474E-01 5.83744E-27
9.43505E-01 5.61094E-27
9.45503E-01 5.39010E-27
9.47467E-01 5.17484E-27
9.49397E-01 4.96505E-27
9.51293E-01 4.76065E-27
9.53154E-01 4.56155E-27
9.54981E-01 4.36765E-27
9.56773E-01 4.17889E-27
9.58530E-01 3.99518E-27
9.60252E-01 3.81643E-27
9.61940E-01 3.64258E-27
9.63592E-01 3.47356E-27
9.65209E-01 3.30928E-27
9.66790E-01 3.14968E-27
9.68336E-01 2.99469E-27
9.69846E-01 2.84425E-27
9.71321E-01 2.69829E-27
9.72759E-01 2.55676E-27
9.74162E-01 2.41959E-27
9.75528E-01 2.28673E-27
9.76858E-01 2.15812E-27
9.78152E-01 2.03371E-27
9.79410E-01 1.91345E-27
9.80631E-01 1.79728E-27
9.81815E-01 1.68517E-27
9.82963E-01 1.57705E-27
9.84074E-01 1.47290E-27
9.85148E-01 1.37266E-27
9.86185E-01 1.27630E-27
9.87185E-01 1.18377E-27
9.88148E-01 1.09504E-27
9.89074E-01 1.01008E-27
9.89962E-01 9.28837E-28
9.90814E-01 8.51292E-28
9.91627E-01 7.77409E-28
9.92404E-01 7.07159E-28
9.93143E-01 6.40513E-28
9.93844E-01 5.77445E-28
9.94508E-01 5.17928E-28
9.95134E-01 4.61939E-28
9.95722E-01 4.09455E-28
9.96273E-01 3.60456E-28
9.96786E-01 3.14920E-28
9.97261E-01 2.72831E-28
9.97698E-01 2.34170E-28
9.98097E-01 1.98923E-28
9.98459E-01 1.67075E-28
9.98782E-01 1.38614E-28
9.99067E-01 1.13528E-28
9.99315E-01 9.18075E-29
9.99524E-01 7.34430E-29
9.99695E-01 5.84276E-29
9.99829E-01 4.67551E-29
9.99924E-01 3.84209E-29
9.99981E-01 3.34218E-29
1.00000E+00 3.17556E-29
