 #
 # Subroutine ELSEPA. Elastic scattering of electrons and positrons
 #                    by neutral atoms and positive ions
 #
 # Projectile: electron
 # Kinetic energy = 8.00000E+08 eV = 2.93995E+07 a.u.
 #
 # WARNING: High-energy factorization with free-atom DF screening.
 #          Absorption, polarization and exchange corrections are
 #          switched off.
 #          Phase shifts are calculated for the bare nucleus.
 #          Scattering amplitudes are not evaluated.
 #
 # Element: La,  Z =  57,  atomic weight = 1.38905E+02 g/mol
 #
 # Nuclear model: Fermi distribution
 #                Average radius = 5.54145E-13 cm
 #                Skin thickness = 5.46000E-14 cm
 #
 # Number of electrons = 57
 #
 # Total elastic cross section = 7.44736E-18 cm**2 = 2.65950E-01 a0**2
 # 1st transport cross section = 9.86528E-27 cm**2 = 3.52296E-10 a0**2
 # 2nd transport cross section = 2.95914E-26 cm**2 = 1.05673E-09 a0**2
 #
 #
 # Differential cross section:                       MU=(1-COS(THETA))/2
 #
 #  THETA        MU          DCS          DCS        Sherman      error
 #  (deg)                 (cm**2/sr)   (a0**2/sr)    function
 #----------------------------------------------------------------------
0.00000E+00 7.54219E-08
7.61557E-13 5.57010E-08
1.18994E-12 4.80777E-08
1.71346E-12 4.09116E-08
2.33225E-12 3.45663E-08
3.04617E-12 2.91695E-08
3.85530E-12 2.46768E-08
4.75964E-12 2.09998E-08
5.75917E-12 1.79868E-08
6.85391E-12 1.55260E-08
8.04379E-12 1.34945E-08
9.32893E-12 1.18076E-08
1.07092E-11 1.03920E-08
1.21847E-11 9.19213E-09
1.37554E-11 8.16717E-09
1.54213E-11 7.28362E-09
1.71823E-11 6.51722E-09
1.90386E-11 5.84870E-09
2.09900E-11 5.26202E-09
2.30367E-11 4.74636E-09
2.51785E-11 4.29001E-09
2.74156E-11 3.88690E-09
2.97478E-11 3.52798E-09
3.21752E-11 3.20954E-09
3.46979E-11 2.92513E-09
3.73157E-11 2.66337E-09
4.00286E-11 2.42775E-09
4.28368E-11 2.22135E-09
4.57402E-11 2.03986E-09
4.87388E-11 1.87967E-09
5.18325E-11 1.73778E-09
5.50215E-11 1.61168E-09
5.83057E-11 1.48962E-09
6.16850E-11 1.37743E-09
6.51595E-11 1.27722E-09
6.87293E-11 1.18743E-09
7.23943E-11 1.10677E-09
7.61544E-11 1.03409E-09
1.18991E-10 5.48904E-10
1.71347E-10 3.17401E-10
2.33223E-10 1.94369E-10
3.04617E-10 1.24778E-10
3.85531E-10 8.38227E-11
4.75965E-10 5.85808E-11
5.75917E-10 4.24161E-11
6.85389E-10 3.15848E-11
8.04380E-10 2.40866E-11
9.32891E-10 1.87038E-11
1.07092E-09 1.47441E-11
1.21847E-09 1.17716E-11
1.37554E-09 9.50725E-12
1.54213E-09 7.75299E-12
1.71823E-09 6.37762E-12
1.90386E-09 5.28874E-12
2.09900E-09 4.41875E-12
2.30367E-09 3.71935E-12
2.51785E-09 3.15198E-12
2.74156E-09 2.68890E-12
2.97478E-09 2.30736E-12
3.21752E-09 1.99130E-12
3.46978E-09 1.72747E-12
3.73156E-09 1.50565E-12
4.00286E-09 1.31874E-12
4.28368E-09 1.16080E-12
4.57402E-09 1.02528E-12
4.87388E-09 9.09305E-13
5.18326E-09 8.09653E-13
5.50215E-09 7.22865E-13
5.83057E-09 6.47714E-13
6.16850E-09 5.82143E-13
6.51596E-09 5.24544E-13
6.87293E-09 4.74086E-13
7.23942E-09 4.29464E-13
7.61544E-09 3.89961E-13
1.18991E-08 1.65927E-13
1.71347E-08 8.19402E-14
2.33223E-08 4.49123E-14
3.04617E-08 2.66101E-14
3.85531E-08 1.67458E-14
4.75965E-08 1.10569E-14
5.75917E-08 7.59200E-15
6.85389E-08 5.38461E-15
8.04380E-08 3.92463E-15
9.32891E-08 2.92783E-15
1.07092E-07 2.22842E-15
1.21847E-07 1.72599E-15
1.37554E-07 1.35752E-15
1.54213E-07 1.08233E-15
1.71823E-07 8.73460E-16
1.90386E-07 7.12623E-16
2.09900E-07 5.87146E-16
2.30367E-07 4.88100E-16
2.51785E-07 4.09078E-16
2.74156E-07 3.45412E-16
2.97478E-07 2.93659E-16
3.21752E-07 2.51240E-16
3.46978E-07 2.16207E-16
3.73156E-07 1.87070E-16
4.00286E-07 1.62677E-16
4.28368E-07 1.42133E-16
4.57402E-07 1.24729E-16
4.87388E-07 1.09909E-16
5.18325E-07 9.72242E-17
5.50215E-07 8.63172E-17
5.83057E-07 7.68970E-17
6.16850E-07 6.87270E-17
6.51596E-07 6.16134E-17
6.87293E-07 5.53963E-17
7.23942E-07 4.99438E-17
7.61543E-07 4.51456E-17
1.18991E-06 1.85267E-17
1.71347E-06 8.94433E-18
2.33223E-06 4.83138E-18
3.04617E-06 2.83354E-18
3.85531E-06 1.76968E-18
4.75964E-06 1.16148E-18
5.75916E-06 7.93538E-19
6.85388E-06 5.60439E-19
8.04378E-06 4.06992E-19
9.32888E-06 3.02654E-19
1.07092E-05 2.29714E-19
1.21846E-05 1.77486E-19
1.37553E-05 1.39295E-19
1.54212E-05 1.10848E-19
1.71822E-05 8.93077E-20
1.90385E-05 7.27289E-20
2.09899E-05 5.98712E-20
2.30365E-05 4.97289E-20
2.51783E-05 4.16390E-20
2.74153E-05 3.51236E-20
2.97475E-05 2.98314E-20
3.21749E-05 2.54996E-20
3.46974E-05 2.19280E-20
3.73152E-05 1.89623E-20
4.00281E-05 1.64831E-20
4.28362E-05 1.43971E-20
4.57395E-05 1.26309E-20
4.87380E-05 1.11271E-20
5.18317E-05 9.84018E-21
5.50205E-05 8.73368E-21
5.83045E-05 7.77832E-21
6.16838E-05 6.95021E-21
6.51582E-05 6.22967E-21
6.87277E-05 5.60038E-21
7.23925E-05 5.04877E-21
7.61524E-05 4.57198E-21
9.21439E-05 3.11554E-21
1.09658E-04 2.19269E-21
1.28695E-04 1.58555E-21
1.49255E-04 1.17289E-21
1.71338E-04 8.84813E-22
1.94942E-04 6.78836E-22
2.20070E-04 5.28536E-22
2.46720E-04 4.16872E-22
2.74892E-04 3.32571E-22
3.04586E-04 2.68031E-22
3.35803E-04 2.17982E-22
3.68542E-04 1.78728E-22
4.02802E-04 1.47622E-22
4.38585E-04 1.22740E-22
4.75889E-04 1.02669E-22
5.14715E-04 8.63501E-23
5.55063E-04 7.29888E-23
5.96931E-04 6.19767E-23
6.40321E-04 5.28462E-23
6.85233E-04 4.52339E-23
7.31665E-04 3.88545E-23
7.79618E-04 3.34831E-23
8.29092E-04 2.89403E-23
8.80086E-04 2.50827E-23
9.32601E-04 2.17945E-23
9.86636E-04 1.89817E-23
1.04219E-03 1.65676E-23
1.09927E-03 1.44894E-23
1.15786E-03 1.26952E-23
1.21797E-03 1.11420E-23
1.27961E-03 9.79423E-24
1.34276E-03 8.62187E-24
1.40743E-03 7.59991E-24
1.47362E-03 6.70726E-24
1.54133E-03 5.92607E-24
1.61056E-03 5.24122E-24
1.68131E-03 4.63985E-24
1.75357E-03 4.11096E-24
1.82735E-03 3.64517E-24
1.90265E-03 3.23440E-24
1.97947E-03 2.87170E-24
2.05780E-03 2.55109E-24
2.13765E-03 2.26739E-24
2.21902E-03 2.01610E-24
2.30190E-03 1.79332E-24
2.38630E-03 1.59566E-24
2.47222E-03 1.42016E-24
2.55965E-03 1.26422E-24
2.64859E-03 1.12559E-24
2.73905E-03 1.00227E-24
2.83103E-03 8.92520E-25
2.92452E-03 7.94809E-25
3.01952E-03 7.07784E-25
3.11604E-03 6.30252E-25
3.21407E-03 5.61161E-25
3.31362E-03 4.99579E-25
3.41468E-03 4.44683E-25
3.51725E-03 3.95741E-25
3.62133E-03 3.52107E-25
3.72692E-03 3.13205E-25
3.83403E-03 2.78523E-25
3.94265E-03 2.47606E-25
4.05278E-03 2.20050E-25
4.16442E-03 1.95494E-25
4.27757E-03 1.73617E-25
4.39223E-03 1.54131E-25
4.50840E-03 1.36781E-25
4.62608E-03 1.21338E-25
4.74527E-03 1.07598E-25
4.86597E-03 9.53781E-26
4.98817E-03 8.45160E-26
5.11188E-03 7.48655E-26
5.23711E-03 6.62963E-26
5.36383E-03 5.86916E-26
5.49207E-03 5.19471E-26
5.62181E-03 4.59694E-26
5.75306E-03 4.06749E-26
5.88581E-03 3.59890E-26
6.02007E-03 3.18448E-26
6.15583E-03 2.81823E-26
6.29310E-03 2.49483E-26
6.43187E-03 2.20947E-26
6.57214E-03 1.95789E-26
6.71392E-03 1.73627E-26
6.85720E-03 1.54120E-26
7.00198E-03 1.36962E-26
7.14827E-03 1.21884E-26
7.29605E-03 1.08641E-26
7.44534E-03 9.70193E-27
7.59612E-03 8.68256E-27
7.97965E-03 6.65141E-27
8.37255E-03 5.19211E-27
8.77480E-03 4.14242E-27
9.18641E-03 3.38311E-27
9.60736E-03 2.82738E-27
1.00376E-02 2.41274E-27
1.04773E-02 2.09478E-27
1.09262E-02 1.84244E-27
1.13844E-02 1.63443E-27
1.18520E-02 1.45649E-27
1.23288E-02 1.29938E-27
1.28150E-02 1.15733E-27
1.33104E-02 1.02691E-27
1.38150E-02 9.06273E-28
1.43290E-02 7.94502E-28
1.48521E-02 6.91242E-28
1.53845E-02 5.96411E-28
1.59262E-02 5.10014E-28
1.64770E-02 4.32038E-28
1.70371E-02 3.62383E-28
1.76063E-02 3.00842E-28
1.81848E-02 2.47090E-28
1.87724E-02 2.00699E-28
1.93692E-02 1.61156E-28
1.99751E-02 1.27885E-28
2.05901E-02 1.00272E-28
2.12143E-02 7.76829E-29
2.18476E-02 5.94901E-29
2.24900E-02 4.50839E-29
2.31415E-02 3.38878E-29
2.38021E-02 2.53678E-29
2.44717E-02 1.90389E-29
2.51504E-02 1.44692E-29
2.58382E-02 1.12809E-29
2.65349E-02 9.14980E-30
2.72407E-02 7.80279E-30
2.79555E-02 7.01476E-30
2.86793E-02 6.60420E-30
2.94120E-02 6.42849E-30
3.01537E-02 6.37902E-30
3.09043E-02 6.37622E-30
3.16639E-02 6.36481E-30
3.24324E-02 6.30930E-30
3.32098E-02 6.18995E-30
3.39961E-02 5.99907E-30
3.47912E-02 5.73786E-30
3.55952E-02 5.41370E-30
3.64081E-02 5.03789E-30
3.72297E-02 4.62386E-30
3.80602E-02 4.18569E-30
3.88995E-02 3.73709E-30
3.97476E-02 3.29064E-30
4.06044E-02 2.85726E-30
4.14700E-02 2.44592E-30
4.23443E-02 2.06359E-30
4.32273E-02 1.71521E-30
4.41190E-02 1.40384E-30
4.50194E-02 1.13083E-30
4.59284E-02 8.96111E-31
4.68461E-02 6.98379E-31
4.87074E-02 4.04284E-31
5.06030E-02 2.23848E-31
5.25328E-02 1.28163E-31
5.44967E-02 8.92673E-32
5.64946E-02 8.33743E-32
5.85262E-02 9.23869E-32
6.05914E-02 1.04103E-31
6.26901E-02 1.11547E-31
6.48222E-02 1.11841E-31
6.69873E-02 1.04936E-31
6.91854E-02 9.24367E-32
7.14163E-02 7.66378E-32
7.36799E-02 5.98432E-32
7.59760E-02 4.39455E-32
7.83043E-02 3.02364E-32
8.06647E-02 1.93844E-32
8.30571E-02 1.15226E-32
8.54812E-02 6.39121E-33
8.79369E-02 3.49264E-33
9.04240E-02 2.23198E-33
9.29422E-02 2.02561E-33
9.54915E-02 2.37327E-33
9.80716E-02 2.89508E-33
1.00682E-01 3.33985E-33
1.03323E-01 3.57323E-33
1.05995E-01 3.55388E-33
1.08696E-01 3.30508E-33
1.11427E-01 2.88717E-33
1.14188E-01 2.37447E-33
1.16978E-01 1.83821E-33
1.19797E-01 1.33595E-33
1.22645E-01 9.06694E-34
1.25522E-01 5.70430E-34
1.28428E-01 3.30726E-34
1.31361E-01 1.78926E-34
1.34323E-01 9.88121E-35
1.37313E-01 7.09269E-35
1.40330E-01 7.60225E-35
1.43375E-01 9.74374E-35
1.46447E-01 1.22400E-34
1.49545E-01 1.42416E-34
1.52671E-01 1.52968E-34
1.55823E-01 1.52788E-34
1.59001E-01 1.42929E-34
1.62205E-01 1.25825E-34
1.65435E-01 1.04467E-34
1.68690E-01 8.17757E-35
1.71970E-01 6.01779E-35
1.75276E-01 4.13956E-35
1.78606E-01 2.63978E-35
1.81961E-01 1.54737E-35
1.85340E-01 8.37873E-36
1.88743E-01 4.51185E-36
1.92169E-01 3.08816E-36
1.95619E-01 3.28688E-36
1.99092E-01 4.36121E-36
2.02589E-01 5.70709E-36
2.06107E-01 6.89404E-36
2.09649E-01 7.66497E-36
2.13212E-01 7.91447E-36
2.16797E-01 7.65438E-36
2.20404E-01 6.97505E-36
2.24032E-01 6.00825E-36
2.27680E-01 4.89618E-36
2.31350E-01 3.76854E-36
2.35040E-01 2.72812E-36
2.38751E-01 1.84435E-36
2.42481E-01 1.15299E-36
2.46231E-01 6.60468E-37
2.50000E-01 3.50607E-37
2.53788E-01 1.92469E-37
2.57595E-01 1.47814E-37
2.61421E-01 1.77441E-37
2.65264E-01 2.45912E-37
2.69126E-01 3.24535E-37
2.73005E-01 3.92720E-37
2.76901E-01 4.38008E-37
2.80814E-01 4.55142E-37
2.84744E-01 4.44543E-37
2.88691E-01 4.10557E-37
2.92653E-01 3.59748E-37
2.96632E-01 2.99406E-37
3.00625E-01 2.36420E-37
3.04634E-01 1.76513E-37
3.08658E-01 1.23841E-37
3.12697E-01 8.08941E-38
3.16749E-01 1.00000E-45
3.20816E-01 1.00000E-45
3.24896E-01 1.00000E-45
3.28990E-01 1.00000E-45
3.33097E-01 1.00000E-45
3.37216E-01 1.00000E-45
3.41348E-01 1.00000E-45
3.45492E-01 1.00000E-45
3.49647E-01 1.00000E-45
3.53814E-01 1.00000E-45
3.57992E-01 1.00000E-45
3.62181E-01 1.00000E-45
3.66381E-01 1.00000E-45
3.70590E-01 1.00000E-45
3.74810E-01 1.00000E-45
3.79039E-01 1.00000E-45
3.83277E-01 1.00000E-45
3.87524E-01 1.00000E-45
3.91780E-01 1.00000E-45
3.96044E-01 1.00000E-45
4.00316E-01 1.00000E-45
4.04596E-01 1.00000E-45
4.08882E-01 1.00000E-45
4.13176E-01 1.00000E-45
4.17476E-01 1.00000E-45
4.21783E-01 1.00000E-45
4.26095E-01 1.00000E-45
4.30413E-01 1.00000E-45
4.34737E-01 1.00000E-45
4.39065E-01 1.00000E-45
4.43398E-01 1.00000E-45
4.47736E-01 1.00000E-45
4.52077E-01 1.00000E-45
4.56422E-01 1.00000E-45
4.60770E-01 1.00000E-45
4.65122E-01 1.00000E-45
4.69476E-01 1.00000E-45
4.73832E-01 1.00000E-45
4.78190E-01 1.00000E-45
4.82550E-01 1.00000E-45
4.86912E-01 1.00000E-45
4.91274E-01 1.00000E-45
4.95637E-01 1.00000E-45
5.00000E-01 1.00000E-45
5.04363E-01 1.00000E-45
5.08726E-01 1.00000E-45
5.13088E-01 1.00000E-45
5.17450E-01 1.00000E-45
5.21810E-01 1.00000E-45
5.26168E-01 1.00000E-45
5.30524E-01 1.00000E-45
5.34878E-01 1.00000E-45
5.39230E-01 1.00000E-45
5.43578E-01 1.00000E-45
5.47923E-01 1.00000E-45
5.52264E-01 1.00000E-45
5.56602E-01 1.00000E-45
5.60935E-01 1.00000E-45
5.65263E-01 1.00000E-45
5.69587E-01 1.00000E-45
5.73905E-01 1.00000E-45
5.78217E-01 1.00000E-45
5.82524E-01 1.00000E-45
5.86824E-01 1.00000E-45
5.91118E-01 1.00000E-45
5.95404E-01 1.00000E-45
5.99684E-01 1.00000E-45
6.03956E-01 1.00000E-45
6.08220E-01 1.00000E-45
6.12476E-01 1.00000E-45
6.16723E-01 1.00000E-45
6.20961E-01 1.00000E-45
6.25190E-01 1.00000E-45
6.29410E-01 1.00000E-45
6.33619E-01 1.00000E-45
6.37819E-01 1.00000E-45
6.42008E-01 1.00000E-45
6.46186E-01 1.00000E-45
6.50353E-01 1.00000E-45
6.54508E-01 1.00000E-45
6.58652E-01 1.00000E-45
6.62784E-01 1.00000E-45
6.66903E-01 1.00000E-45
6.71010E-01 1.00000E-45
6.75104E-01 1.00000E-45
6.79184E-01 1.00000E-45
6.83251E-01 1.00000E-45
6.87303E-01 1.00000E-45
6.91342E-01 1.00000E-45
6.95366E-01 1.00000E-45
6.99375E-01 1.00000E-45
7.03368E-01 1.00000E-45
7.07347E-01 1.00000E-45
7.11309E-01 1.00000E-45
7.15256E-01 1.00000E-45
7.19186E-01 1.00000E-45
7.23099E-01 1.00000E-45
7.26995E-01 1.00000E-45
7.30874E-01 1.00000E-45
7.34736E-01 1.00000E-45
7.38579E-01 1.00000E-45
7.42405E-01 1.00000E-45
7.46212E-01 1.00000E-45
7.50000E-01 1.00000E-45
7.53769E-01 1.00000E-45
7.57519E-01 1.00000E-45
7.61249E-01 1.00000E-45
7.64960E-01 1.00000E-45
7.68650E-01 1.00000E-45
7.72320E-01 1.00000E-45
7.75968E-01 1.00000E-45
7.79596E-01 1.00000E-45
7.83203E-01 1.00000E-45
7.86788E-01 1.00000E-45
7.90351E-01 1.00000E-45
7.93893E-01 1.00000E-45
7.97411E-01 1.00000E-45
8.00908E-01 1.00000E-45
8.04381E-01 1.00000E-45
8.07831E-01 1.00000E-45
8.11257E-01 1.00000E-45
8.14660E-01 1.00000E-45
8.18039E-01 1.00000E-45
8.21394E-01 1.00000E-45
8.24724E-01 1.00000E-45
8.28030E-01 1.00000E-45
8.31310E-01 1.00000E-45
8.34565E-01 1.00000E-45
8.37795E-01 1.00000E-45
8.40999E-01 1.00000E-45
8.44177E-01 1.00000E-45
8.47329E-01 1.00000E-45
8.50455E-01 1.00000E-45
8.53553E-01 1.00000E-45
8.56625E-01 1.00000E-45
8.59670E-01 1.00000E-45
8.62687E-01 1.00000E-45
8.65677E-01 1.00000E-45
8.68639E-01 1.00000E-45
8.71572E-01 1.00000E-45
8.74478E-01 1.00000E-45
8.77355E-01 1.00000E-45
8.80203E-01 1.00000E-45
8.83022E-01 1.00000E-45
8.85812E-01 1.00000E-45
8.88573E-01 1.00000E-45
8.91304E-01 1.00000E-45
8.94005E-01 1.00000E-45
8.96677E-01 1.00000E-45
8.99318E-01 1.00000E-45
9.01928E-01 1.00000E-45
9.04508E-01 1.00000E-45
9.07058E-01 1.00000E-45
9.09576E-01 1.00000E-45
9.12063E-01 1.00000E-45
9.14519E-01 1.00000E-45
9.16943E-01 1.00000E-45
9.19335E-01 1.00000E-45
9.21696E-01 1.00000E-45
9.24024E-01 1.00000E-45
9.26320E-01 1.00000E-45
9.28584E-01 1.00000E-45
9.30815E-01 1.00000E-45
9.33013E-01 1.00000E-45
9.35178E-01 1.00000E-45
9.37310E-01 1.00000E-45
9.39409E-01 1.00000E-45
9.41474E-01 1.00000E-45
9.43505E-01 1.00000E-45
9.45503E-01 1.00000E-45
9.47467E-01 1.00000E-45
9.49397E-01 1.00000E-45
9.51293E-01 1.00000E-45
9.53154E-01 1.00000E-45
9.54981E-01 1.00000E-45
9.56773E-01 1.00000E-45
9.58530E-01 1.00000E-45
9.60252E-01 1.00000E-45
9.61940E-01 1.00000E-45
9.63592E-01 1.00000E-45
9.65209E-01 1.00000E-45
9.66790E-01 1.00000E-45
9.68336E-01 1.00000E-45
9.69846E-01 1.00000E-45
9.71321E-01 1.00000E-45
9.72759E-01 1.00000E-45
9.74162E-01 1.00000E-45
9.75528E-01 1.00000E-45
9.76858E-01 1.00000E-45
9.78152E-01 1.00000E-45
9.79410E-01 1.00000E-45
9.80631E-01 1.00000E-45
9.81815E-01 1.00000E-45
9.82963E-01 1.00000E-45
9.84074E-01 1.00000E-45
9.85148E-01 1.00000E-45
9.86185E-01 1.00000E-45
9.87185E-01 1.00000E-45
9.88148E-01 1.00000E-45
9.89074E-01 1.00000E-45
9.89962E-01 1.00000E-45
9.90814E-01 1.00000E-45
9.91627E-01 1.00000E-45
9.92404E-01 1.00000E-45
9.93143E-01 1.00000E-45
9.93844E-01 1.00000E-45
9.94508E-01 1.00000E-45
9.95134E-01 1.00000E-45
9.95722E-01 1.00000E-45
9.96273E-01 1.00000E-45
9.96786E-01 1.00000E-45
9.97261E-01 1.00000E-45
9.97698E-01 1.00000E-45
9.98097E-01 1.00000E-45
9.98459E-01 1.00000E-45
9.98782E-01 1.00000E-45
9.99067E-01 1.00000E-45
9.99315E-01 1.00000E-45
9.99524E-01 1.00000E-45
9.99695E-01 1.00000E-45
9.99829E-01 1.00000E-45
9.99924E-01 1.00000E-45
9.99981E-01 1.00000E-45
1.00000E+00 1.00000E-45
