 #
 # Subroutine ELSEPA. Elastic scattering of electrons and positrons
 #                    by neutral atoms and positive ions
 #
 # Projectile: electron
 # Kinetic energy = 1.25000E+07 eV = 4.59367E+05 a.u.
 #
 # WARNING: High-energy factorization with free-atom DF screening.
 #          Absorption, polarization and exchange corrections are
 #          switched off.
 #          Phase shifts are calculated for the bare nucleus.
 #          Scattering amplitudes are not evaluated.
 #
 # Element: La,  Z =  57,  atomic weight = 1.38905E+02 g/mol
 #
 # Nuclear model: Fermi distribution
 #                Average radius = 5.54145E-13 cm
 #                Skin thickness = 5.46000E-14 cm
 #
 # Number of electrons = 57
 #
 # Total elastic cross section = 7.54585E-18 cm**2 = 2.69467E-01 a0**2
 # 1st transport cross section = 3.47257E-23 cm**2 = 1.24008E-06 a0**2
 # 2nd transport cross section = 9.77455E-23 cm**2 = 3.49055E-06 a0**2
 #
 #
 # Differential cross section:                       MU=(1-COS(THETA))/2
 #
 #  THETA        MU          DCS          DCS        Sherman      error
 #  (deg)                 (cm**2/sr)   (a0**2/sr)    function
 #----------------------------------------------------------------------
0.00000E+00 1.99243E-11
7.61557E-13 1.99226E-11
1.18994E-12 1.99216E-11
1.71346E-12 1.99204E-11
2.33225E-12 1.99189E-11
3.04617E-12 1.99173E-11
3.85530E-12 1.99154E-11
4.75964E-12 1.99133E-11
5.75917E-12 1.99110E-11
6.85391E-12 1.99085E-11
8.04379E-12 1.99058E-11
9.32893E-12 1.99028E-11
1.07092E-11 1.98997E-11
1.21847E-11 1.98963E-11
1.37554E-11 1.98927E-11
1.54213E-11 1.98888E-11
1.71823E-11 1.98848E-11
1.90386E-11 1.98805E-11
2.09900E-11 1.98760E-11
2.30367E-11 1.98714E-11
2.51785E-11 1.98664E-11
2.74156E-11 1.98613E-11
2.97478E-11 1.98560E-11
3.21752E-11 1.98504E-11
3.46979E-11 1.98446E-11
3.73157E-11 1.98387E-11
4.00286E-11 1.98325E-11
4.28368E-11 1.98260E-11
4.57402E-11 1.98194E-11
4.87388E-11 1.98126E-11
5.18325E-11 1.98055E-11
5.50215E-11 1.97982E-11
5.83057E-11 1.97908E-11
6.16850E-11 1.97831E-11
6.51595E-11 1.97752E-11
6.87293E-11 1.97670E-11
7.23943E-11 1.97587E-11
7.61544E-11 1.97502E-11
1.18991E-10 1.96533E-11
1.71347E-10 1.95360E-11
2.33223E-10 1.93988E-11
3.04617E-10 1.92424E-11
3.85531E-10 1.90676E-11
4.75965E-10 1.88752E-11
5.75917E-10 1.86661E-11
6.85389E-10 1.84414E-11
8.04380E-10 1.82020E-11
9.32891E-10 1.79491E-11
1.07092E-09 1.76837E-11
1.21847E-09 1.74070E-11
1.37554E-09 1.71204E-11
1.54213E-09 1.68266E-11
1.71823E-09 1.65235E-11
1.90386E-09 1.62121E-11
2.09900E-09 1.58933E-11
2.30367E-09 1.55747E-11
2.51785E-09 1.52514E-11
2.74156E-09 1.49235E-11
2.97478E-09 1.45921E-11
3.21752E-09 1.42637E-11
3.46978E-09 1.39361E-11
3.73156E-09 1.36072E-11
4.00286E-09 1.32778E-11
4.28368E-09 1.29527E-11
4.57402E-09 1.26335E-11
4.87388E-09 1.23155E-11
5.18326E-09 1.19993E-11
5.50215E-09 1.16876E-11
5.83057E-09 1.13860E-11
6.16850E-09 1.10873E-11
6.51596E-09 1.07919E-11
6.87293E-09 1.05003E-11
7.23942E-09 1.02219E-11
7.61544E-09 9.94748E-12
1.18991E-08 7.55004E-12
1.71347E-08 5.77769E-12
2.33223E-08 4.49807E-12
3.04617E-08 3.56894E-12
3.85531E-08 2.88152E-12
4.75965E-08 2.35966E-12
5.75917E-08 1.95425E-12
6.85389E-08 1.63261E-12
8.04380E-08 1.37416E-12
9.32891E-08 1.16390E-12
1.07092E-07 9.91420E-13
1.21847E-07 8.49262E-13
1.37554E-07 7.30496E-13
1.54213E-07 6.28161E-13
1.71823E-07 5.45515E-13
1.90386E-07 4.78106E-13
2.09900E-07 4.22610E-13
2.30367E-07 3.71696E-13
2.51785E-07 3.28845E-13
2.74156E-07 2.92943E-13
2.97478E-07 2.62643E-13
3.21752E-07 2.35216E-13
3.46978E-07 2.11121E-13
3.73156E-07 1.90497E-13
4.00286E-07 1.72745E-13
4.28368E-07 1.56736E-13
4.57402E-07 1.42137E-13
4.87388E-07 1.29434E-13
5.18325E-07 1.18330E-13
5.50215E-07 1.08386E-13
5.83057E-07 9.90415E-14
6.16850E-07 9.08040E-14
6.51596E-07 8.35157E-14
6.87293E-07 7.70376E-14
7.23942E-07 7.08373E-14
7.61543E-07 6.53128E-14
1.18991E-06 3.13875E-14
1.71347E-06 1.69176E-14
2.33223E-06 1.00310E-14
3.04617E-06 6.38388E-15
3.85531E-06 4.26595E-15
4.75964E-06 2.95598E-15
5.75916E-06 2.10851E-15
6.85388E-06 1.53900E-15
8.04378E-06 1.14697E-15
9.32888E-06 8.71240E-16
1.07092E-05 6.73383E-16
1.21846E-05 5.28613E-16
1.37553E-05 4.20711E-16
1.54212E-05 3.39052E-16
1.71822E-05 2.76517E-16
1.90385E-05 2.27751E-16
2.09899E-05 1.89419E-16
2.30365E-05 1.58916E-16
2.51783E-05 1.34237E-16
2.74153E-05 1.14201E-16
2.97475E-05 9.77532E-17
3.21749E-05 8.41577E-17
3.46974E-05 7.28742E-17
3.73152E-05 6.33962E-17
4.00281E-05 5.54305E-17
4.28362E-05 4.86716E-17
4.57395E-05 4.29103E-17
4.87380E-05 3.79790E-17
5.18317E-05 3.37239E-17
5.50205E-05 3.00513E-17
5.83045E-05 2.68603E-17
6.16838E-05 2.40816E-17
6.51582E-05 2.16541E-17
6.87277E-05 1.95225E-17
7.23925E-05 1.76488E-17
7.61524E-05 1.59931E-17
9.21439E-05 1.10280E-17
1.09658E-04 7.84591E-18
1.28695E-04 5.73350E-18
1.49255E-04 4.28625E-18
1.71338E-04 3.26861E-18
1.94942E-04 2.53610E-18
2.20070E-04 1.99800E-18
2.46720E-04 1.59558E-18
2.74892E-04 1.28970E-18
3.04586E-04 1.05386E-18
3.35803E-04 8.69627E-19
3.68542E-04 7.24027E-19
4.02802E-04 6.07712E-19
4.38585E-04 5.13885E-19
4.75889E-04 4.37519E-19
5.14715E-04 3.74848E-19
5.55063E-04 3.23030E-19
5.96931E-04 2.79877E-19
6.40321E-04 2.43710E-19
6.85233E-04 2.13211E-19
7.31665E-04 1.87345E-19
7.79618E-04 1.65293E-19
8.29092E-04 1.46399E-19
8.80086E-04 1.30134E-19
9.32601E-04 1.16072E-19
9.86636E-04 1.03862E-19
1.04219E-03 9.32204E-20
1.09927E-03 8.39106E-20
1.15786E-03 7.57372E-20
1.21797E-03 6.85378E-20
1.27961E-03 6.21761E-20
1.34276E-03 5.65377E-20
1.40743E-03 5.15259E-20
1.47362E-03 4.70591E-20
1.54133E-03 4.30675E-20
1.61056E-03 3.94916E-20
1.68131E-03 3.62805E-20
1.75357E-03 3.33904E-20
1.82735E-03 3.07834E-20
1.90265E-03 2.84269E-20
1.97947E-03 2.62925E-20
2.05780E-03 2.43555E-20
2.13765E-03 2.25943E-20
2.21902E-03 2.09902E-20
2.30190E-03 1.95266E-20
2.38630E-03 1.81888E-20
2.47222E-03 1.69643E-20
2.55965E-03 1.58415E-20
2.64859E-03 1.48106E-20
2.73905E-03 1.38626E-20
2.83103E-03 1.29896E-20
2.92452E-03 1.21846E-20
3.01952E-03 1.14414E-20
3.11604E-03 1.07543E-20
3.21407E-03 1.01183E-20
3.31362E-03 9.52886E-21
3.41468E-03 8.98200E-21
3.51725E-03 8.47405E-21
3.62133E-03 8.00172E-21
3.72692E-03 7.56205E-21
3.83403E-03 7.15235E-21
3.94265E-03 6.77022E-21
4.05278E-03 6.41343E-21
4.16442E-03 6.08000E-21
4.27757E-03 5.76810E-21
4.39223E-03 5.47609E-21
4.50840E-03 5.20246E-21
4.62608E-03 4.94583E-21
4.74527E-03 4.70495E-21
4.86597E-03 4.47867E-21
4.98817E-03 4.26592E-21
5.11188E-03 4.06577E-21
5.23711E-03 3.87730E-21
5.36383E-03 3.69972E-21
5.49207E-03 3.53227E-21
5.62181E-03 3.37427E-21
5.75306E-03 3.22508E-21
5.88581E-03 3.08411E-21
6.02007E-03 2.95082E-21
6.15583E-03 2.82473E-21
6.29310E-03 2.70535E-21
6.43187E-03 2.59227E-21
6.57214E-03 2.48509E-21
6.71392E-03 2.38345E-21
6.85720E-03 2.28700E-21
7.00198E-03 2.19542E-21
7.14827E-03 2.10842E-21
7.29605E-03 2.02574E-21
7.44534E-03 1.94710E-21
7.59612E-03 1.87229E-21
7.97965E-03 1.70053E-21
8.37255E-03 1.54821E-21
8.77480E-03 1.41273E-21
9.18641E-03 1.29190E-21
9.60736E-03 1.18385E-21
1.00376E-02 1.08698E-21
1.04773E-02 9.99926E-22
1.09262E-02 9.21512E-22
1.13844E-02 8.50723E-22
1.18520E-02 7.86680E-22
1.23288E-02 7.28624E-22
1.28150E-02 6.75891E-22
1.33104E-02 6.27902E-22
1.38150E-02 5.84151E-22
1.43290E-02 5.44193E-22
1.48521E-02 5.07638E-22
1.53845E-02 4.74143E-22
1.59262E-02 4.43402E-22
1.64770E-02 4.15147E-22
1.70371E-02 3.89138E-22
1.76063E-02 3.65163E-22
1.81848E-02 3.43032E-22
1.87724E-02 3.22578E-22
1.93692E-02 3.03648E-22
1.99751E-02 2.86106E-22
2.05901E-02 2.69832E-22
2.12143E-02 2.54717E-22
2.18476E-02 2.40661E-22
2.24900E-02 2.27578E-22
2.31415E-02 2.15385E-22
2.38021E-02 2.04010E-22
2.44717E-02 1.93389E-22
2.51504E-02 1.83461E-22
2.58382E-02 1.74172E-22
2.65349E-02 1.65474E-22
2.72407E-02 1.57321E-22
2.79555E-02 1.49672E-22
2.86793E-02 1.42490E-22
2.94120E-02 1.35741E-22
3.01537E-02 1.29394E-22
3.09043E-02 1.23420E-22
3.16639E-02 1.17792E-22
3.24324E-02 1.12487E-22
3.32098E-02 1.07483E-22
3.39961E-02 1.02759E-22
3.47912E-02 9.82958E-23
3.55952E-02 9.40767E-23
3.64081E-02 9.00855E-23
3.72297E-02 8.63073E-23
3.80602E-02 8.27288E-23
3.88995E-02 7.93372E-23
3.97476E-02 7.61207E-23
4.06044E-02 7.30684E-23
4.14700E-02 7.01702E-23
4.23443E-02 6.74169E-23
4.32273E-02 6.47998E-23
4.41190E-02 6.23108E-23
4.50194E-02 5.99423E-23
4.59284E-02 5.76871E-23
4.68461E-02 5.55389E-23
4.87074E-02 5.15396E-23
5.06030E-02 4.78998E-23
5.25328E-02 4.45811E-23
5.44967E-02 4.15498E-23
5.64946E-02 3.87760E-23
5.85262E-02 3.62338E-23
6.05914E-02 3.38999E-23
6.26901E-02 3.17540E-23
6.48222E-02 2.97780E-23
6.69873E-02 2.79557E-23
6.91854E-02 2.62730E-23
7.14163E-02 2.47169E-23
7.36799E-02 2.32762E-23
7.59760E-02 2.19404E-23
7.83043E-02 2.07005E-23
8.06647E-02 1.95483E-23
8.30571E-02 1.84762E-23
8.54812E-02 1.74777E-23
8.79369E-02 1.65466E-23
9.04240E-02 1.56775E-23
9.29422E-02 1.48655E-23
9.54915E-02 1.41060E-23
9.80716E-02 1.33949E-23
1.00682E-01 1.27286E-23
1.03323E-01 1.21037E-23
1.05995E-01 1.15171E-23
1.08696E-01 1.09659E-23
1.11427E-01 1.04477E-23
1.14188E-01 9.95992E-24
1.16978E-01 9.50055E-24
1.19797E-01 9.06758E-24
1.22645E-01 8.65917E-24
1.25522E-01 8.27365E-24
1.28428E-01 7.90948E-24
1.31361E-01 7.56524E-24
1.34323E-01 7.23958E-24
1.37313E-01 6.93133E-24
1.40330E-01 6.63936E-24
1.43375E-01 6.36265E-24
1.46447E-01 6.10023E-24
1.49545E-01 5.85122E-24
1.52671E-01 5.61480E-24
1.55823E-01 5.39020E-24
1.59001E-01 5.17670E-24
1.62205E-01 4.97365E-24
1.65435E-01 4.78044E-24
1.68690E-01 4.59649E-24
1.71970E-01 4.42126E-24
1.75276E-01 4.25427E-24
1.78606E-01 4.09504E-24
1.81961E-01 3.94314E-24
1.85340E-01 3.79817E-24
1.88743E-01 3.65974E-24
1.92169E-01 3.52750E-24
1.95619E-01 3.40113E-24
1.99092E-01 3.28029E-24
2.02589E-01 3.16472E-24
2.06107E-01 3.05412E-24
2.09649E-01 2.94825E-24
2.13212E-01 2.84685E-24
2.16797E-01 2.74971E-24
2.20404E-01 2.65660E-24
2.24032E-01 2.56734E-24
2.27680E-01 2.48172E-24
2.31350E-01 2.39957E-24
2.35040E-01 2.32072E-24
2.38751E-01 2.24501E-24
2.42481E-01 2.17229E-24
2.46231E-01 2.10242E-24
2.50000E-01 2.03527E-24
2.53788E-01 1.97070E-24
2.57595E-01 1.90861E-24
2.61421E-01 1.84887E-24
2.65264E-01 1.79138E-24
2.69126E-01 1.73604E-24
2.73005E-01 1.68275E-24
2.76901E-01 1.63142E-24
2.80814E-01 1.58197E-24
2.84744E-01 1.53431E-24
2.88691E-01 1.48836E-24
2.92653E-01 1.44406E-24
2.96632E-01 1.40133E-24
3.00625E-01 1.36010E-24
3.04634E-01 1.32031E-24
3.08658E-01 1.28191E-24
3.12697E-01 1.24483E-24
3.16749E-01 1.20901E-24
3.20816E-01 1.17442E-24
3.24896E-01 1.14100E-24
3.28990E-01 1.10869E-24
3.33097E-01 1.07747E-24
3.37216E-01 1.04727E-24
3.41348E-01 1.01807E-24
3.45492E-01 9.89827E-25
3.49647E-01 9.62498E-25
3.53814E-01 9.36051E-25
3.57992E-01 9.10452E-25
3.62181E-01 8.85668E-25
3.66381E-01 8.61670E-25
3.70590E-01 8.38426E-25
3.74810E-01 8.15910E-25
3.79039E-01 7.94093E-25
3.83277E-01 7.72951E-25
3.87524E-01 7.52459E-25
3.91780E-01 7.32592E-25
3.96044E-01 7.13328E-25
4.00316E-01 6.94646E-25
4.04596E-01 6.76525E-25
4.08882E-01 6.58945E-25
4.13176E-01 6.41886E-25
4.17476E-01 6.25331E-25
4.21783E-01 6.09262E-25
4.26095E-01 5.93662E-25
4.30413E-01 5.78514E-25
4.34737E-01 5.63805E-25
4.39065E-01 5.49517E-25
4.43398E-01 5.35638E-25
4.47736E-01 5.22154E-25
4.52077E-01 5.09050E-25
4.56422E-01 4.96315E-25
4.60770E-01 4.83937E-25
4.65122E-01 4.71903E-25
4.69476E-01 4.60202E-25
4.73832E-01 4.48824E-25
4.78190E-01 4.37759E-25
4.82550E-01 4.26995E-25
4.86912E-01 4.16523E-25
4.91274E-01 4.06335E-25
4.95637E-01 3.96421E-25
5.00000E-01 3.86772E-25
5.04363E-01 3.77380E-25
5.08726E-01 3.68238E-25
5.13088E-01 3.59337E-25
5.17450E-01 3.50670E-25
5.21810E-01 3.42230E-25
5.26168E-01 3.34009E-25
5.30524E-01 3.26002E-25
5.34878E-01 3.18202E-25
5.39230E-01 3.10602E-25
5.43578E-01 3.03196E-25
5.47923E-01 2.95980E-25
5.52264E-01 2.88946E-25
5.56602E-01 2.82091E-25
5.60935E-01 2.75408E-25
5.65263E-01 2.68892E-25
5.69587E-01 2.62539E-25
5.73905E-01 2.56344E-25
5.78217E-01 2.50303E-25
5.82524E-01 2.44410E-25
5.86824E-01 2.38662E-25
5.91118E-01 2.33055E-25
5.95404E-01 2.27585E-25
5.99684E-01 2.22248E-25
6.03956E-01 2.17039E-25
6.08220E-01 2.11956E-25
6.12476E-01 2.06996E-25
6.16723E-01 2.02154E-25
6.20961E-01 1.97427E-25
6.25190E-01 1.92813E-25
6.29410E-01 1.88308E-25
6.33619E-01 1.83910E-25
6.37819E-01 1.79614E-25
6.42008E-01 1.75420E-25
6.46186E-01 1.71323E-25
6.50353E-01 1.67322E-25
6.54508E-01 1.63414E-25
6.58652E-01 1.59596E-25
6.62784E-01 1.55866E-25
6.66903E-01 1.52222E-25
6.71010E-01 1.48661E-25
6.75104E-01 1.45182E-25
6.79184E-01 1.41781E-25
6.83251E-01 1.38458E-25
6.87303E-01 1.35211E-25
6.91342E-01 1.32036E-25
6.95366E-01 1.28933E-25
6.99375E-01 1.25900E-25
7.03368E-01 1.22935E-25
7.07347E-01 1.20035E-25
7.11309E-01 1.17201E-25
7.15256E-01 1.14429E-25
7.19186E-01 1.11719E-25
7.23099E-01 1.09068E-25
7.26995E-01 1.06477E-25
7.30874E-01 1.03942E-25
7.34736E-01 1.01462E-25
7.38579E-01 9.90372E-26
7.42405E-01 9.66651E-26
7.46212E-01 9.43447E-26
7.50000E-01 9.20748E-26
7.53769E-01 8.98541E-26
7.57519E-01 8.76816E-26
7.61249E-01 8.55560E-26
7.64960E-01 8.34764E-26
7.68650E-01 8.14415E-26
7.72320E-01 7.94503E-26
7.75968E-01 7.75019E-26
7.79596E-01 7.55953E-26
7.83203E-01 7.37295E-26
7.86788E-01 7.19036E-26
7.90351E-01 7.01166E-26
7.93893E-01 6.83677E-26
7.97411E-01 6.66561E-26
8.00908E-01 6.49808E-26
8.04381E-01 6.33411E-26
8.07831E-01 6.17362E-26
8.11257E-01 6.01654E-26
8.14660E-01 5.86278E-26
8.18039E-01 5.71228E-26
8.21394E-01 5.56495E-26
8.24724E-01 5.42075E-26
8.28030E-01 5.27959E-26
8.31310E-01 5.14141E-26
8.34565E-01 5.00615E-26
8.37795E-01 4.87375E-26
8.40999E-01 4.74415E-26
8.44177E-01 4.61728E-26
8.47329E-01 4.49309E-26
8.50455E-01 4.37152E-26
8.53553E-01 4.25252E-26
8.56625E-01 4.13604E-26
8.59670E-01 4.02202E-26
8.62687E-01 3.91042E-26
8.65677E-01 3.80119E-26
8.68639E-01 3.69427E-26
8.71572E-01 3.58962E-26
8.74478E-01 3.48720E-26
8.77355E-01 3.38697E-26
8.80203E-01 3.28887E-26
8.83022E-01 3.19287E-26
8.85812E-01 3.09892E-26
8.88573E-01 3.00700E-26
8.91304E-01 2.91705E-26
8.94005E-01 2.82904E-26
8.96677E-01 2.74294E-26
8.99318E-01 2.65870E-26
9.01928E-01 2.57630E-26
9.04508E-01 2.49570E-26
9.07058E-01 2.41686E-26
9.09576E-01 2.33976E-26
9.12063E-01 2.26436E-26
9.14519E-01 2.19064E-26
9.16943E-01 2.11855E-26
9.19335E-01 2.04808E-26
9.21696E-01 1.97920E-26
9.24024E-01 1.91187E-26
9.26320E-01 1.84608E-26
9.28584E-01 1.78179E-26
9.30815E-01 1.71897E-26
9.33013E-01 1.65762E-26
9.35178E-01 1.59769E-26
9.37310E-01 1.53917E-26
9.39409E-01 1.48204E-26
9.41474E-01 1.42627E-26
9.43505E-01 1.37184E-26
9.45503E-01 1.31873E-26
9.47467E-01 1.26692E-26
9.49397E-01 1.21639E-26
9.51293E-01 1.16712E-26
9.53154E-01 1.11909E-26
9.54981E-01 1.07228E-26
9.56773E-01 1.02668E-26
9.58530E-01 9.82272E-27
9.60252E-01 9.39032E-27
9.61940E-01 8.96947E-27
9.63592E-01 8.56002E-27
9.65209E-01 8.16182E-27
9.66790E-01 7.77471E-27
9.68336E-01 7.39855E-27
9.69846E-01 7.03320E-27
9.71321E-01 6.67854E-27
9.72759E-01 6.33441E-27
9.74162E-01 6.00071E-27
9.75528E-01 5.67730E-27
9.76858E-01 5.36408E-27
9.78152E-01 5.06091E-27
9.79410E-01 4.76770E-27
9.80631E-01 4.48434E-27
9.81815E-01 4.21072E-27
9.82963E-01 3.94674E-27
9.84074E-01 3.69232E-27
9.85148E-01 3.44735E-27
9.86185E-01 3.21174E-27
9.87185E-01 2.98542E-27
9.88148E-01 2.76831E-27
9.89074E-01 2.56031E-27
9.89962E-01 2.36137E-27
9.90814E-01 2.17140E-27
9.91627E-01 1.99034E-27
9.92404E-01 1.81813E-27
9.93143E-01 1.65471E-27
9.93844E-01 1.50000E-27
9.94508E-01 1.35397E-27
9.95134E-01 1.21656E-27
9.95722E-01 1.08772E-27
9.96273E-01 9.67401E-28
9.96786E-01 8.55565E-28
9.97261E-01 7.52171E-28
9.97698E-01 6.57182E-28
9.98097E-01 5.70565E-28
9.98459E-01 4.92289E-28
9.98782E-01 4.22326E-28
9.99067E-01 3.60653E-28
9.99315E-01 3.07246E-28
9.99524E-01 2.62088E-28
9.99695E-01 2.25162E-28
9.99829E-01 1.96455E-28
9.99924E-01 1.75957E-28
9.99981E-01 1.63662E-28
1.00000E+00 1.59563E-28
