 #
 # Subroutine ELSEPA. Elastic scattering of electrons and positrons
 #                    by neutral atoms and positive ions
 #
 # Projectile: electron
 # Kinetic energy = 7.00000E+07 eV = 2.57245E+06 a.u.
 #
 # WARNING: High-energy factorization with free-atom DF screening.
 #          Absorption, polarization and exchange corrections are
 #          switched off.
 #          Phase shifts are calculated for the bare nucleus.
 #          Scattering amplitudes are not evaluated.
 #
 # Element: La,  Z =  57,  atomic weight = 1.38905E+02 g/mol
 #
 # Nuclear model: Fermi distribution
 #                Average radius = 5.54145E-13 cm
 #                Skin thickness = 5.46000E-14 cm
 #
 # Number of electrons = 57
 #
 # Total elastic cross section = 7.53259E-18 cm**2 = 2.68994E-01 a0**2
 # 1st transport cross section = 1.28213E-24 cm**2 = 4.57857E-08 a0**2
 # 2nd transport cross section = 3.79244E-24 cm**2 = 1.35431E-07 a0**2
 #
 #
 # Differential cross section:                       MU=(1-COS(THETA))/2
 #
 #  THETA        MU          DCS          DCS        Sherman      error
 #  (deg)                 (cm**2/sr)   (a0**2/sr)    function
 #----------------------------------------------------------------------
0.00000E+00 5.85162E-10
7.61557E-13 5.83647E-10
1.18994E-12 5.82799E-10
1.71346E-12 5.81766E-10
2.33225E-12 5.80548E-10
3.04617E-12 5.79149E-10
3.85530E-12 5.77570E-10
4.75964E-12 5.75813E-10
5.75917E-12 5.73881E-10
6.85391E-12 5.71777E-10
8.04379E-12 5.69504E-10
9.32893E-12 5.67066E-10
1.07092E-11 5.64465E-10
1.21847E-11 5.61707E-10
1.37554E-11 5.58794E-10
1.54213E-11 5.55731E-10
1.71823E-11 5.52522E-10
1.90386E-11 5.49172E-10
2.09900E-11 5.45685E-10
2.30367E-11 5.42067E-10
2.51785E-11 5.38321E-10
2.74156E-11 5.34453E-10
2.97478E-11 5.30468E-10
3.21752E-11 5.26371E-10
3.46979E-11 5.22168E-10
3.73157E-11 5.17862E-10
4.00286E-11 5.13462E-10
4.28368E-11 5.08970E-10
4.57402E-11 5.04393E-10
4.87388E-11 4.99772E-10
5.18325E-11 4.95073E-10
5.50215E-11 4.90292E-10
5.83057E-11 4.85434E-10
6.16850E-11 4.80504E-10
6.51595E-11 4.75507E-10
6.87293E-11 4.70447E-10
7.23943E-11 4.65338E-10
7.61544E-11 4.60281E-10
1.18991E-10 4.08149E-10
1.71347E-10 3.56656E-10
2.33223E-10 3.08676E-10
3.04617E-10 2.66098E-10
3.85531E-10 2.29129E-10
4.75965E-10 1.97634E-10
5.75917E-10 1.71179E-10
6.85389E-10 1.49055E-10
8.04380E-10 1.30498E-10
9.32891E-10 1.14894E-10
1.07092E-09 1.01727E-10
1.21847E-09 9.05113E-11
1.37554E-09 8.08947E-11
1.54213E-09 7.25863E-11
1.71823E-09 6.53540E-11
1.90386E-09 5.90264E-11
2.09900E-09 5.34608E-11
2.30367E-09 4.85244E-11
2.51785E-09 4.41429E-11
2.74156E-09 4.02414E-11
2.97478E-09 3.67504E-11
3.21752E-09 3.36173E-11
3.46978E-09 3.08063E-11
3.73156E-09 2.82791E-11
4.00286E-09 2.59949E-11
4.28368E-09 2.39344E-11
4.57402E-09 2.20733E-11
4.87388E-09 2.03066E-11
5.18326E-09 1.87237E-11
5.50215E-09 1.73147E-11
5.83057E-09 1.60568E-11
6.16850E-09 1.49305E-11
6.51596E-09 1.39193E-11
6.87293E-09 1.30089E-11
7.23942E-09 1.21788E-11
7.61544E-09 1.13470E-11
1.18991E-08 6.12239E-12
1.71347E-08 3.61816E-12
2.33223E-08 2.26803E-12
3.04617E-08 1.47556E-12
3.85531E-08 9.98295E-13
4.75965E-08 6.99770E-13
5.75917E-08 5.06245E-13
6.85389E-08 3.76691E-13
8.04380E-08 2.87265E-13
9.32891E-08 2.23605E-13
1.07092E-07 1.76884E-13
1.21847E-07 1.41891E-13
1.37554E-07 1.15119E-13
1.54213E-07 9.43423E-14
1.71823E-07 7.79939E-14
1.90386E-07 6.50003E-14
2.09900E-07 5.45613E-14
2.30367E-07 4.60772E-14
2.51785E-07 3.91545E-14
2.74156E-07 3.34700E-14
2.97478E-07 2.87704E-14
3.21752E-07 2.48622E-14
3.46978E-07 2.15953E-14
3.73156E-07 1.88477E-14
4.00286E-07 1.65213E-14
4.28368E-07 1.45434E-14
4.57402E-07 1.28539E-14
4.87388E-07 1.13990E-14
5.18325E-07 1.01489E-14
5.50215E-07 9.07073E-15
5.83057E-07 8.12854E-15
6.16850E-07 7.30680E-15
6.51596E-07 6.58936E-15
6.87293E-07 5.95626E-15
7.23942E-07 5.39741E-15
7.61543E-07 4.90445E-15
1.18991E-06 2.09751E-15
1.71347E-06 1.04064E-15
2.33223E-06 5.72451E-16
3.04617E-06 3.39995E-16
3.85531E-06 2.14308E-16
4.75964E-06 1.41656E-16
5.75916E-06 9.73399E-17
6.85388E-06 6.90809E-17
8.04378E-06 5.03773E-17
9.32888E-06 3.76004E-17
1.07092E-05 2.86316E-17
1.21846E-05 2.21860E-17
1.37553E-05 1.74574E-17
1.54212E-05 1.39246E-17
1.71822E-05 1.12422E-17
1.90385E-05 9.17246E-18
2.09899E-05 7.56366E-18
2.30365E-05 6.29200E-18
2.51783E-05 5.27571E-18
2.74153E-05 4.45576E-18
2.97475E-05 3.78868E-18
3.21749E-05 3.24184E-18
3.46974E-05 2.79037E-18
3.73152E-05 2.41506E-18
4.00281E-05 2.10095E-18
4.28362E-05 1.83638E-18
4.57395E-05 1.61216E-18
4.87380E-05 1.42108E-18
5.18317E-05 1.25741E-18
5.50205E-05 1.11658E-18
5.83045E-05 9.94913E-19
6.16838E-05 8.89373E-19
6.51582E-05 7.97489E-19
6.87277E-05 7.17197E-19
7.23925E-05 6.46778E-19
7.61524E-05 5.85102E-19
9.21439E-05 4.00398E-19
1.09658E-04 2.83164E-19
1.28695E-04 2.05901E-19
1.49255E-04 1.53284E-19
1.71338E-04 1.16469E-19
1.94942E-04 9.00780E-20
2.20070E-04 7.07635E-20
2.46720E-04 5.63650E-20
2.74892E-04 4.54528E-20
3.04586E-04 3.70620E-20
3.35803E-04 3.05233E-20
3.68542E-04 2.53675E-20
4.02802E-04 2.12574E-20
4.38585E-04 1.79485E-20
4.75889E-04 1.52603E-20
5.14715E-04 1.30579E-20
5.55063E-04 1.12398E-20
5.96931E-04 9.72796E-21
6.40321E-04 8.46259E-21
6.85233E-04 7.39693E-21
7.31665E-04 6.49424E-21
7.79618E-04 5.72552E-21
8.29092E-04 5.06752E-21
8.80086E-04 4.50166E-21
9.32601E-04 4.01285E-21
9.86636E-04 3.58879E-21
1.04219E-03 3.21948E-21
1.09927E-03 2.89661E-21
1.15786E-03 2.61335E-21
1.21797E-03 2.36400E-21
1.27961E-03 2.14377E-21
1.34276E-03 1.94870E-21
1.40743E-03 1.77539E-21
1.47362E-03 1.62099E-21
1.54133E-03 1.48308E-21
1.61056E-03 1.35958E-21
1.68131E-03 1.24871E-21
1.75357E-03 1.14896E-21
1.82735E-03 1.05901E-21
1.90265E-03 9.77728E-22
1.97947E-03 9.04123E-22
2.05780E-03 8.37343E-22
2.13765E-03 7.76639E-22
2.21902E-03 7.21357E-22
2.30190E-03 6.70928E-22
2.38630E-03 6.24845E-22
2.47222E-03 5.82667E-22
2.55965E-03 5.44002E-22
2.64859E-03 5.08504E-22
2.73905E-03 4.75866E-22
2.83103E-03 4.45814E-22
2.92452E-03 4.18107E-22
3.01952E-03 3.92527E-22
3.11604E-03 3.68881E-22
3.21407E-03 3.46996E-22
3.31362E-03 3.26716E-22
3.41468E-03 3.07901E-22
3.51725E-03 2.90427E-22
3.62133E-03 2.74179E-22
3.72692E-03 2.59055E-22
3.83403E-03 2.44964E-22
3.94265E-03 2.31821E-22
4.05278E-03 2.19551E-22
4.16442E-03 2.08085E-22
4.27757E-03 1.97360E-22
4.39223E-03 1.87319E-22
4.50840E-03 1.77911E-22
4.62608E-03 1.69086E-22
4.74527E-03 1.60804E-22
4.86597E-03 1.53024E-22
4.98817E-03 1.45710E-22
5.11188E-03 1.38829E-22
5.23711E-03 1.32351E-22
5.36383E-03 1.26247E-22
5.49207E-03 1.20491E-22
5.62181E-03 1.15061E-22
5.75306E-03 1.09933E-22
5.88581E-03 1.05089E-22
6.02007E-03 1.00509E-22
6.15583E-03 9.61757E-23
6.29310E-03 9.20741E-23
6.43187E-03 8.81891E-23
6.57214E-03 8.45071E-23
6.71392E-03 8.10154E-23
6.85720E-03 7.77024E-23
7.00198E-03 7.45571E-23
7.14827E-03 7.15694E-23
7.29605E-03 6.87300E-23
7.44534E-03 6.60299E-23
7.59612E-03 6.34612E-23
7.97965E-03 5.75650E-23
8.37255E-03 5.23375E-23
8.77480E-03 4.76895E-23
9.18641E-03 4.35453E-23
9.60736E-03 3.98408E-23
1.00376E-02 3.65208E-23
1.04773E-02 3.35385E-23
1.09262E-02 3.08534E-23
1.13844E-02 2.84305E-23
1.18520E-02 2.62396E-23
1.23288E-02 2.42546E-23
1.28150E-02 2.24526E-23
1.33104E-02 2.08138E-23
1.38150E-02 1.93206E-23
1.43290E-02 1.79579E-23
1.48521E-02 1.67121E-23
1.53845E-02 1.55714E-23
1.59262E-02 1.45254E-23
1.64770E-02 1.35647E-23
1.70371E-02 1.26812E-23
1.76063E-02 1.18676E-23
1.81848E-02 1.11172E-23
1.87724E-02 1.04244E-23
1.93692E-02 9.78385E-24
1.99751E-02 9.19096E-24
2.05901E-02 8.64153E-24
2.12143E-02 8.13179E-24
2.18476E-02 7.65837E-24
2.24900E-02 7.21822E-24
2.31415E-02 6.80857E-24
2.38021E-02 6.42693E-24
2.44717E-02 6.07105E-24
2.51504E-02 5.73887E-24
2.58382E-02 5.42854E-24
2.65349E-02 5.13835E-24
2.72407E-02 4.86678E-24
2.79555E-02 4.61241E-24
2.86793E-02 4.37397E-24
2.94120E-02 4.15027E-24
3.01537E-02 3.94024E-24
3.09043E-02 3.74291E-24
3.16639E-02 3.55736E-24
3.24324E-02 3.38278E-24
3.32098E-02 3.21840E-24
3.39961E-02 3.06351E-24
3.47912E-02 2.91749E-24
3.55952E-02 2.77972E-24
3.64081E-02 2.64967E-24
3.72297E-02 2.52682E-24
3.80602E-02 2.41071E-24
3.88995E-02 2.30091E-24
3.97476E-02 2.19701E-24
4.06044E-02 2.09864E-24
4.14700E-02 2.00546E-24
4.23443E-02 1.91715E-24
4.32273E-02 1.83341E-24
4.41190E-02 1.75396E-24
4.50194E-02 1.67855E-24
4.59284E-02 1.60694E-24
4.68461E-02 1.53890E-24
4.87074E-02 1.41273E-24
5.06030E-02 1.29854E-24
5.25328E-02 1.19501E-24
5.44967E-02 1.10099E-24
5.64946E-02 1.01549E-24
5.85262E-02 9.37601E-25
6.05914E-02 8.66558E-25
6.26901E-02 8.01667E-25
6.48222E-02 7.42316E-25
6.69873E-02 6.87964E-25
6.91854E-02 6.38129E-25
7.14163E-02 5.92383E-25
7.36799E-02 5.50343E-25
7.59760E-02 5.11666E-25
7.83043E-02 4.76047E-25
8.06647E-02 4.43211E-25
8.30571E-02 4.12911E-25
8.54812E-02 3.84926E-25
8.79369E-02 3.59055E-25
9.04240E-02 3.35118E-25
9.29422E-02 3.12953E-25
9.54915E-02 2.92411E-25
9.80716E-02 2.73359E-25
1.00682E-01 2.55675E-25
1.03323E-01 2.39250E-25
1.05995E-01 2.23983E-25
1.08696E-01 2.09783E-25
1.11427E-01 1.96567E-25
1.14188E-01 1.84260E-25
1.16978E-01 1.72791E-25
1.19797E-01 1.62097E-25
1.22645E-01 1.52121E-25
1.25522E-01 1.42808E-25
1.28428E-01 1.34111E-25
1.31361E-01 1.25985E-25
1.34323E-01 1.18388E-25
1.37313E-01 1.11283E-25
1.40330E-01 1.04634E-25
1.43375E-01 9.84096E-26
1.46447E-01 9.25804E-26
1.49545E-01 8.71189E-26
1.52671E-01 8.19998E-26
1.55823E-01 7.71998E-26
1.59001E-01 7.26973E-26
1.62205E-01 6.84724E-26
1.65435E-01 6.45066E-26
1.68690E-01 6.07828E-26
1.71970E-01 5.72850E-26
1.75276E-01 5.39985E-26
1.78606E-01 5.09096E-26
1.81961E-01 4.80056E-26
1.85340E-01 4.52747E-26
1.88743E-01 4.27058E-26
1.92169E-01 4.02887E-26
1.95619E-01 3.80139E-26
1.99092E-01 3.58725E-26
2.02589E-01 3.38561E-26
2.06107E-01 3.19570E-26
2.09649E-01 3.01681E-26
2.13212E-01 2.84826E-26
2.16797E-01 2.68942E-26
2.20404E-01 2.53969E-26
2.24032E-01 2.39854E-26
2.27680E-01 2.26545E-26
2.31350E-01 2.13994E-26
2.35040E-01 2.02154E-26
2.38751E-01 1.90986E-26
2.42481E-01 1.80448E-26
2.46231E-01 1.70503E-26
2.50000E-01 1.61118E-26
2.53788E-01 1.52259E-26
2.57595E-01 1.43896E-26
2.61421E-01 1.36000E-26
2.65264E-01 1.28544E-26
2.69126E-01 1.21503E-26
2.73005E-01 1.14853E-26
2.76901E-01 1.08572E-26
2.80814E-01 1.02639E-26
2.84744E-01 9.70339E-27
2.88691E-01 9.17381E-27
2.92653E-01 8.67342E-27
2.96632E-01 8.20059E-27
3.00625E-01 7.75376E-27
3.04634E-01 7.33148E-27
3.08658E-01 6.93238E-27
3.12697E-01 6.55515E-27
3.16749E-01 6.19859E-27
3.20816E-01 5.86154E-27
3.24896E-01 5.54293E-27
3.28990E-01 5.24172E-27
3.33097E-01 4.95697E-27
3.37216E-01 4.68776E-27
3.41348E-01 4.43324E-27
3.45492E-01 4.19260E-27
3.49647E-01 3.96507E-27
3.53814E-01 3.74994E-27
3.57992E-01 3.54653E-27
3.62181E-01 3.35420E-27
3.66381E-01 3.17233E-27
3.70590E-01 3.00037E-27
3.74810E-01 2.83777E-27
3.79039E-01 2.68403E-27
3.83277E-01 2.53865E-27
3.87524E-01 2.40118E-27
3.91780E-01 2.27120E-27
3.96044E-01 2.14829E-27
4.00316E-01 2.03208E-27
4.04596E-01 1.92219E-27
4.08882E-01 1.81830E-27
4.13176E-01 1.72006E-27
4.17476E-01 1.62718E-27
4.21783E-01 1.53936E-27
4.26095E-01 1.45633E-27
4.30413E-01 1.37783E-27
4.34737E-01 1.30362E-27
4.39065E-01 1.23345E-27
4.43398E-01 1.16712E-27
4.47736E-01 1.10442E-27
4.52077E-01 1.04514E-27
4.56422E-01 9.89108E-28
4.60770E-01 9.36140E-28
4.65122E-01 8.86072E-28
4.69476E-01 8.38746E-28
4.73832E-01 7.94014E-28
4.78190E-01 7.51734E-28
4.82550E-01 7.11774E-28
4.86912E-01 6.74007E-28
4.91274E-01 6.38313E-28
4.95637E-01 6.04580E-28
5.00000E-01 5.72700E-28
5.04363E-01 5.42574E-28
5.08726E-01 5.14104E-28
5.13088E-01 4.87200E-28
5.17450E-01 4.61777E-28
5.21810E-01 4.37753E-28
5.26168E-01 4.15052E-28
5.30524E-01 3.93601E-28
5.34878E-01 3.73332E-28
5.39230E-01 3.54180E-28
5.43578E-01 3.36082E-28
5.47923E-01 3.18982E-28
5.52264E-01 3.02823E-28
5.56602E-01 2.87554E-28
5.60935E-01 2.73126E-28
5.65263E-01 2.59492E-28
5.69587E-01 2.46609E-28
5.73905E-01 2.34433E-28
5.78217E-01 2.22927E-28
5.82524E-01 2.12053E-28
5.86824E-01 2.01775E-28
5.91118E-01 1.92061E-28
5.95404E-01 1.82879E-28
5.99684E-01 1.74199E-28
6.03956E-01 1.65992E-28
6.08220E-01 1.58233E-28
6.12476E-01 1.50897E-28
6.16723E-01 1.43959E-28
6.20961E-01 1.37397E-28
6.25190E-01 1.31190E-28
6.29410E-01 1.25317E-28
6.33619E-01 1.19761E-28
6.37819E-01 1.14503E-28
6.42008E-01 1.09526E-28
6.46186E-01 1.04813E-28
6.50353E-01 1.00352E-28
6.54508E-01 9.61255E-29
6.58652E-01 9.21220E-29
6.62784E-01 8.83282E-29
6.66903E-01 8.47322E-29
6.71010E-01 8.13228E-29
6.75104E-01 7.80892E-29
6.79184E-01 7.50215E-29
6.83251E-01 7.21100E-29
6.87303E-01 6.93460E-29
6.91342E-01 6.67209E-29
6.95366E-01 6.42267E-29
6.99375E-01 6.18561E-29
7.03368E-01 5.96018E-29
7.07347E-01 5.74572E-29
7.11309E-01 5.54161E-29
7.15256E-01 5.34724E-29
7.19186E-01 5.16207E-29
7.23099E-01 4.98556E-29
7.26995E-01 4.81723E-29
7.30874E-01 4.65659E-29
7.34736E-01 4.50322E-29
7.38579E-01 4.35670E-29
7.42405E-01 4.21665E-29
7.46212E-01 4.08268E-29
7.50000E-01 3.95446E-29
7.53769E-01 3.83167E-29
7.57519E-01 3.71399E-29
7.61249E-01 3.60115E-29
7.64960E-01 3.49286E-29
7.68650E-01 3.38888E-29
7.72320E-01 3.28897E-29
7.75968E-01 3.19290E-29
7.79596E-01 3.10046E-29
7.83203E-01 3.01145E-29
7.86788E-01 2.92568E-29
7.90351E-01 2.84299E-29
7.93893E-01 2.76321E-29
7.97411E-01 2.68617E-29
8.00908E-01 2.61174E-29
8.04381E-01 2.53978E-29
8.07831E-01 2.47017E-29
8.11257E-01 2.40277E-29
8.14660E-01 2.33748E-29
8.18039E-01 2.27420E-29
8.21394E-01 2.21282E-29
8.24724E-01 2.15325E-29
8.28030E-01 2.09540E-29
8.31310E-01 2.03920E-29
8.34565E-01 1.98456E-29
8.37795E-01 1.93141E-29
8.40999E-01 1.87968E-29
8.44177E-01 1.82932E-29
8.47329E-01 1.78026E-29
8.50455E-01 1.73245E-29
8.53553E-01 1.68583E-29
8.56625E-01 1.64035E-29
8.59670E-01 1.59598E-29
8.62687E-01 1.55266E-29
8.65677E-01 1.51035E-29
8.68639E-01 1.46903E-29
8.71572E-01 1.42864E-29
8.74478E-01 1.38917E-29
8.77355E-01 1.35057E-29
8.80203E-01 1.31283E-29
8.83022E-01 1.27590E-29
8.85812E-01 1.23977E-29
8.88573E-01 1.20441E-29
8.91304E-01 1.16980E-29
8.94005E-01 1.13592E-29
8.96677E-01 1.10275E-29
8.99318E-01 1.07026E-29
9.01928E-01 1.03845E-29
9.04508E-01 1.00729E-29
9.07058E-01 9.76764E-30
9.09576E-01 9.46867E-30
9.12063E-01 9.17581E-30
9.14519E-01 8.88892E-30
9.16943E-01 8.60789E-30
9.19335E-01 8.33259E-30
9.21696E-01 8.06292E-30
9.24024E-01 7.79878E-30
9.26320E-01 7.54006E-30
9.28584E-01 7.28669E-30
9.30815E-01 7.03856E-30
9.33013E-01 6.79560E-30
9.35178E-01 6.55773E-30
9.37310E-01 6.32487E-30
9.39409E-01 6.09696E-30
9.41474E-01 5.87393E-30
9.43505E-01 5.65572E-30
9.45503E-01 5.44227E-30
9.47467E-01 5.23351E-30
9.49397E-01 5.02940E-30
9.51293E-01 4.82987E-30
9.53154E-01 4.63490E-30
9.54981E-01 4.44441E-30
9.56773E-01 4.25838E-30
9.58530E-01 4.07676E-30
9.60252E-01 3.89950E-30
9.61940E-01 3.72656E-30
9.63592E-01 3.55792E-30
9.65209E-01 3.39352E-30
9.66790E-01 3.23334E-30
9.68336E-01 3.07734E-30
9.69846E-01 2.92549E-30
9.71321E-01 2.77776E-30
9.72759E-01 2.63412E-30
9.74162E-01 2.49454E-30
9.75528E-01 2.35899E-30
9.76858E-01 2.22745E-30
9.78152E-01 2.09988E-30
9.79410E-01 1.97628E-30
9.80631E-01 1.85660E-30
9.81815E-01 1.74083E-30
9.82963E-01 1.62895E-30
9.84074E-01 1.52093E-30
9.85148E-01 1.41676E-30
9.86185E-01 1.31642E-30
9.87185E-01 1.21988E-30
9.88148E-01 1.12714E-30
9.89074E-01 1.03816E-30
9.89962E-01 9.52941E-31
9.90814E-01 8.71461E-31
9.91627E-01 7.93706E-31
9.92404E-01 7.19662E-31
9.93143E-01 6.49315E-31
9.93844E-01 5.82652E-31
9.94508E-01 5.19662E-31
9.95134E-01 4.60332E-31
9.95722E-01 4.04652E-31
9.96273E-01 3.52612E-31
9.96786E-01 3.04201E-31
9.97261E-01 2.59412E-31
9.97698E-01 2.18236E-31
9.98097E-01 1.80666E-31
9.98459E-01 1.46694E-31
9.98782E-01 1.16315E-31
9.99067E-01 8.95231E-32
9.99315E-01 6.63133E-32
9.99524E-01 4.66813E-32
9.99695E-01 3.06236E-32
9.99829E-01 1.81374E-32
9.99924E-01 9.22024E-33
9.99981E-01 3.87063E-33
1.00000E+00 2.08756E-33
