 #
 # Subroutine ELSEPA. Elastic scattering of electrons and positrons
 #                    by neutral atoms and positive ions
 #
 # Projectile: electron
 # Kinetic energy = 2.50000E+07 eV = 9.18733E+05 a.u.
 #
 # WARNING: High-energy factorization with free-atom DF screening.
 #          Absorption, polarization and exchange corrections are
 #          switched off.
 #          Phase shifts are calculated for the bare nucleus.
 #          Scattering amplitudes are not evaluated.
 #
 # Element: La,  Z =  57,  atomic weight = 1.38905E+02 g/mol
 #
 # Nuclear model: Fermi distribution
 #                Average radius = 5.54145E-13 cm
 #                Skin thickness = 5.46000E-14 cm
 #
 # Number of electrons = 57
 #
 # Total elastic cross section = 7.53608E-18 cm**2 = 2.69118E-01 a0**2
 # 1st transport cross section = 9.55291E-24 cm**2 = 3.41141E-07 a0**2
 # 2nd transport cross section = 2.73750E-23 cm**2 = 9.77579E-07 a0**2
 #
 #
 # Differential cross section:                       MU=(1-COS(THETA))/2
 #
 #  THETA        MU          DCS          DCS        Sherman      error
 #  (deg)                 (cm**2/sr)   (a0**2/sr)    function
 #----------------------------------------------------------------------
0.00000E+00 7.65980E-11
7.61557E-13 7.65719E-11
1.18994E-12 7.65573E-11
1.71346E-12 7.65394E-11
2.33225E-12 7.65184E-11
3.04617E-12 7.64941E-11
3.85530E-12 7.64665E-11
4.75964E-12 7.64358E-11
5.75917E-12 7.64019E-11
6.85391E-12 7.63647E-11
8.04379E-12 7.63244E-11
9.32893E-12 7.62809E-11
1.07092E-11 7.62342E-11
1.21847E-11 7.61843E-11
1.37554E-11 7.61313E-11
1.54213E-11 7.60751E-11
1.71823E-11 7.60158E-11
1.90386E-11 7.59534E-11
2.09900E-11 7.58878E-11
2.30367E-11 7.58192E-11
2.51785E-11 7.57475E-11
2.74156E-11 7.56727E-11
2.97478E-11 7.55948E-11
3.21752E-11 7.55140E-11
3.46979E-11 7.54301E-11
3.73157E-11 7.53431E-11
4.00286E-11 7.52532E-11
4.28368E-11 7.51603E-11
4.57402E-11 7.50645E-11
4.87388E-11 7.49657E-11
5.18325E-11 7.48641E-11
5.50215E-11 7.47595E-11
5.83057E-11 7.46520E-11
6.16850E-11 7.45417E-11
6.51595E-11 7.44285E-11
6.87293E-11 7.43126E-11
7.23943E-11 7.41938E-11
7.61544E-11 7.40723E-11
1.18991E-10 7.27101E-11
1.71347E-10 7.10991E-11
2.33223E-10 6.92681E-11
3.04617E-10 6.72484E-11
3.85531E-10 6.50801E-11
4.75965E-10 6.27858E-11
5.75917E-10 6.03905E-11
6.85389E-10 5.79505E-11
8.04380E-10 5.54568E-11
9.32891E-10 5.29867E-11
1.07092E-09 5.05026E-11
1.21847E-09 4.80907E-11
1.37554E-09 4.57042E-11
1.54213E-09 4.34104E-11
1.71823E-09 4.11776E-11
1.90386E-09 3.90448E-11
2.09900E-09 3.69983E-11
2.30367E-09 3.50499E-11
2.51785E-09 3.32033E-11
2.74156E-09 3.14470E-11
2.97478E-09 2.97997E-11
3.21752E-09 2.82325E-11
3.46978E-09 2.67744E-11
3.73156E-09 2.53857E-11
4.00286E-09 2.41014E-11
4.28368E-09 2.28803E-11
4.57402E-09 2.17478E-11
4.87388E-09 2.06768E-11
5.18326E-09 1.96785E-11
5.50215E-09 1.87388E-11
5.83057E-09 1.78588E-11
6.16850E-09 1.70327E-11
6.51596E-09 1.62561E-11
6.87293E-09 1.55278E-11
7.23942E-09 1.48411E-11
7.61544E-09 1.41967E-11
1.18991E-08 9.41436E-12
1.71347E-08 6.53557E-12
2.33223E-08 4.67387E-12
3.04617E-08 3.42046E-12
3.85531E-08 2.54009E-12
4.75965E-08 1.93059E-12
5.75917E-08 1.50733E-12
6.85389E-08 1.18620E-12
8.04380E-08 9.55838E-13
9.32891E-08 7.73018E-13
1.07092E-07 6.37658E-13
1.21847E-07 5.26473E-13
1.37554E-07 4.41068E-13
1.54213E-07 3.70301E-13
1.71823E-07 3.13834E-13
1.90386E-07 2.66988E-13
2.09900E-07 2.28499E-13
2.30367E-07 1.96575E-13
2.51785E-07 1.69803E-13
2.74156E-07 1.47545E-13
2.97478E-07 1.28622E-13
3.21752E-07 1.12801E-13
3.46978E-07 9.92175E-14
3.73156E-07 8.77694E-14
4.00286E-07 7.78592E-14
4.28368E-07 6.94172E-14
4.57402E-07 6.20767E-14
4.87388E-07 5.57463E-14
5.18325E-07 5.02118E-14
5.50215E-07 4.53852E-14
5.83057E-07 4.11396E-14
6.16850E-07 3.73986E-14
6.51596E-07 3.40893E-14
6.87293E-07 3.11441E-14
7.23942E-07 2.85267E-14
7.61543E-07 2.61745E-14
1.18991E-06 1.21486E-14
1.71347E-06 6.34092E-15
2.33223E-06 3.59387E-15
3.04617E-06 2.18176E-15
3.85531E-06 1.39946E-15
4.75964E-06 9.40266E-16
5.75916E-06 6.55620E-16
6.85388E-06 4.71354E-16
8.04378E-06 3.47529E-16
9.32888E-06 2.61827E-16
1.07092E-05 2.00975E-16
1.21846E-05 1.56796E-16
1.37553E-05 1.24092E-16
1.54212E-05 9.94686E-17
1.71822E-05 8.06403E-17
1.90385E-05 6.60258E-17
2.09899E-05 5.46122E-17
2.30365E-05 4.55527E-17
2.51783E-05 3.82863E-17
2.74153E-05 3.24053E-17
2.97475E-05 2.76070E-17
3.21749E-05 2.36635E-17
3.46974E-05 2.04009E-17
3.73152E-05 1.76836E-17
4.00281E-05 1.54055E-17
4.28362E-05 1.34836E-17
4.57395E-05 1.18524E-17
4.87380E-05 1.04602E-17
5.18317E-05 9.26619E-18
5.50205E-05 8.23759E-18
5.83045E-05 7.34783E-18
6.16838E-05 6.57521E-18
6.51582E-05 5.90182E-18
6.87277E-05 5.31271E-18
7.23925E-05 4.79554E-18
7.61524E-05 4.34033E-18
9.21439E-05 2.97981E-18
1.09658E-04 2.11328E-18
1.28695E-04 1.54043E-18
1.49255E-04 1.14922E-18
1.71338E-04 8.74806E-19
1.94942E-04 6.77653E-19
2.20070E-04 5.33077E-19
2.46720E-04 4.25109E-19
2.74892E-04 3.43154E-19
3.04586E-04 2.80050E-19
3.35803E-04 2.30815E-19
3.68542E-04 1.91950E-19
4.02802E-04 1.60940E-19
4.38585E-04 1.35952E-19
4.75889E-04 1.15637E-19
5.14715E-04 9.89836E-20
5.55063E-04 8.52273E-20
5.96931E-04 7.37832E-20
6.40321E-04 6.42003E-20
6.85233E-04 5.61265E-20
7.31665E-04 4.92852E-20
7.79618E-04 4.34573E-20
8.29092E-04 3.84677E-20
8.80086E-04 3.41757E-20
9.32601E-04 3.04673E-20
9.86636E-04 2.72498E-20
1.04219E-03 2.44472E-20
1.09927E-03 2.19967E-20
1.15786E-03 1.98465E-20
1.21797E-03 1.79536E-20
1.27961E-03 1.62817E-20
1.34276E-03 1.48007E-20
1.40743E-03 1.34848E-20
1.47362E-03 1.23124E-20
1.54133E-03 1.12652E-20
1.61056E-03 1.03274E-20
1.68131E-03 9.48560E-21
1.75357E-03 8.72814E-21
1.82735E-03 8.04511E-21
1.90265E-03 7.42788E-21
1.97947E-03 6.86899E-21
2.05780E-03 6.36191E-21
2.13765E-03 5.90098E-21
2.21902E-03 5.48124E-21
2.30190E-03 5.09834E-21
2.38630E-03 4.74846E-21
2.47222E-03 4.42823E-21
2.55965E-03 4.13469E-21
2.64859E-03 3.86520E-21
2.73905E-03 3.61742E-21
2.83103E-03 3.38930E-21
2.92452E-03 3.17897E-21
3.01952E-03 2.98480E-21
3.11604E-03 2.80531E-21
3.21407E-03 2.63920E-21
3.31362E-03 2.48527E-21
3.41468E-03 2.34247E-21
3.51725E-03 2.20985E-21
3.62133E-03 2.08653E-21
3.72692E-03 1.97176E-21
3.83403E-03 1.86482E-21
3.94265E-03 1.76508E-21
4.05278E-03 1.67196E-21
4.16442E-03 1.58495E-21
4.27757E-03 1.50356E-21
4.39223E-03 1.42737E-21
4.50840E-03 1.35597E-21
4.62608E-03 1.28902E-21
4.74527E-03 1.22618E-21
4.86597E-03 1.16715E-21
4.98817E-03 1.11165E-21
5.11188E-03 1.05944E-21
5.23711E-03 1.01029E-21
5.36383E-03 9.63968E-22
5.49207E-03 9.20295E-22
5.62181E-03 8.79087E-22
5.75306E-03 8.40180E-22
5.88581E-03 8.03419E-22
6.02007E-03 7.68662E-22
6.15583E-03 7.35780E-22
6.29310E-03 7.04652E-22
6.43187E-03 6.75166E-22
6.57214E-03 6.47220E-22
6.71392E-03 6.20718E-22
6.85720E-03 5.95571E-22
7.00198E-03 5.71695E-22
7.14827E-03 5.49013E-22
7.29605E-03 5.27456E-22
7.44534E-03 5.06955E-22
7.59612E-03 4.87450E-22
7.97965E-03 4.42674E-22
8.37255E-03 4.02965E-22
8.77480E-03 3.67650E-22
9.18641E-03 3.36154E-22
9.60736E-03 3.07990E-22
1.00376E-02 2.82742E-22
1.04773E-02 2.60053E-22
1.09262E-02 2.39615E-22
1.13844E-02 2.21166E-22
1.18520E-02 2.04476E-22
1.23288E-02 1.89346E-22
1.28150E-02 1.75605E-22
1.33104E-02 1.63099E-22
1.38150E-02 1.51699E-22
1.43290E-02 1.41287E-22
1.48521E-02 1.31763E-22
1.53845E-02 1.23036E-22
1.59262E-02 1.15027E-22
1.64770E-02 1.07666E-22
1.70371E-02 1.00891E-22
1.76063E-02 9.46459E-23
1.81848E-02 8.88818E-23
1.87724E-02 8.35543E-23
1.93692E-02 7.86244E-23
1.99751E-02 7.40564E-23
2.05901E-02 6.98190E-23
2.12143E-02 6.58835E-23
2.18476E-02 6.22243E-23
2.24900E-02 5.88183E-23
2.31415E-02 5.56446E-23
2.38021E-02 5.26843E-23
2.44717E-02 4.99203E-23
2.51504E-02 4.73370E-23
2.58382E-02 4.49204E-23
2.65349E-02 4.26576E-23
2.72407E-02 4.05369E-23
2.79555E-02 3.85477E-23
2.86793E-02 3.66801E-23
2.94120E-02 3.49255E-23
3.01537E-02 3.32755E-23
3.09043E-02 3.17227E-23
3.16639E-02 3.02603E-23
3.24324E-02 2.88820E-23
3.32098E-02 2.75819E-23
3.39961E-02 2.63549E-23
3.47912E-02 2.51959E-23
3.55952E-02 2.41003E-23
3.64081E-02 2.30642E-23
3.72297E-02 2.20836E-23
3.80602E-02 2.11549E-23
3.88995E-02 2.02750E-23
3.97476E-02 1.94407E-23
4.06044E-02 1.86491E-23
4.14700E-02 1.78978E-23
4.23443E-02 1.71841E-23
4.32273E-02 1.65059E-23
4.41190E-02 1.58610E-23
4.50194E-02 1.52476E-23
4.59284E-02 1.46636E-23
4.68461E-02 1.41076E-23
4.87074E-02 1.30727E-23
5.06030E-02 1.21314E-23
5.25328E-02 1.12737E-23
5.44967E-02 1.04907E-23
5.64946E-02 9.77472E-24
5.85262E-02 9.11894E-24
6.05914E-02 8.51734E-24
6.26901E-02 7.96460E-24
6.48222E-02 7.45599E-24
6.69873E-02 6.98733E-24
6.91854E-02 6.55489E-24
7.14163E-02 6.15533E-24
7.36799E-02 5.78569E-24
7.59760E-02 5.44329E-24
7.83043E-02 5.12576E-24
8.06647E-02 4.83093E-24
8.30571E-02 4.55689E-24
8.54812E-02 4.30188E-24
8.79369E-02 4.06434E-24
9.04240E-02 3.84283E-24
9.29422E-02 3.63609E-24
9.54915E-02 3.44292E-24
9.80716E-02 3.26228E-24
1.00682E-01 3.09320E-24
1.03323E-01 2.93479E-24
1.05995E-01 2.78627E-24
1.08696E-01 2.64688E-24
1.11427E-01 2.51598E-24
1.14188E-01 2.39294E-24
1.16978E-01 2.27720E-24
1.19797E-01 2.16825E-24
1.22645E-01 2.06561E-24
1.25522E-01 1.96885E-24
1.28428E-01 1.87758E-24
1.31361E-01 1.79142E-24
1.34323E-01 1.71003E-24
1.37313E-01 1.63310E-24
1.40330E-01 1.56034E-24
1.43375E-01 1.49149E-24
1.46447E-01 1.42629E-24
1.49545E-01 1.36451E-24
1.52671E-01 1.30594E-24
1.55823E-01 1.25039E-24
1.59001E-01 1.19767E-24
1.62205E-01 1.14761E-24
1.65435E-01 1.10005E-24
1.68690E-01 1.05485E-24
1.71970E-01 1.01186E-24
1.75276E-01 9.70960E-25
1.78606E-01 9.32028E-25
1.81961E-01 8.94953E-25
1.85340E-01 8.59630E-25
1.88743E-01 8.25962E-25
1.92169E-01 7.93857E-25
1.95619E-01 7.63231E-25
1.99092E-01 7.34002E-25
2.02589E-01 7.06096E-25
2.06107E-01 6.79443E-25
2.09649E-01 6.53976E-25
2.13212E-01 6.29634E-25
2.16797E-01 6.06358E-25
2.20404E-01 5.84093E-25
2.24032E-01 5.62789E-25
2.27680E-01 5.42396E-25
2.31350E-01 5.22868E-25
2.35040E-01 5.04163E-25
2.38751E-01 4.86241E-25
2.42481E-01 4.69062E-25
2.46231E-01 4.52592E-25
2.50000E-01 4.36795E-25
2.53788E-01 4.21639E-25
2.57595E-01 4.07095E-25
2.61421E-01 3.93134E-25
2.65264E-01 3.79728E-25
2.69126E-01 3.66851E-25
2.73005E-01 3.54480E-25
2.76901E-01 3.42591E-25
2.80814E-01 3.31162E-25
2.84744E-01 3.20173E-25
2.88691E-01 3.09604E-25
2.92653E-01 2.99436E-25
2.96632E-01 2.89652E-25
3.00625E-01 2.80235E-25
3.04634E-01 2.71169E-25
3.08658E-01 2.62439E-25
3.12697E-01 2.54030E-25
3.16749E-01 2.45929E-25
3.20816E-01 2.38123E-25
3.24896E-01 2.30599E-25
3.28990E-01 2.23346E-25
3.33097E-01 2.16353E-25
3.37216E-01 2.09608E-25
3.41348E-01 2.03101E-25
3.45492E-01 1.96824E-25
3.49647E-01 1.90766E-25
3.53814E-01 1.84918E-25
3.57992E-01 1.79273E-25
3.62181E-01 1.73823E-25
3.66381E-01 1.68559E-25
3.70590E-01 1.63474E-25
3.74810E-01 1.58561E-25
3.79039E-01 1.53815E-25
3.83277E-01 1.49227E-25
3.87524E-01 1.44793E-25
3.91780E-01 1.40505E-25
3.96044E-01 1.36360E-25
4.00316E-01 1.32351E-25
4.04596E-01 1.28473E-25
4.08882E-01 1.24721E-25
4.13176E-01 1.21092E-25
4.17476E-01 1.17579E-25
4.21783E-01 1.14179E-25
4.26095E-01 1.10888E-25
4.30413E-01 1.07702E-25
4.34737E-01 1.04617E-25
4.39065E-01 1.01629E-25
4.43398E-01 9.87350E-26
4.47736E-01 9.59316E-26
4.52077E-01 9.32156E-26
4.56422E-01 9.05839E-26
4.60770E-01 8.80335E-26
4.65122E-01 8.55615E-26
4.69476E-01 8.31653E-26
4.73832E-01 8.08423E-26
4.78190E-01 7.85898E-26
4.82550E-01 7.64056E-26
4.86912E-01 7.42872E-26
4.91274E-01 7.22325E-26
4.95637E-01 7.02392E-26
5.00000E-01 6.83054E-26
5.04363E-01 6.64290E-26
5.08726E-01 6.46081E-26
5.13088E-01 6.28409E-26
5.17450E-01 6.11256E-26
5.21810E-01 5.94605E-26
5.26168E-01 5.78439E-26
5.30524E-01 5.62743E-26
5.34878E-01 5.47501E-26
5.39230E-01 5.32700E-26
5.43578E-01 5.18323E-26
5.47923E-01 5.04359E-26
5.52264E-01 4.90793E-26
5.56602E-01 4.77613E-26
5.60935E-01 4.64807E-26
5.65263E-01 4.52363E-26
5.69587E-01 4.40270E-26
5.73905E-01 4.28516E-26
5.78217E-01 4.17092E-26
5.82524E-01 4.05986E-26
5.86824E-01 3.95189E-26
5.91118E-01 3.84692E-26
5.95404E-01 3.74484E-26
5.99684E-01 3.64559E-26
6.03956E-01 3.54906E-26
6.08220E-01 3.45517E-26
6.12476E-01 3.36385E-26
6.16723E-01 3.27501E-26
6.20961E-01 3.18859E-26
6.25190E-01 3.10451E-26
6.29410E-01 3.02270E-26
6.33619E-01 2.94309E-26
6.37819E-01 2.86562E-26
6.42008E-01 2.79022E-26
6.46186E-01 2.71684E-26
6.50353E-01 2.64541E-26
6.54508E-01 2.57588E-26
6.58652E-01 2.50819E-26
6.62784E-01 2.44229E-26
6.66903E-01 2.37813E-26
6.71010E-01 2.31565E-26
6.75104E-01 2.25481E-26
6.79184E-01 2.19557E-26
6.83251E-01 2.13786E-26
6.87303E-01 2.08167E-26
6.91342E-01 2.02693E-26
6.95366E-01 1.97360E-26
6.99375E-01 1.92166E-26
7.03368E-01 1.87106E-26
7.07347E-01 1.82175E-26
7.11309E-01 1.77372E-26
7.15256E-01 1.72691E-26
7.19186E-01 1.68130E-26
7.23099E-01 1.63686E-26
7.26995E-01 1.59354E-26
7.30874E-01 1.55132E-26
7.34736E-01 1.51018E-26
7.38579E-01 1.47007E-26
7.42405E-01 1.43098E-26
7.46212E-01 1.39287E-26
7.50000E-01 1.35573E-26
7.53769E-01 1.31951E-26
7.57519E-01 1.28420E-26
7.61249E-01 1.24977E-26
7.64960E-01 1.21621E-26
7.68650E-01 1.18348E-26
7.72320E-01 1.15156E-26
7.75968E-01 1.12044E-26
7.79596E-01 1.09009E-26
7.83203E-01 1.06049E-26
7.86788E-01 1.03162E-26
7.90351E-01 1.00347E-26
7.93893E-01 9.76006E-27
7.97411E-01 9.49221E-27
8.00908E-01 9.23096E-27
8.04381E-01 8.97612E-27
8.07831E-01 8.72754E-27
8.11257E-01 8.48504E-27
8.14660E-01 8.24848E-27
8.18039E-01 8.01771E-27
8.21394E-01 7.79257E-27
8.24724E-01 7.57293E-27
8.28030E-01 7.35865E-27
8.31310E-01 7.14959E-27
8.34565E-01 6.94562E-27
8.37795E-01 6.74661E-27
8.40999E-01 6.55244E-27
8.44177E-01 6.36300E-27
8.47329E-01 6.17816E-27
8.50455E-01 5.99781E-27
8.53553E-01 5.82184E-27
8.56625E-01 5.65014E-27
8.59670E-01 5.48262E-27
8.62687E-01 5.31916E-27
8.65677E-01 5.15968E-27
8.68639E-01 5.00407E-27
8.71572E-01 4.85224E-27
8.74478E-01 4.70410E-27
8.77355E-01 4.55957E-27
8.80203E-01 4.41856E-27
8.83022E-01 4.28098E-27
8.85812E-01 4.14676E-27
8.88573E-01 4.01582E-27
8.91304E-01 3.88807E-27
8.94005E-01 3.76346E-27
8.96677E-01 3.64190E-27
8.99318E-01 3.52333E-27
9.01928E-01 3.40767E-27
9.04508E-01 3.29487E-27
9.07058E-01 3.18485E-27
9.09576E-01 3.07756E-27
9.12063E-01 2.97293E-27
9.14519E-01 2.87091E-27
9.16943E-01 2.77144E-27
9.19335E-01 2.67445E-27
9.21696E-01 2.57991E-27
9.24024E-01 2.48775E-27
9.26320E-01 2.39793E-27
9.28584E-01 2.31039E-27
9.30815E-01 2.22508E-27
9.33013E-01 2.14197E-27
9.35178E-01 2.06100E-27
9.37310E-01 1.98213E-27
9.39409E-01 1.90531E-27
9.41474E-01 1.83051E-27
9.43505E-01 1.75769E-27
9.45503E-01 1.68679E-27
9.47467E-01 1.61780E-27
9.49397E-01 1.55067E-27
9.51293E-01 1.48535E-27
9.53154E-01 1.42183E-27
9.54981E-01 1.36006E-27
9.56773E-01 1.30001E-27
9.58530E-01 1.24166E-27
9.60252E-01 1.18496E-27
9.61940E-01 1.12989E-27
9.63592E-01 1.07642E-27
9.65209E-01 1.02452E-27
9.66790E-01 9.74167E-28
9.68336E-01 9.25331E-28
9.69846E-01 8.77988E-28
9.71321E-01 8.32112E-28
9.72759E-01 7.87681E-28
9.74162E-01 7.44670E-28
9.75528E-01 7.03057E-28
9.76858E-01 6.62822E-28
9.78152E-01 6.23943E-28
9.79410E-01 5.86400E-28
9.80631E-01 5.50174E-28
9.81815E-01 5.15246E-28
9.82963E-01 4.81598E-28
9.84074E-01 4.49213E-28
9.85148E-01 4.18075E-28
9.86185E-01 3.88167E-28
9.87185E-01 3.59474E-28
9.88148E-01 3.31983E-28
9.89074E-01 3.05678E-28
9.89962E-01 2.80546E-28
9.90814E-01 2.56575E-28
9.91627E-01 2.33752E-28
9.92404E-01 2.12067E-28
9.93143E-01 1.91507E-28
9.93844E-01 1.72063E-28
9.94508E-01 1.53725E-28
9.95134E-01 1.36483E-28
9.95722E-01 1.20329E-28
9.96273E-01 1.05255E-28
9.96786E-01 9.12532E-29
9.97261E-01 7.83164E-29
9.97698E-01 6.64382E-29
9.98097E-01 5.56128E-29
9.98459E-01 4.58346E-29
9.98782E-01 3.70988E-29
9.99067E-01 2.94009E-29
9.99315E-01 2.27373E-29
9.99524E-01 1.71044E-29
9.99695E-01 1.24995E-29
9.99829E-01 8.92032E-30
9.99924E-01 6.36504E-30
9.99981E-01 4.83238E-30
1.00000E+00 4.32156E-30
