 #
 # Subroutine ELSEPA. Elastic scattering of electrons and positrons
 #                    by neutral atoms and positive ions
 #
 # Projectile: electron
 # Kinetic energy = 3.00000E+08 eV = 1.10248E+07 a.u.
 #
 # WARNING: High-energy factorization with free-atom DF screening.
 #          Absorption, polarization and exchange corrections are
 #          switched off.
 #          Phase shifts are calculated for the bare nucleus.
 #          Scattering amplitudes are not evaluated.
 #
 # Element: La,  Z =  57,  atomic weight = 1.38905E+02 g/mol
 #
 # Nuclear model: Fermi distribution
 #                Average radius = 5.54145E-13 cm
 #                Skin thickness = 5.46000E-14 cm
 #
 # Number of electrons = 57
 #
 # Total elastic cross section = 7.52942E-18 cm**2 = 2.68880E-01 a0**2
 # 1st transport cross section = 7.02414E-26 cm**2 = 2.50837E-09 a0**2
 # 2nd transport cross section = 2.10506E-25 cm**2 = 7.51731E-09 a0**2
 #
 #
 # Differential cross section:                       MU=(1-COS(THETA))/2
 #
 #  THETA        MU          DCS          DCS        Sherman      error
 #  (deg)                 (cm**2/sr)   (a0**2/sr)    function
 #----------------------------------------------------------------------
0.00000E+00 1.06288E-08
7.61557E-13 1.01472E-08
1.18994E-12 9.89156E-09
1.71346E-12 9.59297E-09
2.33225E-12 9.25844E-09
3.04617E-12 8.89711E-09
3.85530E-12 8.51189E-09
4.75964E-12 8.11573E-09
5.75917E-12 7.70861E-09
6.85391E-12 7.30463E-09
8.04379E-12 6.90106E-09
9.32893E-12 6.50855E-09
1.07092E-11 6.12623E-09
1.21847E-11 5.75929E-09
1.37554E-11 5.40923E-09
1.54213E-11 5.07591E-09
1.71823E-11 4.76336E-09
1.90386E-11 4.46695E-09
2.09900E-11 4.19284E-09
2.30367E-11 3.93390E-09
2.51785E-11 3.69563E-09
2.74156E-11 3.47216E-09
2.97478E-11 3.26599E-09
3.21752E-11 3.07409E-09
3.46979E-11 2.89640E-09
3.73157E-11 2.73184E-09
4.00286E-11 2.57886E-09
4.28368E-11 2.43757E-09
4.57402E-11 2.30573E-09
4.87388E-11 2.18400E-09
5.18325E-11 2.07023E-09
5.50215E-11 1.96470E-09
5.83057E-11 1.86608E-09
6.16850E-11 1.77415E-09
6.51595E-11 1.68817E-09
6.87293E-11 1.60773E-09
7.23943E-11 1.53230E-09
7.61544E-11 1.46158E-09
1.18991E-10 9.41959E-10
1.71347E-10 6.34225E-10
2.33223E-10 4.40678E-10
3.04617E-10 3.12179E-10
3.85531E-10 2.30761E-10
4.75965E-10 1.72992E-10
5.75917E-10 1.33789E-10
6.85389E-10 1.04303E-10
8.04380E-10 8.31635E-11
9.32891E-10 6.67861E-11
1.07092E-09 5.43696E-11
1.21847E-09 4.45861E-11
1.37554E-09 3.68610E-11
1.54213E-09 3.07251E-11
1.71823E-09 2.57443E-11
1.90386E-09 2.17631E-11
2.09900E-09 1.84709E-11
2.30367E-09 1.58105E-11
2.51785E-09 1.35928E-11
2.74156E-09 1.17701E-11
2.97478E-09 1.02430E-11
3.21752E-09 8.96585E-12
3.46978E-09 7.88728E-12
3.73156E-09 6.97118E-12
4.00286E-09 6.19067E-12
4.28368E-09 5.51804E-12
4.57402E-09 4.94020E-12
4.87388E-09 4.43525E-12
5.18326E-09 3.99750E-12
5.50215E-09 3.61164E-12
5.83057E-09 3.27364E-12
6.16850E-09 2.97442E-12
6.51596E-09 2.70867E-12
6.87293E-09 2.47157E-12
7.23942E-09 2.25951E-12
7.61544E-09 2.07031E-12
1.18991E-08 9.39405E-13
1.71347E-08 4.80246E-13
2.33223E-08 2.69630E-13
3.04617E-08 1.62948E-13
3.85531E-08 1.04351E-13
4.75965E-08 6.99749E-14
5.75917E-08 4.86912E-14
6.85389E-08 3.49080E-14
8.04380E-08 2.56753E-14
9.32891E-08 1.92966E-14
1.07092E-07 1.47752E-14
1.21847E-07 1.15019E-14
1.37554E-07 9.08359E-15
1.54213E-07 7.26744E-15
1.71823E-07 5.88274E-15
1.90386E-07 4.81166E-15
2.09900E-07 3.97350E-15
2.30367E-07 3.30997E-15
2.51785E-07 2.77918E-15
2.74156E-07 2.35067E-15
2.97478E-07 2.00161E-15
3.21752E-07 1.71501E-15
3.46978E-07 1.47796E-15
3.73156E-07 1.28047E-15
4.00286E-07 1.11492E-15
4.28368E-07 9.75307E-16
4.57402E-07 8.56878E-16
4.87388E-07 7.55911E-16
5.18325E-07 6.69394E-16
5.50215E-07 5.94914E-16
5.83057E-07 5.30521E-16
6.16850E-07 4.74610E-16
6.51596E-07 4.25879E-16
6.87293E-07 3.83250E-16
7.23942E-07 3.45823E-16
7.61543E-07 3.12859E-16
1.18991E-06 1.29257E-16
1.71347E-06 6.26865E-17
2.33223E-06 3.39654E-17
3.04617E-06 1.99628E-17
3.85531E-06 1.24867E-17
4.75964E-06 8.20439E-18
5.75916E-06 5.60997E-18
6.85388E-06 3.96455E-18
8.04378E-06 2.88047E-18
9.32888E-06 2.14284E-18
1.07092E-05 1.62692E-18
1.21846E-05 1.25734E-18
1.37553E-05 9.86990E-19
1.54212E-05 7.85560E-19
1.71822E-05 6.32997E-19
1.90385E-05 5.15552E-19
2.09899E-05 4.24451E-19
2.30365E-05 3.52579E-19
2.51783E-05 2.95244E-19
2.74153E-05 2.49062E-19
2.97475E-05 2.11547E-19
3.21749E-05 1.80836E-19
3.46974E-05 1.55513E-19
3.73152E-05 1.34487E-19
4.00281E-05 1.16908E-19
4.28362E-05 1.02116E-19
4.57395E-05 8.95923E-20
4.87380E-05 7.89282E-20
5.18317E-05 6.98013E-20
5.50205E-05 6.19538E-20
5.83045E-05 5.51782E-20
6.16838E-05 4.93046E-20
6.51582E-05 4.41940E-20
6.87277E-05 3.97304E-20
7.23925E-05 3.58177E-20
7.61524E-05 3.25216E-20
9.21439E-05 2.22422E-20
1.09658E-04 1.57235E-20
1.28695E-04 1.14298E-20
1.49255E-04 8.50687E-21
1.71338E-04 6.46218E-21
1.94942E-04 4.99661E-21
2.20070E-04 3.92405E-21
2.46720E-04 3.12450E-21
2.74892E-04 2.51845E-21
3.04586E-04 2.05243E-21
3.35803E-04 1.68926E-21
3.68542E-04 1.40288E-21
4.02802E-04 1.17459E-21
4.38585E-04 9.90801E-22
4.75889E-04 8.41497E-22
5.14715E-04 7.19189E-22
5.55063E-04 6.18232E-22
5.96931E-04 5.34301E-22
6.40321E-04 4.64067E-22
6.85233E-04 4.04934E-22
7.31665E-04 3.54862E-22
7.79618E-04 3.12237E-22
8.29092E-04 2.75769E-22
8.80086E-04 2.44423E-22
9.32601E-04 2.17361E-22
9.86636E-04 1.93901E-22
1.04219E-03 1.73483E-22
1.09927E-03 1.55647E-22
1.15786E-03 1.40012E-22
1.21797E-03 1.26262E-22
1.27961E-03 1.14130E-22
1.34276E-03 1.03396E-22
1.40743E-03 9.38695E-23
1.47362E-03 8.53935E-23
1.54133E-03 7.78323E-23
1.61056E-03 7.10706E-23
1.68131E-03 6.50097E-23
1.75357E-03 5.95648E-23
1.82735E-03 5.46629E-23
1.90265E-03 5.02408E-23
1.97947E-03 4.62437E-23
2.05780E-03 4.26239E-23
2.13765E-03 3.93399E-23
2.21902E-03 3.63554E-23
2.30190E-03 3.36386E-23
2.38630E-03 3.11615E-23
2.47222E-03 2.88995E-23
2.55965E-03 2.68308E-23
2.64859E-03 2.49362E-23
2.73905E-03 2.31987E-23
2.83103E-03 2.16032E-23
2.92452E-03 2.01361E-23
3.01952E-03 1.87855E-23
3.11604E-03 1.75407E-23
3.21407E-03 1.63920E-23
3.31362E-03 1.53308E-23
3.41468E-03 1.43494E-23
3.51725E-03 1.34409E-23
3.62133E-03 1.25990E-23
3.72692E-03 1.18181E-23
3.83403E-03 1.10931E-23
3.94265E-03 1.04193E-23
4.05278E-03 9.79260E-24
4.16442E-03 9.20919E-24
4.27757E-03 8.66563E-24
4.39223E-03 8.15880E-24
4.50840E-03 7.68583E-24
4.62608E-03 7.24415E-24
4.74527E-03 6.83136E-24
4.86597E-03 6.44531E-24
4.98817E-03 6.08402E-24
5.11188E-03 5.74566E-24
5.23711E-03 5.42859E-24
5.36383E-03 5.13126E-24
5.49207E-03 4.85228E-24
5.62181E-03 4.59036E-24
5.75306E-03 4.34431E-24
5.88581E-03 4.11304E-24
6.02007E-03 3.89554E-24
6.15583E-03 3.69089E-24
6.29310E-03 3.49822E-24
6.43187E-03 3.31674E-24
6.57214E-03 3.14571E-24
6.71392E-03 2.98447E-24
6.85720E-03 2.83236E-24
7.00198E-03 2.68882E-24
7.14827E-03 2.55331E-24
7.29605E-03 2.42531E-24
7.44534E-03 2.30436E-24
7.59612E-03 2.19002E-24
7.97965E-03 1.93053E-24
8.37255E-03 1.70433E-24
8.77480E-03 1.50671E-24
9.18641E-03 1.33370E-24
9.60736E-03 1.18194E-24
1.00376E-02 1.04858E-24
1.04773E-02 9.31190E-25
1.09262E-02 8.27694E-25
1.13844E-02 7.36312E-25
1.18520E-02 6.55515E-25
1.23288E-02 5.83985E-25
1.28150E-02 5.20584E-25
1.33104E-02 4.64325E-25
1.38150E-02 4.14352E-25
1.43290E-02 3.69920E-25
1.48521E-02 3.30380E-25
1.53845E-02 2.95166E-25
1.59262E-02 2.63779E-25
1.64770E-02 2.35787E-25
1.70371E-02 2.10805E-25
1.76063E-02 1.88498E-25
1.81848E-02 1.68569E-25
1.87724E-02 1.50757E-25
1.93692E-02 1.34831E-25
1.99751E-02 1.20587E-25
2.05901E-02 1.07842E-25
2.12143E-02 9.64372E-26
2.18476E-02 8.62290E-26
2.24900E-02 7.70905E-26
2.31415E-02 6.89089E-26
2.38021E-02 6.15837E-26
2.44717E-02 5.50250E-26
2.51504E-02 4.91528E-26
2.58382E-02 4.38958E-26
2.65349E-02 3.91898E-26
2.72407E-02 3.49780E-26
2.79555E-02 3.12090E-26
2.86793E-02 2.78370E-26
2.94120E-02 2.48212E-26
3.01537E-02 2.21246E-26
3.09043E-02 1.97144E-26
3.16639E-02 1.75608E-26
3.24324E-02 1.56375E-26
3.32098E-02 1.39205E-26
3.39961E-02 1.23884E-26
3.47912E-02 1.10220E-26
3.55952E-02 9.80415E-27
3.64081E-02 8.71921E-27
3.72297E-02 7.75329E-27
3.80602E-02 6.89389E-27
3.88995E-02 6.12975E-27
3.97476E-02 5.45077E-27
4.06044E-02 4.84789E-27
4.14700E-02 4.31296E-27
4.23443E-02 3.83867E-27
4.32273E-02 3.41845E-27
4.41190E-02 3.04642E-27
4.50194E-02 2.71729E-27
4.59284E-02 2.42632E-27
4.68461E-02 2.16928E-27
4.87074E-02 1.74215E-27
5.06030E-02 1.41005E-27
5.25328E-02 1.15229E-27
5.44967E-02 9.52440E-28
5.64946E-02 7.97417E-28
5.85262E-02 6.76905E-28
6.05914E-02 5.82789E-28
6.26901E-02 5.08726E-28
6.48222E-02 4.49790E-28
6.69873E-02 4.02186E-28
6.91854E-02 3.63017E-28
7.14163E-02 3.30090E-28
7.36799E-02 3.01769E-28
7.59760E-02 2.76849E-28
7.83043E-02 2.54459E-28
8.06647E-02 2.33979E-28
8.30571E-02 2.14984E-28
8.54812E-02 1.97187E-28
8.79369E-02 1.80408E-28
9.04240E-02 1.64537E-28
9.29422E-02 1.49514E-28
9.54915E-02 1.35313E-28
9.80716E-02 1.21926E-28
1.00682E-01 1.09354E-28
1.03323E-01 9.76027E-29
1.05995E-01 8.66748E-29
1.08696E-01 7.65694E-29
1.11427E-01 6.72793E-29
1.14188E-01 5.87906E-29
1.16978E-01 5.10824E-29
1.19797E-01 4.41279E-29
1.22645E-01 3.78941E-29
1.25522E-01 3.23437E-29
1.28428E-01 2.74356E-29
1.31361E-01 2.31260E-29
1.34323E-01 1.93694E-29
1.37313E-01 1.61197E-29
1.40330E-01 1.33305E-29
1.43375E-01 1.09567E-29
1.46447E-01 8.95400E-30
1.49545E-01 7.28042E-30
1.52671E-01 5.89607E-30
1.55823E-01 4.76363E-30
1.59001E-01 3.84856E-30
1.62205E-01 3.11919E-30
1.65435E-01 2.54677E-30
1.68690E-01 2.10544E-30
1.71970E-01 1.77218E-30
1.75276E-01 1.52672E-30
1.78606E-01 1.35134E-30
1.81961E-01 1.23078E-30
1.85340E-01 1.15201E-30
1.88743E-01 1.10406E-30
1.92169E-01 1.07783E-30
1.95619E-01 1.06587E-30
1.99092E-01 1.06222E-30
2.02589E-01 1.06221E-30
2.06107E-01 1.06231E-30
2.09649E-01 1.05992E-30
2.13212E-01 1.05325E-30
2.16797E-01 1.04120E-30
2.20404E-01 1.02320E-30
2.24032E-01 9.99112E-31
2.27680E-01 9.69144E-31
2.31350E-01 9.33750E-31
2.35040E-01 8.93564E-31
2.38751E-01 8.49335E-31
2.42481E-01 8.01879E-31
2.46231E-01 7.52035E-31
2.50000E-01 7.00630E-31
2.53788E-01 6.48456E-31
2.57595E-01 5.96247E-31
2.61421E-01 5.44669E-31
2.65264E-01 4.94308E-31
2.69126E-01 4.45666E-31
2.73005E-01 3.99162E-31
2.76901E-01 3.55128E-31
2.80814E-01 3.13818E-31
2.84744E-01 2.75410E-31
2.88691E-01 2.40014E-31
2.92653E-01 2.07675E-31
2.96632E-01 1.78386E-31
3.00625E-01 1.52093E-31
3.04634E-01 1.28701E-31
3.08658E-01 1.08082E-31
3.12697E-01 9.00849E-32
3.16749E-01 7.45380E-32
3.20816E-01 6.12565E-32
3.24896E-01 5.00480E-32
3.28990E-01 4.07162E-32
3.33097E-01 3.30658E-32
3.37216E-01 2.69050E-32
3.41348E-01 2.20491E-32
3.45492E-01 1.83220E-32
3.49647E-01 1.55583E-32
3.53814E-01 1.36045E-32
3.57992E-01 1.23197E-32
3.62181E-01 1.15762E-32
3.66381E-01 1.12594E-32
3.70590E-01 1.12682E-32
3.74810E-01 1.15139E-32
3.79039E-01 1.19202E-32
3.83277E-01 1.24223E-32
3.87524E-01 1.29665E-32
3.91780E-01 1.35086E-32
3.96044E-01 1.40136E-32
4.00316E-01 1.44548E-32
4.04596E-01 1.48125E-32
4.08882E-01 1.50733E-32
4.13176E-01 1.52293E-32
4.17476E-01 1.52772E-32
4.21783E-01 1.52174E-32
4.26095E-01 1.50536E-32
4.30413E-01 1.47919E-32
4.34737E-01 1.44403E-32
4.39065E-01 1.40080E-32
4.43398E-01 1.35052E-32
4.47736E-01 1.29427E-32
4.52077E-01 1.23314E-32
4.56422E-01 1.16819E-32
4.60770E-01 1.10047E-32
4.65122E-01 1.03096E-32
4.69476E-01 9.60583E-33
4.73832E-01 8.90174E-33
4.78190E-01 8.20489E-33
4.82550E-01 7.52195E-33
4.86912E-01 6.85866E-33
4.91274E-01 6.21991E-33
4.95637E-01 5.60968E-33
5.00000E-01 5.03116E-33
5.04363E-01 4.48672E-33
5.08726E-01 3.97804E-33
5.13088E-01 3.50612E-33
5.17450E-01 3.07137E-33
5.21810E-01 2.67368E-33
5.26168E-01 2.31249E-33
5.30524E-01 1.98684E-33
5.34878E-01 1.69544E-33
5.39230E-01 1.43675E-33
5.43578E-01 1.20900E-33
5.47923E-01 1.01028E-33
5.52264E-01 8.38570E-34
5.56602E-01 6.91783E-34
5.60935E-01 5.67803E-34
5.65263E-01 4.64523E-34
5.69587E-01 3.79869E-34
5.73905E-01 3.11825E-34
5.78217E-01 2.58456E-34
5.82524E-01 2.17917E-34
5.86824E-01 1.88473E-34
5.91118E-01 1.68502E-34
5.95404E-01 1.56504E-34
5.99684E-01 1.51102E-34
6.03956E-01 1.51046E-34
6.08220E-01 1.55207E-34
6.12476E-01 1.62582E-34
6.16723E-01 1.72282E-34
6.20961E-01 1.83532E-34
6.25190E-01 1.95662E-34
6.29410E-01 2.08102E-34
6.33619E-01 2.20375E-34
6.37819E-01 2.32089E-34
6.42008E-01 2.42930E-34
6.46186E-01 2.52652E-34
6.50353E-01 2.61073E-34
6.54508E-01 2.68068E-34
6.58652E-01 2.73557E-34
6.62784E-01 2.77504E-34
6.66903E-01 2.79909E-34
6.71010E-01 2.80803E-34
6.75104E-01 2.80239E-34
6.79184E-01 2.78292E-34
6.83251E-01 2.75053E-34
6.87303E-01 2.70622E-34
6.91342E-01 2.65111E-34
6.95366E-01 2.58634E-34
6.99375E-01 2.51309E-34
7.03368E-01 2.43253E-34
7.07347E-01 2.34583E-34
7.11309E-01 2.25412E-34
7.15256E-01 2.15846E-34
7.19186E-01 2.05989E-34
7.23099E-01 1.95936E-34
7.26995E-01 1.85776E-34
7.30874E-01 1.75590E-34
7.34736E-01 1.65453E-34
7.38579E-01 1.55429E-34
7.42405E-01 1.45577E-34
7.46212E-01 1.35949E-34
7.50000E-01 1.26588E-34
7.53769E-01 1.17531E-34
7.57519E-01 1.08808E-34
7.61249E-01 1.00443E-34
7.64960E-01 9.24561E-35
7.68650E-01 8.48595E-35
7.72320E-01 7.76621E-35
7.75968E-01 7.08684E-35
7.79596E-01 6.44791E-35
7.83203E-01 5.84911E-35
7.86788E-01 5.28990E-35
7.90351E-01 4.76943E-35
7.93893E-01 4.28667E-35
7.97411E-01 3.84040E-35
8.00908E-01 3.42924E-35
8.04381E-01 3.05171E-35
8.07831E-01 2.70624E-35
8.11257E-01 2.39119E-35
8.14660E-01 2.10490E-35
8.18039E-01 1.84566E-35
8.21394E-01 1.61179E-35
8.24724E-01 1.40160E-35
8.28030E-01 1.21344E-35
8.31310E-01 1.04570E-35
8.34565E-01 8.96806E-36
8.37795E-01 7.65248E-36
8.40999E-01 6.49575E-36
8.44177E-01 5.48406E-36
8.47329E-01 4.60427E-36
8.50455E-01 3.84395E-36
8.53553E-01 3.19142E-36
8.56625E-01 2.63574E-36
8.59670E-01 2.16670E-36
8.62687E-01 1.77478E-36
8.65677E-01 1.45122E-36
8.68639E-01 1.18791E-36
8.71572E-01 9.77406E-37
8.74478E-01 8.12905E-37
8.77355E-01 6.88205E-37
8.80203E-01 5.97684E-37
8.83022E-01 5.36236E-37
8.85812E-01 4.99316E-37
8.88573E-01 4.82808E-37
8.91304E-01 4.83058E-37
8.94005E-01 4.96832E-37
8.96677E-01 5.21250E-37
8.99318E-01 5.53824E-37
9.01928E-01 5.92342E-37
9.04508E-01 6.34923E-37
9.07058E-01 6.79919E-37
9.09576E-01 7.25956E-37
9.12063E-01 7.71854E-37
9.14519E-01 8.16640E-37
9.16943E-01 8.59513E-37
9.19335E-01 8.99821E-37
9.21696E-01 9.37055E-37
9.24024E-01 9.70831E-37
9.26320E-01 1.00087E-36
9.28584E-01 1.02697E-36
9.30815E-01 1.04903E-36
9.33013E-01 1.06701E-36
9.35178E-01 1.08091E-36
9.37310E-01 1.09081E-36
9.39409E-01 1.09680E-36
9.41474E-01 1.09903E-36
9.43505E-01 1.09765E-36
9.45503E-01 1.09285E-36
9.47467E-01 1.08483E-36
9.49397E-01 1.07379E-36
9.51293E-01 1.05997E-36
9.53154E-01 1.04356E-36
9.54981E-01 1.02480E-36
9.56773E-01 1.00391E-36
9.58530E-01 9.81101E-37
9.60252E-01 9.56586E-37
9.61940E-01 9.30573E-37
9.63592E-01 9.03255E-37
9.65209E-01 8.74828E-37
9.66790E-01 8.45465E-37
9.68336E-01 8.15351E-37
9.69846E-01 7.84633E-37
9.71321E-01 7.53471E-37
9.72759E-01 7.22007E-37
9.74162E-01 6.90378E-37
9.75528E-01 6.58701E-37
9.76858E-01 6.27097E-37
9.78152E-01 5.95669E-37
9.79410E-01 5.64517E-37
9.80631E-01 5.33729E-37
9.81815E-01 5.03388E-37
9.82963E-01 4.73571E-37
9.84074E-01 4.44339E-37
9.85148E-01 4.15761E-37
9.86185E-01 3.87891E-37
9.87185E-01 3.60776E-37
9.88148E-01 3.34463E-37
9.89074E-01 3.08989E-37
9.89962E-01 2.84394E-37
9.90814E-01 2.60706E-37
9.91627E-01 2.37954E-37
9.92404E-01 2.16160E-37
9.93143E-01 1.95350E-37
9.93844E-01 1.75538E-37
9.94508E-01 1.56740E-37
9.95134E-01 1.38973E-37
9.95722E-01 1.22244E-37
9.96273E-01 1.06568E-37
9.96786E-01 9.19474E-38
9.97261E-01 7.83944E-38
9.97698E-01 6.59100E-38
9.98097E-01 5.45023E-38
9.98459E-01 4.41729E-38
9.98782E-01 3.49245E-38
9.99067E-01 2.67613E-38
9.99315E-01 1.96837E-38
9.99524E-01 1.36928E-38
9.99695E-01 8.79004E-39
9.99829E-01 4.97616E-39
9.99924E-01 2.25247E-39
9.99981E-01 6.17394E-40
1.00000E+00 7.09338E-41
