 #
 # Subroutine ELSEPA. Elastic scattering of electrons and positrons
 #                    by neutral atoms and positive ions
 #
 # Projectile: electron
 # Kinetic energy = 6.00000E+08 eV = 2.20496E+07 a.u.
 #
 # WARNING: High-energy factorization with free-atom DF screening.
 #          Absorption, polarization and exchange corrections are
 #          switched off.
 #          Phase shifts are calculated for the bare nucleus.
 #          Scattering amplitudes are not evaluated.
 #
 # Element: La,  Z =  57,  atomic weight = 1.38905E+02 g/mol
 #
 # Nuclear model: Fermi distribution
 #                Average radius = 5.54145E-13 cm
 #                Skin thickness = 5.46000E-14 cm
 #
 # Number of electrons = 57
 #
 # Total elastic cross section = 7.49991E-18 cm**2 = 2.67826E-01 a0**2
 # 1st transport cross section = 1.75447E-26 cm**2 = 6.26533E-10 a0**2
 # 2nd transport cross section = 5.26201E-26 cm**2 = 1.87910E-09 a0**2
 #
 #
 # Differential cross section:                       MU=(1-COS(THETA))/2
 #
 #  THETA        MU          DCS          DCS        Sherman      error
 #  (deg)                 (cm**2/sr)   (a0**2/sr)    function
 #----------------------------------------------------------------------
0.00000E+00 4.24429E-08
7.61557E-13 3.55379E-08
1.18994E-12 3.24212E-08
1.71346E-12 2.91854E-08
2.33225E-12 2.60084E-08
3.04617E-12 2.30176E-08
3.85530E-12 2.02891E-08
4.75964E-12 1.78571E-08
5.75917E-12 1.57271E-08
6.85391E-12 1.38823E-08
8.04379E-12 1.22916E-08
9.32893E-12 1.09238E-08
1.07092E-11 9.74756E-09
1.21847E-11 8.73393E-09
1.37554E-11 7.85721E-09
1.54213E-11 7.09539E-09
1.71823E-11 6.43000E-09
1.90386E-11 5.84565E-09
2.09900E-11 5.32976E-09
2.30367E-11 4.87163E-09
2.51785E-11 4.46298E-09
2.74156E-11 4.09701E-09
2.97478E-11 3.76805E-09
3.21752E-11 3.47138E-09
3.46979E-11 3.20306E-09
3.73157E-11 2.95977E-09
4.00286E-11 2.73870E-09
4.28368E-11 2.53744E-09
4.57402E-11 2.35390E-09
4.87388E-11 2.18622E-09
5.18325E-11 2.03270E-09
5.50215E-11 1.89216E-09
5.83057E-11 1.76338E-09
6.16850E-11 1.64522E-09
6.51595E-11 1.53397E-09
6.87293E-11 1.42946E-09
7.23943E-11 1.33497E-09
7.61544E-11 1.24935E-09
1.18991E-10 6.92392E-10
1.71347E-10 4.17496E-10
2.33223E-10 2.67350E-10
3.04617E-10 1.78499E-10
3.85531E-10 1.23019E-10
4.75965E-10 8.71435E-11
5.75917E-10 6.33167E-11
6.85389E-10 4.71363E-11
8.04380E-10 3.59056E-11
9.32891E-10 2.79172E-11
1.07092E-09 2.20976E-11
1.21847E-09 1.77613E-11
1.37554E-09 1.44631E-11
1.54213E-09 1.19113E-11
1.71823E-09 9.89791E-12
1.90386E-09 8.29110E-12
2.09900E-09 6.99655E-12
2.30367E-09 5.94200E-12
2.51785E-09 5.07611E-12
2.74156E-09 4.35961E-12
2.97478E-09 3.76265E-12
3.21752E-09 3.26239E-12
3.46978E-09 2.84107E-12
3.73156E-09 2.48468E-12
4.00286E-09 2.18194E-12
4.28368E-09 1.92368E-12
4.57402E-09 1.70240E-12
4.87388E-09 1.51196E-12
5.18326E-09 1.34733E-12
5.50215E-09 1.20448E-12
5.83057E-09 1.08007E-12
6.16850E-09 9.71354E-13
6.51596E-09 8.75863E-13
6.87293E-09 7.91826E-13
7.23942E-09 7.17926E-13
7.61544E-09 6.52718E-13
1.18991E-08 2.80301E-13
1.71347E-08 1.39834E-13
2.33223E-08 7.72993E-14
3.04617E-08 4.60746E-14
3.85531E-08 2.91122E-14
4.75965E-08 1.92747E-14
5.75917E-08 1.32591E-14
6.85389E-08 9.41614E-15
8.04380E-08 6.86979E-15
9.32891E-08 5.12909E-15
1.07092E-07 3.90666E-15
1.21847E-07 3.02780E-15
1.37554E-07 2.38289E-15
1.54213E-07 1.90099E-15
1.71823E-07 1.53504E-15
1.90386E-07 1.25308E-15
2.09900E-07 1.03300E-15
2.30367E-07 8.59195E-16
2.51785E-07 7.20456E-16
2.74156E-07 6.08620E-16
2.97478E-07 5.17664E-16
3.21752E-07 4.43079E-16
3.46978E-07 3.81451E-16
3.73156E-07 3.30172E-16
4.00286E-07 2.87224E-16
4.28368E-07 2.51034E-16
4.57402E-07 2.20367E-16
4.87388E-07 1.94240E-16
5.18325E-07 1.71871E-16
5.50215E-07 1.52630E-16
5.83057E-07 1.36007E-16
6.16850E-07 1.21585E-16
6.51596E-07 1.09023E-16
6.87293E-07 9.80421E-17
7.23942E-07 8.84090E-17
7.61543E-07 7.99298E-17
1.18991E-06 3.28442E-17
1.71347E-06 1.58684E-17
2.33223E-06 8.57537E-18
3.04617E-06 5.03081E-18
3.85531E-06 3.14261E-18
4.75964E-06 2.06285E-18
5.75916E-06 1.40951E-18
6.85388E-06 9.95545E-19
8.04378E-06 7.23009E-19
9.32888E-06 5.37681E-19
1.07092E-05 4.08115E-19
1.21846E-05 3.15334E-19
1.37553E-05 2.47487E-19
1.54212E-05 1.96949E-19
1.71822E-05 1.58680E-19
1.90385E-05 1.29225E-19
2.09899E-05 1.06380E-19
2.30365E-05 8.83602E-20
2.51783E-05 7.39863E-20
2.74153E-05 6.24097E-20
2.97475E-05 5.30065E-20
3.21749E-05 4.53093E-20
3.46974E-05 3.89630E-20
3.73152E-05 3.36937E-20
4.00281E-05 2.92888E-20
4.28362E-05 2.55823E-20
4.57395E-05 2.24443E-20
4.87380E-05 1.97723E-20
5.18317E-05 1.74856E-20
5.50205E-05 1.55196E-20
5.83045E-05 1.38221E-20
6.16838E-05 1.23507E-20
6.51582E-05 1.10703E-20
6.87277E-05 9.95200E-21
7.23925E-05 8.97178E-21
7.61524E-05 8.15854E-21
9.21439E-05 5.57264E-21
1.09658E-04 3.93288E-21
1.28695E-04 2.85304E-21
1.49255E-04 2.11821E-21
1.71338E-04 1.60447E-21
1.94942E-04 1.23651E-21
2.20070E-04 9.67482E-22
2.46720E-04 7.67168E-22
2.74892E-04 6.15561E-22
3.04586E-04 4.99171E-22
3.35803E-04 4.08637E-22
3.68542E-04 3.37397E-22
4.02802E-04 2.80740E-22
4.38585E-04 2.35244E-22
4.75889E-04 1.98390E-22
5.14715E-04 1.68294E-22
5.55063E-04 1.43534E-22
5.96931E-04 1.23024E-22
6.40321E-04 1.05927E-22
6.85233E-04 9.15928E-23
7.31665E-04 7.95081E-23
7.79618E-04 6.92688E-23
8.29092E-04 6.05519E-23
8.80086E-04 5.30984E-23
9.32601E-04 4.66989E-23
9.86636E-04 4.11830E-23
1.04219E-03 3.64116E-23
1.09927E-03 3.22700E-23
1.15786E-03 2.86636E-23
1.21797E-03 2.55137E-23
1.27961E-03 2.27548E-23
1.34276E-03 2.03317E-23
1.40743E-03 1.81983E-23
1.47362E-03 1.63153E-23
1.54133E-03 1.46497E-23
1.61056E-03 1.31731E-23
1.68131E-03 1.18615E-23
1.75357E-03 1.06942E-23
1.82735E-03 9.65331E-24
1.90265E-03 8.72366E-24
1.97947E-03 7.89196E-24
2.05780E-03 7.14672E-24
2.13765E-03 6.47798E-24
2.21902E-03 5.87704E-24
2.30190E-03 5.33630E-24
2.38630E-03 4.84911E-24
2.47222E-03 4.40966E-24
2.55965E-03 4.01280E-24
2.64859E-03 3.65402E-24
2.73905E-03 3.32933E-24
2.83103E-03 3.03521E-24
2.92452E-03 2.76854E-24
3.01952E-03 2.52654E-24
3.11604E-03 2.30674E-24
3.21407E-03 2.10696E-24
3.31362E-03 1.92523E-24
3.41468E-03 1.75982E-24
3.51725E-03 1.60914E-24
3.62133E-03 1.47182E-24
3.72692E-03 1.34658E-24
3.83403E-03 1.23230E-24
3.94265E-03 1.12798E-24
4.05278E-03 1.03269E-24
4.16442E-03 9.45616E-25
4.27757E-03 8.66015E-25
4.39223E-03 7.93218E-25
4.50840E-03 7.26618E-25
4.62608E-03 6.65667E-25
4.74527E-03 6.09870E-25
4.86597E-03 5.58776E-25
4.98817E-03 5.11977E-25
5.11188E-03 4.69102E-25
5.23711E-03 4.29815E-25
5.36383E-03 3.93808E-25
5.49207E-03 3.60802E-25
5.62181E-03 3.30544E-25
5.75306E-03 3.02802E-25
5.88581E-03 2.77363E-25
6.02007E-03 2.54036E-25
6.15583E-03 2.32644E-25
6.29310E-03 2.13027E-25
6.43187E-03 1.95036E-25
6.57214E-03 1.78538E-25
6.71392E-03 1.63409E-25
6.85720E-03 1.49536E-25
7.00198E-03 1.36816E-25
7.14827E-03 1.25155E-25
7.29605E-03 1.14465E-25
7.44534E-03 1.04667E-25
7.59612E-03 9.56875E-26
7.97965E-03 7.63955E-26
8.37255E-03 6.09115E-26
8.77480E-03 4.85028E-26
9.18641E-03 3.85766E-26
9.60736E-03 3.06523E-26
1.00376E-02 2.43406E-26
1.04773E-02 1.93258E-26
1.09262E-02 1.53520E-26
1.13844E-02 1.22118E-26
1.18520E-02 9.73753E-27
1.23288E-02 7.79344E-27
1.28150E-02 6.27009E-27
1.33104E-02 5.07935E-27
1.38150E-02 4.15038E-27
1.43290E-02 3.42649E-27
1.48521E-02 2.86241E-27
1.53845E-02 2.42218E-27
1.59262E-02 2.07734E-27
1.64770E-02 1.80551E-27
1.70371E-02 1.58919E-27
1.76063E-02 1.41478E-27
1.81848E-02 1.27182E-27
1.87724E-02 1.15232E-27
1.93692E-02 1.05028E-27
1.99751E-02 9.61205E-28
2.05901E-02 8.81808E-28
2.12143E-02 8.09726E-28
2.18476E-02 7.43295E-28
2.24900E-02 6.81376E-28
2.31415E-02 6.23220E-28
2.38021E-02 5.68356E-28
2.44717E-02 5.16510E-28
2.51504E-02 4.67538E-28
2.58382E-02 4.21379E-28
2.65349E-02 3.78017E-28
2.72407E-02 3.37458E-28
2.79555E-02 2.99708E-28
2.86793E-02 2.64765E-28
2.94120E-02 2.32607E-28
3.01537E-02 2.03194E-28
3.09043E-02 1.76462E-28
3.16639E-02 1.52324E-28
3.24324E-02 1.30674E-28
3.32098E-02 1.11391E-28
3.39961E-02 9.43369E-29
3.47912E-02 7.93654E-29
3.55952E-02 6.63221E-29
3.64081E-02 5.50490E-29
3.72297E-02 4.53872E-29
3.80602E-02 3.71794E-29
3.88995E-02 3.02724E-29
3.97476E-02 2.45186E-29
4.06044E-02 1.97780E-29
4.14700E-02 1.59191E-29
4.23443E-02 1.28196E-29
4.32273E-02 1.03673E-29
4.41190E-02 8.46010E-30
4.50194E-02 7.00604E-30
4.59284E-02 5.92331E-30
4.68461E-02 5.13979E-30
4.87074E-02 4.22785E-30
5.06030E-02 3.86884E-30
5.25328E-02 3.78049E-30
5.44967E-02 3.77766E-30
5.64946E-02 3.75062E-30
5.85262E-02 3.64521E-30
6.05914E-02 3.44565E-30
6.26901E-02 3.16043E-30
6.48222E-02 2.81135E-30
6.69873E-02 2.42543E-30
6.91854E-02 2.02946E-30
7.14163E-02 1.64656E-30
7.36799E-02 1.29445E-30
7.59760E-02 9.84971E-31
7.83043E-02 7.24328E-31
8.06647E-02 5.13962E-31
8.30571E-02 3.51587E-31
8.54812E-02 2.32321E-31
8.79369E-02 1.49733E-31
9.04240E-02 9.67430E-32
9.29422E-02 6.63301E-32
9.54915E-02 5.20394E-32
9.80716E-02 4.83038E-32
1.00682E-01 5.06041E-32
1.03323E-01 5.55002E-32
1.05995E-01 6.05681E-32
1.08696E-01 6.42749E-32
1.11427E-01 6.58190E-32
1.14188E-01 6.49600E-32
1.16978E-01 6.18536E-32
1.19797E-01 5.69048E-32
1.22645E-01 5.06451E-32
1.25522E-01 4.36367E-32
1.28428E-01 3.64044E-32
1.31361E-01 2.93918E-32
1.34323E-01 2.29385E-32
1.37313E-01 1.72737E-32
1.40330E-01 1.25223E-32
1.43375E-01 8.71921E-33
1.46447E-01 5.82752E-33
1.49545E-01 3.75850E-33
1.52671E-01 2.39094E-33
1.55823E-01 1.58816E-33
1.59001E-01 1.21203E-33
1.62205E-01 1.13351E-33
1.65435E-01 1.23979E-33
1.68690E-01 1.43831E-33
1.71970E-01 1.65821E-33
1.75276E-01 1.84968E-33
1.78606E-01 1.98187E-33
1.81961E-01 2.03994E-33
1.85340E-01 2.02159E-33
1.88743E-01 1.93364E-33
1.92169E-01 1.78873E-33
1.95619E-01 1.60254E-33
1.99092E-01 1.39150E-33
2.02589E-01 1.17110E-33
2.06107E-01 9.54688E-34
2.09649E-01 7.52833E-34
2.13212E-01 5.73059E-34
2.16797E-01 4.19923E-34
2.20404E-01 2.95310E-34
2.24032E-01 1.98886E-34
2.27680E-01 1.28611E-34
2.31350E-01 8.12702E-35
2.35040E-01 5.29668E-35
2.38751E-01 3.95522E-35
2.42481E-01 3.69710E-35
2.46231E-01 4.15188E-35
2.50000E-01 5.00125E-35
2.53788E-01 5.98819E-35
2.57595E-01 6.91955E-35
2.61421E-01 7.66338E-35
2.65264E-01 8.14257E-35
2.69126E-01 8.32616E-35
2.73005E-01 8.21943E-35
2.76901E-01 7.85394E-35
2.80814E-01 7.27809E-35
2.84744E-01 6.54896E-35
2.88691E-01 5.72542E-35
2.92653E-01 4.86300E-35
2.96632E-01 4.01017E-35
3.00625E-01 3.20620E-35
3.04634E-01 2.48013E-35
3.08658E-01 1.85086E-35
3.12697E-01 1.32790E-35
3.16749E-01 9.12668E-36
3.20816E-01 6.00099E-36
3.24896E-01 3.80324E-36
3.28990E-01 2.40328E-36
3.33097E-01 1.65445E-36
3.37216E-01 1.40641E-36
3.41348E-01 1.51532E-36
3.45492E-01 1.85131E-36
3.49647E-01 2.30341E-36
3.53814E-01 2.78205E-36
3.57992E-01 3.21971E-36
3.62181E-01 3.56994E-36
3.66381E-01 3.80531E-36
3.70590E-01 3.91452E-36
3.74810E-01 3.89928E-36
3.79039E-01 3.77099E-36
3.83277E-01 3.54761E-36
3.87524E-01 3.25084E-36
3.91780E-01 2.90374E-36
3.96044E-01 2.52876E-36
4.00316E-01 2.14638E-36
4.04596E-01 1.77407E-36
4.08882E-01 1.42579E-36
4.13176E-01 1.11175E-36
4.17476E-01 8.38584E-37
4.21783E-01 6.09577E-37
4.26095E-01 4.25170E-37
4.30413E-01 2.83477E-37
4.34737E-01 1.80864E-37
4.39065E-01 1.12493E-37
4.43398E-01 7.28354E-38
4.47736E-01 5.61134E-38
4.52077E-01 5.66641E-38
4.56422E-01 6.92190E-38
4.60770E-01 8.91025E-38
4.65122E-01 1.12352E-37
4.69476E-01 1.35780E-37
4.73832E-01 1.56967E-37
4.78190E-01 1.74232E-37
4.82550E-01 1.86553E-37
4.86912E-01 1.93475E-37
4.91274E-01 1.95008E-37
4.95637E-01 1.91522E-37
5.00000E-01 1.83647E-37
5.04363E-01 1.72172E-37
5.08726E-01 1.57966E-37
5.13088E-01 1.41912E-37
5.17450E-01 1.24853E-37
5.21810E-01 1.07542E-37
5.26168E-01 9.06314E-38
5.30524E-01 7.46470E-38
5.34878E-01 5.99881E-38
5.39230E-01 4.69275E-38
5.43578E-01 3.56257E-38
5.47923E-01 2.61402E-38
5.52264E-01 1.00000E-45
5.56602E-01 1.00000E-45
5.60935E-01 1.00000E-45
5.65263E-01 1.00000E-45
5.69587E-01 1.00000E-45
5.73905E-01 1.00000E-45
5.78217E-01 1.00000E-45
5.82524E-01 1.00000E-45
5.86824E-01 1.00000E-45
5.91118E-01 1.00000E-45
5.95404E-01 1.00000E-45
5.99684E-01 1.00000E-45
6.03956E-01 1.00000E-45
6.08220E-01 1.00000E-45
6.12476E-01 1.00000E-45
6.16723E-01 1.00000E-45
6.20961E-01 1.00000E-45
6.25190E-01 1.00000E-45
6.29410E-01 1.00000E-45
6.33619E-01 1.00000E-45
6.37819E-01 1.00000E-45
6.42008E-01 1.00000E-45
6.46186E-01 1.00000E-45
6.50353E-01 1.00000E-45
6.54508E-01 1.00000E-45
6.58652E-01 1.00000E-45
6.62784E-01 1.00000E-45
6.66903E-01 1.00000E-45
6.71010E-01 1.00000E-45
6.75104E-01 1.00000E-45
6.79184E-01 1.00000E-45
6.83251E-01 1.00000E-45
6.87303E-01 1.00000E-45
6.91342E-01 1.00000E-45
6.95366E-01 1.00000E-45
6.99375E-01 1.00000E-45
7.03368E-01 1.00000E-45
7.07347E-01 1.00000E-45
7.11309E-01 1.00000E-45
7.15256E-01 1.00000E-45
7.19186E-01 1.00000E-45
7.23099E-01 1.00000E-45
7.26995E-01 1.00000E-45
7.30874E-01 1.00000E-45
7.34736E-01 1.00000E-45
7.38579E-01 1.00000E-45
7.42405E-01 1.00000E-45
7.46212E-01 1.00000E-45
7.50000E-01 1.00000E-45
7.53769E-01 1.00000E-45
7.57519E-01 1.00000E-45
7.61249E-01 1.00000E-45
7.64960E-01 1.00000E-45
7.68650E-01 1.00000E-45
7.72320E-01 1.00000E-45
7.75968E-01 1.00000E-45
7.79596E-01 1.00000E-45
7.83203E-01 1.00000E-45
7.86788E-01 1.00000E-45
7.90351E-01 1.00000E-45
7.93893E-01 1.00000E-45
7.97411E-01 1.00000E-45
8.00908E-01 1.00000E-45
8.04381E-01 1.00000E-45
8.07831E-01 1.00000E-45
8.11257E-01 1.00000E-45
8.14660E-01 1.00000E-45
8.18039E-01 1.00000E-45
8.21394E-01 1.00000E-45
8.24724E-01 1.00000E-45
8.28030E-01 1.00000E-45
8.31310E-01 1.00000E-45
8.34565E-01 1.00000E-45
8.37795E-01 1.00000E-45
8.40999E-01 1.00000E-45
8.44177E-01 1.00000E-45
8.47329E-01 1.00000E-45
8.50455E-01 1.00000E-45
8.53553E-01 1.00000E-45
8.56625E-01 1.00000E-45
8.59670E-01 1.00000E-45
8.62687E-01 1.00000E-45
8.65677E-01 1.00000E-45
8.68639E-01 1.00000E-45
8.71572E-01 1.00000E-45
8.74478E-01 1.00000E-45
8.77355E-01 1.00000E-45
8.80203E-01 1.00000E-45
8.83022E-01 1.00000E-45
8.85812E-01 1.00000E-45
8.88573E-01 1.00000E-45
8.91304E-01 1.00000E-45
8.94005E-01 1.00000E-45
8.96677E-01 1.00000E-45
8.99318E-01 1.00000E-45
9.01928E-01 1.00000E-45
9.04508E-01 1.00000E-45
9.07058E-01 1.00000E-45
9.09576E-01 1.00000E-45
9.12063E-01 1.00000E-45
9.14519E-01 1.00000E-45
9.16943E-01 1.00000E-45
9.19335E-01 1.00000E-45
9.21696E-01 1.00000E-45
9.24024E-01 1.00000E-45
9.26320E-01 1.00000E-45
9.28584E-01 1.00000E-45
9.30815E-01 1.00000E-45
9.33013E-01 1.00000E-45
9.35178E-01 1.00000E-45
9.37310E-01 1.00000E-45
9.39409E-01 1.00000E-45
9.41474E-01 1.00000E-45
9.43505E-01 1.00000E-45
9.45503E-01 1.00000E-45
9.47467E-01 1.00000E-45
9.49397E-01 1.00000E-45
9.51293E-01 1.00000E-45
9.53154E-01 1.00000E-45
9.54981E-01 1.00000E-45
9.56773E-01 1.00000E-45
9.58530E-01 1.00000E-45
9.60252E-01 1.00000E-45
9.61940E-01 1.00000E-45
9.63592E-01 1.00000E-45
9.65209E-01 1.00000E-45
9.66790E-01 1.00000E-45
9.68336E-01 1.00000E-45
9.69846E-01 1.00000E-45
9.71321E-01 1.00000E-45
9.72759E-01 1.00000E-45
9.74162E-01 1.00000E-45
9.75528E-01 1.00000E-45
9.76858E-01 1.00000E-45
9.78152E-01 1.00000E-45
9.79410E-01 1.00000E-45
9.80631E-01 1.00000E-45
9.81815E-01 1.00000E-45
9.82963E-01 1.00000E-45
9.84074E-01 1.00000E-45
9.85148E-01 1.00000E-45
9.86185E-01 1.00000E-45
9.87185E-01 1.00000E-45
9.88148E-01 1.00000E-45
9.89074E-01 1.00000E-45
9.89962E-01 1.00000E-45
9.90814E-01 1.00000E-45
9.91627E-01 1.00000E-45
9.92404E-01 1.00000E-45
9.93143E-01 1.00000E-45
9.93844E-01 1.00000E-45
9.94508E-01 1.00000E-45
9.95134E-01 1.00000E-45
9.95722E-01 1.00000E-45
9.96273E-01 1.00000E-45
9.96786E-01 1.00000E-45
9.97261E-01 1.00000E-45
9.97698E-01 1.00000E-45
9.98097E-01 1.00000E-45
9.98459E-01 1.00000E-45
9.98782E-01 1.00000E-45
9.99067E-01 1.00000E-45
9.99315E-01 1.00000E-45
9.99524E-01 1.00000E-45
9.99695E-01 1.00000E-45
9.99829E-01 1.00000E-45
9.99924E-01 1.00000E-45
9.99981E-01 1.00000E-45
1.00000E+00 1.00000E-45
