 #
 # Subroutine ELSEPA. Elastic scattering of electrons and positrons
 #                    by neutral atoms and positive ions
 #
 # Projectile: electron
 # Kinetic energy = 7.00000E+06 eV = 2.57245E+05 a.u.
 #
 # WARNING: High-energy factorization with free-atom DF screening.
 #          Absorption, polarization and exchange corrections are
 #          switched off.
 #          Phase shifts are calculated for the bare nucleus.
 #          Scattering amplitudes are not evaluated.
 #
 # Element: La,  Z =  57,  atomic weight = 1.38905E+02 g/mol
 #
 # Nuclear model: Fermi distribution
 #                Average radius = 5.54145E-13 cm
 #                Skin thickness = 5.46000E-14 cm
 #
 # Number of electrons = 57
 #
 # Total elastic cross section = 7.57107E-18 cm**2 = 2.70368E-01 a0**2
 # 1st transport cross section = 9.78236E-23 cm**2 = 3.49334E-06 a0**2
 # 2nd transport cross section = 2.72398E-22 cm**2 = 9.72750E-06 a0**2
 #
 #
 # Differential cross section:                       MU=(1-COS(THETA))/2
 #
 #  THETA        MU          DCS          DCS        Sherman      error
 #  (deg)                 (cm**2/sr)   (a0**2/sr)    function
 #----------------------------------------------------------------------
0.00000E+00 6.63985E-12
7.61557E-13 6.63965E-12
1.18994E-12 6.63954E-12
1.71346E-12 6.63941E-12
2.33225E-12 6.63925E-12
3.04617E-12 6.63907E-12
3.85530E-12 6.63886E-12
4.75964E-12 6.63863E-12
5.75917E-12 6.63837E-12
6.85391E-12 6.63810E-12
8.04379E-12 6.63779E-12
9.32893E-12 6.63746E-12
1.07092E-11 6.63711E-12
1.21847E-11 6.63674E-12
1.37554E-11 6.63634E-12
1.54213E-11 6.63591E-12
1.71823E-11 6.63546E-12
1.90386E-11 6.63499E-12
2.09900E-11 6.63449E-12
2.30367E-11 6.63397E-12
2.51785E-11 6.63343E-12
2.74156E-11 6.63286E-12
2.97478E-11 6.63227E-12
3.21752E-11 6.63165E-12
3.46979E-11 6.63101E-12
3.73157E-11 6.63034E-12
4.00286E-11 6.62965E-12
4.28368E-11 6.62894E-12
4.57402E-11 6.62820E-12
4.87388E-11 6.62744E-12
5.18325E-11 6.62665E-12
5.50215E-11 6.62584E-12
5.83057E-11 6.62501E-12
6.16850E-11 6.62415E-12
6.51595E-11 6.62327E-12
6.87293E-11 6.62236E-12
7.23943E-11 6.62143E-12
7.61544E-11 6.62048E-12
1.18991E-10 6.60963E-12
1.71347E-10 6.59641E-12
2.33223E-10 6.58084E-12
3.04617E-10 6.56295E-12
3.85531E-10 6.54277E-12
4.75965E-10 6.52033E-12
5.75917E-10 6.49566E-12
6.85389E-10 6.46883E-12
8.04380E-10 6.43986E-12
9.32891E-10 6.40880E-12
1.07092E-09 6.37572E-12
1.21847E-09 6.34065E-12
1.37554E-09 6.30365E-12
1.54213E-09 6.26480E-12
1.71823E-09 6.22413E-12
1.90386E-09 6.18174E-12
2.09900E-09 6.13766E-12
2.30367E-09 6.09197E-12
2.51785E-09 6.04475E-12
2.74156E-09 5.99605E-12
2.97478E-09 5.94595E-12
3.21752E-09 5.89453E-12
3.46978E-09 5.84184E-12
3.73156E-09 5.78797E-12
4.00286E-09 5.73299E-12
4.28368E-09 5.67734E-12
4.57402E-09 5.62076E-12
4.87388E-09 5.56313E-12
5.18326E-09 5.50452E-12
5.50215E-09 5.44499E-12
5.83057E-09 5.38460E-12
6.16850E-09 5.32341E-12
6.51596E-09 5.26203E-12
6.87293E-09 5.20084E-12
7.23942E-09 5.13904E-12
7.61544E-09 5.07668E-12
1.18991E-08 4.44485E-12
1.71347E-08 3.83636E-12
2.33223E-08 3.28378E-12
3.04617E-08 2.80015E-12
3.85531E-08 2.39100E-12
4.75965E-08 2.04861E-12
5.75917E-08 1.76420E-12
6.85389E-08 1.52960E-12
8.04380E-08 1.33440E-12
9.32891E-08 1.17134E-12
1.07092E-07 1.03415E-12
1.21847E-07 9.17683E-13
1.37554E-07 8.17955E-13
1.54213E-07 7.31896E-13
1.71823E-07 6.57210E-13
1.90386E-07 5.91775E-13
2.09900E-07 5.34314E-13
2.30367E-07 4.83639E-13
2.51785E-07 4.38610E-13
2.74156E-07 3.98657E-13
2.97478E-07 3.63040E-13
3.21752E-07 3.31182E-13
3.46978E-07 3.02717E-13
3.73156E-07 2.77157E-13
4.00286E-07 2.54203E-13
4.28368E-07 2.32762E-13
4.57402E-07 2.13473E-13
4.87388E-07 1.96431E-13
5.18325E-07 1.81324E-13
5.50215E-07 1.67888E-13
5.83057E-07 1.55902E-13
6.16850E-07 1.45176E-13
6.51596E-07 1.35116E-13
6.87293E-07 1.25437E-13
7.23942E-07 1.16738E-13
7.61543E-07 1.08900E-13
1.18991E-06 5.85947E-14
1.71347E-06 3.42705E-14
2.33223E-06 2.11846E-14
3.04617E-06 1.37276E-14
3.85531E-06 9.24245E-15
4.75964E-06 6.46545E-15
5.75916E-06 4.68001E-15
6.85388E-06 3.48422E-15
8.04378E-06 2.65800E-15
9.32888E-06 2.06789E-15
1.07092E-05 1.63415E-15
1.21846E-05 1.30831E-15
1.37553E-05 1.05933E-15
1.54212E-05 8.66313E-16
1.71822E-05 7.14908E-16
1.90385E-05 5.94115E-16
2.09899E-05 4.97750E-16
2.30365E-05 4.19835E-16
2.51783E-05 3.56268E-16
2.74153E-05 3.04201E-16
2.97475E-05 2.61251E-16
3.21749E-05 2.25592E-16
3.46974E-05 1.95835E-16
3.73152E-05 1.70834E-16
4.00281E-05 1.49720E-16
4.28362E-05 1.31746E-16
4.57395E-05 1.16434E-16
4.87380E-05 1.03346E-16
5.18317E-05 9.20009E-17
5.50205E-05 8.21870E-17
5.83045E-05 7.36847E-17
6.16838E-05 6.62216E-17
6.51582E-05 5.96975E-17
6.87277E-05 5.39827E-17
7.23925E-05 4.89136E-17
7.61524E-05 4.44396E-17
9.21439E-05 3.09475E-17
1.09658E-04 2.22016E-17
1.28695E-04 1.63420E-17
1.49255E-04 1.22911E-17
1.71338E-04 9.41817E-18
1.94942E-04 7.33690E-18
2.20070E-04 5.79873E-18
2.46720E-04 4.64275E-18
2.74892E-04 3.76087E-18
3.04586E-04 3.07847E-18
3.35803E-04 2.54407E-18
3.68542E-04 2.12084E-18
4.02802E-04 1.78206E-18
4.38585E-04 1.50841E-18
4.75889E-04 1.28540E-18
5.14715E-04 1.10218E-18
5.55063E-04 9.50551E-19
5.96931E-04 8.24170E-19
6.40321E-04 7.18163E-19
6.85233E-04 6.28717E-19
7.31665E-04 5.52800E-19
7.79618E-04 4.88041E-19
8.29092E-04 4.32523E-19
8.80086E-04 3.84699E-19
9.32601E-04 3.43330E-19
9.86636E-04 3.07392E-19
1.04219E-03 2.76050E-19
1.09927E-03 2.48617E-19
1.15786E-03 2.24519E-19
1.21797E-03 2.03281E-19
1.27961E-03 1.84506E-19
1.34276E-03 1.67856E-19
1.40743E-03 1.53049E-19
1.47362E-03 1.39846E-19
1.54133E-03 1.28040E-19
1.61056E-03 1.17460E-19
1.68131E-03 1.07954E-19
1.75357E-03 9.93947E-20
1.82735E-03 9.16703E-20
1.90265E-03 8.46847E-20
1.97947E-03 7.83547E-20
2.05780E-03 7.26080E-20
2.13765E-03 6.73803E-20
2.21902E-03 6.26171E-20
2.30190E-03 5.82692E-20
2.38630E-03 5.42939E-20
2.47222E-03 5.06535E-20
2.55965E-03 4.73145E-20
2.64859E-03 4.42475E-20
2.73905E-03 4.14263E-20
2.83103E-03 3.88274E-20
2.92452E-03 3.64302E-20
3.01952E-03 3.42162E-20
3.11604E-03 3.21687E-20
3.21407E-03 3.02729E-20
3.31362E-03 2.85155E-20
3.41468E-03 2.68845E-20
3.51725E-03 2.53692E-20
3.62133E-03 2.39598E-20
3.72692E-03 2.26474E-20
3.83403E-03 2.14243E-20
3.94265E-03 2.02831E-20
4.05278E-03 1.92174E-20
4.16442E-03 1.82212E-20
4.27757E-03 1.72893E-20
4.39223E-03 1.64164E-20
4.50840E-03 1.55984E-20
4.62608E-03 1.48310E-20
4.74527E-03 1.41107E-20
4.86597E-03 1.34338E-20
4.98817E-03 1.27973E-20
5.11188E-03 1.21984E-20
5.23711E-03 1.16344E-20
5.36383E-03 1.11028E-20
5.49207E-03 1.06015E-20
5.62181E-03 1.01284E-20
5.75306E-03 9.68161E-21
5.88581E-03 9.25941E-21
6.02007E-03 8.86014E-21
6.15583E-03 8.48236E-21
6.29310E-03 8.12468E-21
6.43187E-03 7.78581E-21
6.57214E-03 7.46459E-21
6.71392E-03 7.15991E-21
6.85720E-03 6.87078E-21
7.00198E-03 6.59620E-21
7.14827E-03 6.33536E-21
7.29605E-03 6.08739E-21
7.44534E-03 5.85156E-21
7.59612E-03 5.62715E-21
7.97965E-03 5.11189E-21
8.37255E-03 4.65482E-21
8.77480E-03 4.24821E-21
9.18641E-03 3.88550E-21
9.60736E-03 3.56108E-21
1.00376E-02 3.27019E-21
1.04773E-02 3.00873E-21
1.09262E-02 2.77318E-21
1.13844E-02 2.56050E-21
1.18520E-02 2.36807E-21
1.23288E-02 2.19360E-21
1.28150E-02 2.03511E-21
1.33104E-02 1.89086E-21
1.38150E-02 1.75933E-21
1.43290E-02 1.63920E-21
1.48521E-02 1.52928E-21
1.53845E-02 1.42856E-21
1.59262E-02 1.33611E-21
1.64770E-02 1.25113E-21
1.70371E-02 1.17289E-21
1.76063E-02 1.10077E-21
1.81848E-02 1.03420E-21
1.87724E-02 9.72655E-22
1.93692E-02 9.15695E-22
1.99751E-02 8.62912E-22
2.05901E-02 8.13939E-22
2.12143E-02 7.68448E-22
2.18476E-02 7.26145E-22
2.24900E-02 6.86763E-22
2.31415E-02 6.50061E-22
2.38021E-02 6.15820E-22
2.44717E-02 5.83844E-22
2.51504E-02 5.53954E-22
2.58382E-02 5.25986E-22
2.65349E-02 4.99794E-22
2.72407E-02 4.75242E-22
2.79555E-02 4.52207E-22
2.86793E-02 4.30577E-22
2.94120E-02 4.10250E-22
3.01537E-02 3.91131E-22
3.09043E-02 3.73135E-22
3.16639E-02 3.56182E-22
3.24324E-02 3.40200E-22
3.32098E-02 3.25122E-22
3.39961E-02 3.10886E-22
3.47912E-02 2.97437E-22
3.55952E-02 2.84723E-22
3.64081E-02 2.72694E-22
3.72297E-02 2.61307E-22
3.80602E-02 2.50520E-22
3.88995E-02 2.40296E-22
3.97476E-02 2.30600E-22
4.06044E-02 2.21397E-22
4.14700E-02 2.12659E-22
4.23443E-02 2.04357E-22
4.32273E-02 1.96464E-22
4.41190E-02 1.88957E-22
4.50194E-02 1.81813E-22
4.59284E-02 1.75011E-22
4.68461E-02 1.68531E-22
4.87074E-02 1.56465E-22
5.06030E-02 1.45481E-22
5.25328E-02 1.35465E-22
5.44967E-02 1.26314E-22
5.64946E-02 1.17939E-22
5.85262E-02 1.10262E-22
6.05914E-02 1.03212E-22
6.26901E-02 9.67289E-23
6.48222E-02 9.07575E-23
6.69873E-02 8.52498E-23
6.91854E-02 8.01624E-23
7.14163E-02 7.54568E-23
7.36799E-02 7.10986E-23
7.59760E-02 6.70572E-23
7.83043E-02 6.33049E-23
8.06647E-02 5.98169E-23
8.30571E-02 5.65707E-23
8.54812E-02 5.35461E-23
8.79369E-02 5.07251E-23
9.04240E-02 4.80913E-23
9.29422E-02 4.56295E-23
9.54915E-02 4.33263E-23
9.80716E-02 4.11693E-23
1.00682E-01 3.91474E-23
1.03323E-01 3.72505E-23
1.05995E-01 3.54692E-23
1.08696E-01 3.37950E-23
1.11427E-01 3.22201E-23
1.14188E-01 3.07375E-23
1.16978E-01 2.93407E-23
1.19797E-01 2.80236E-23
1.22645E-01 2.67807E-23
1.25522E-01 2.56070E-23
1.28428E-01 2.44979E-23
1.31361E-01 2.34491E-23
1.34323E-01 2.24565E-23
1.37313E-01 2.15167E-23
1.40330E-01 2.06261E-23
1.43375E-01 1.97817E-23
1.46447E-01 1.89806E-23
1.49545E-01 1.82200E-23
1.52671E-01 1.74976E-23
1.55823E-01 1.68110E-23
1.59001E-01 1.61580E-23
1.62205E-01 1.55367E-23
1.65435E-01 1.49453E-23
1.68690E-01 1.43818E-23
1.71970E-01 1.38449E-23
1.75276E-01 1.33329E-23
1.78606E-01 1.28446E-23
1.81961E-01 1.23784E-23
1.85340E-01 1.19332E-23
1.88743E-01 1.15080E-23
1.92169E-01 1.11016E-23
1.95619E-01 1.07129E-23
1.99092E-01 1.03411E-23
2.02589E-01 9.98532E-24
2.06107E-01 9.64467E-24
2.09649E-01 9.31837E-24
2.13212E-01 9.00569E-24
2.16797E-01 8.70596E-24
2.20404E-01 8.41854E-24
2.24032E-01 8.14280E-24
2.27680E-01 7.87817E-24
2.31350E-01 7.62411E-24
2.35040E-01 7.38011E-24
2.38751E-01 7.14570E-24
2.42481E-01 6.92041E-24
2.46231E-01 6.70381E-24
2.50000E-01 6.49550E-24
2.53788E-01 6.29510E-24
2.57595E-01 6.10225E-24
2.61421E-01 5.91659E-24
2.65264E-01 5.73781E-24
2.69126E-01 5.56560E-24
2.73005E-01 5.39967E-24
2.76901E-01 5.23974E-24
2.80814E-01 5.08555E-24
2.84744E-01 4.93685E-24
2.88691E-01 4.79341E-24
2.92653E-01 4.65500E-24
2.96632E-01 4.52140E-24
3.00625E-01 4.39242E-24
3.04634E-01 4.26787E-24
3.08658E-01 4.14756E-24
3.12697E-01 4.03131E-24
3.16749E-01 3.91896E-24
3.20816E-01 3.81036E-24
3.24896E-01 3.70535E-24
3.28990E-01 3.60379E-24
3.33097E-01 3.50554E-24
3.37216E-01 3.41048E-24
3.41348E-01 3.31848E-24
3.45492E-01 3.22941E-24
3.49647E-01 3.14318E-24
3.53814E-01 3.05966E-24
3.57992E-01 2.97877E-24
3.62181E-01 2.90039E-24
3.66381E-01 2.82443E-24
3.70590E-01 2.75081E-24
3.74810E-01 2.67943E-24
3.79039E-01 2.61023E-24
3.83277E-01 2.54310E-24
3.87524E-01 2.47799E-24
3.91780E-01 2.41482E-24
3.96044E-01 2.35352E-24
4.00316E-01 2.29402E-24
4.04596E-01 2.23625E-24
4.08882E-01 2.18017E-24
4.13176E-01 2.12570E-24
4.17476E-01 2.07280E-24
4.21783E-01 2.02142E-24
4.26095E-01 1.97149E-24
4.30413E-01 1.92296E-24
4.34737E-01 1.87581E-24
4.39065E-01 1.82996E-24
4.43398E-01 1.78540E-24
4.47736E-01 1.74206E-24
4.52077E-01 1.69991E-24
4.56422E-01 1.65891E-24
4.60770E-01 1.61903E-24
4.65122E-01 1.58022E-24
4.69476E-01 1.54245E-24
4.73832E-01 1.50570E-24
4.78190E-01 1.46992E-24
4.82550E-01 1.43509E-24
4.86912E-01 1.40118E-24
4.91274E-01 1.36815E-24
4.95637E-01 1.33598E-24
5.00000E-01 1.30465E-24
5.04363E-01 1.27413E-24
5.08726E-01 1.24439E-24
5.13088E-01 1.21541E-24
5.17450E-01 1.18716E-24
5.21810E-01 1.15963E-24
5.26168E-01 1.13280E-24
5.30524E-01 1.10663E-24
5.34878E-01 1.08112E-24
5.39230E-01 1.05624E-24
5.43578E-01 1.03198E-24
5.47923E-01 1.00831E-24
5.52264E-01 9.85226E-25
5.56602E-01 9.62703E-25
5.60935E-01 9.40726E-25
5.65263E-01 9.19280E-25
5.69587E-01 8.98351E-25
5.73905E-01 8.77923E-25
5.78217E-01 8.57983E-25
5.82524E-01 8.38517E-25
5.86824E-01 8.19511E-25
5.91118E-01 8.00953E-25
5.95404E-01 7.82831E-25
5.99684E-01 7.65132E-25
6.03956E-01 7.47846E-25
6.08220E-01 7.30960E-25
6.12476E-01 7.14465E-25
6.16723E-01 6.98349E-25
6.20961E-01 6.82602E-25
6.25190E-01 6.67216E-25
6.29410E-01 6.52179E-25
6.33619E-01 6.37484E-25
6.37819E-01 6.23120E-25
6.42008E-01 6.09080E-25
6.46186E-01 5.95355E-25
6.50353E-01 5.81936E-25
6.54508E-01 5.68816E-25
6.58652E-01 5.55988E-25
6.62784E-01 5.43443E-25
6.66903E-01 5.31175E-25
6.71010E-01 5.19177E-25
6.75104E-01 5.07442E-25
6.79184E-01 4.95963E-25
6.83251E-01 4.84734E-25
6.87303E-01 4.73748E-25
6.91342E-01 4.63001E-25
6.95366E-01 4.52485E-25
6.99375E-01 4.42195E-25
7.03368E-01 4.32127E-25
7.07347E-01 4.22273E-25
7.11309E-01 4.12630E-25
7.15256E-01 4.03193E-25
7.19186E-01 3.93955E-25
7.23099E-01 3.84913E-25
7.26995E-01 3.76062E-25
7.30874E-01 3.67397E-25
7.34736E-01 3.58915E-25
7.38579E-01 3.50610E-25
7.42405E-01 3.42479E-25
7.46212E-01 3.34518E-25
7.50000E-01 3.26722E-25
7.53769E-01 3.19089E-25
7.57519E-01 3.11614E-25
7.61249E-01 3.04293E-25
7.64960E-01 2.97124E-25
7.68650E-01 2.90103E-25
7.72320E-01 2.83226E-25
7.75968E-01 2.76491E-25
7.79596E-01 2.69894E-25
7.83203E-01 2.63432E-25
7.86788E-01 2.57102E-25
7.90351E-01 2.50902E-25
7.93893E-01 2.44829E-25
7.97411E-01 2.38879E-25
8.00908E-01 2.33050E-25
8.04381E-01 2.27340E-25
8.07831E-01 2.21746E-25
8.11257E-01 2.16266E-25
8.14660E-01 2.10897E-25
8.18039E-01 2.05636E-25
8.21394E-01 2.00483E-25
8.24724E-01 1.95434E-25
8.28030E-01 1.90487E-25
8.31310E-01 1.85640E-25
8.34565E-01 1.80892E-25
8.37795E-01 1.76240E-25
8.40999E-01 1.71682E-25
8.44177E-01 1.67216E-25
8.47329E-01 1.62841E-25
8.50455E-01 1.58555E-25
8.53553E-01 1.54355E-25
8.56625E-01 1.50241E-25
8.59670E-01 1.46211E-25
8.62687E-01 1.42263E-25
8.65677E-01 1.38395E-25
8.68639E-01 1.34606E-25
8.71572E-01 1.30894E-25
8.74478E-01 1.27259E-25
8.77355E-01 1.23698E-25
8.80203E-01 1.20210E-25
8.83022E-01 1.16794E-25
8.85812E-01 1.13449E-25
8.88573E-01 1.10172E-25
8.91304E-01 1.06964E-25
8.94005E-01 1.03823E-25
8.96677E-01 1.00747E-25
8.99318E-01 9.77355E-26
9.01928E-01 9.47874E-26
9.04508E-01 9.19015E-26
9.07058E-01 8.90767E-26
9.09576E-01 8.63120E-26
9.12063E-01 8.36064E-26
9.14519E-01 8.09589E-26
9.16943E-01 7.83685E-26
9.19335E-01 7.58343E-26
9.21696E-01 7.33553E-26
9.24024E-01 7.09308E-26
9.26320E-01 6.85597E-26
9.28584E-01 6.62413E-26
9.30815E-01 6.39747E-26
9.33013E-01 6.17592E-26
9.35178E-01 5.95939E-26
9.37310E-01 5.74781E-26
9.39409E-01 5.54111E-26
9.41474E-01 5.33920E-26
9.43505E-01 5.14203E-26
9.45503E-01 4.94952E-26
9.47467E-01 4.76161E-26
9.49397E-01 4.57823E-26
9.51293E-01 4.39932E-26
9.53154E-01 4.22482E-26
9.54981E-01 4.05466E-26
9.56773E-01 3.88880E-26
9.58530E-01 3.72717E-26
9.60252E-01 3.56972E-26
9.61940E-01 3.41639E-26
9.63592E-01 3.26714E-26
9.65209E-01 3.12192E-26
9.66790E-01 2.98067E-26
9.68336E-01 2.84335E-26
9.69846E-01 2.70991E-26
9.71321E-01 2.58031E-26
9.72759E-01 2.45451E-26
9.74162E-01 2.33246E-26
9.75528E-01 2.21413E-26
9.76858E-01 2.09947E-26
9.78152E-01 1.98845E-26
9.79410E-01 1.88103E-26
9.80631E-01 1.77718E-26
9.81815E-01 1.67686E-26
9.82963E-01 1.58004E-26
9.84074E-01 1.48669E-26
9.85148E-01 1.39678E-26
9.86185E-01 1.31028E-26
9.87185E-01 1.22716E-26
9.88148E-01 1.14739E-26
9.89074E-01 1.07095E-26
9.89962E-01 9.97817E-27
9.90814E-01 9.27964E-27
9.91627E-01 8.61369E-27
9.92404E-01 7.98012E-27
9.93143E-01 7.37872E-27
9.93844E-01 6.80929E-27
9.94508E-01 6.27166E-27
9.95134E-01 5.76566E-27
9.95722E-01 5.29112E-27
9.96273E-01 4.84790E-27
9.96786E-01 4.43585E-27
9.97261E-01 4.05484E-27
9.97698E-01 3.70475E-27
9.98097E-01 3.38548E-27
9.98459E-01 3.09691E-27
9.98782E-01 2.83897E-27
9.99067E-01 2.61156E-27
9.99315E-01 2.41462E-27
9.99524E-01 2.24808E-27
9.99695E-01 2.11189E-27
9.99829E-01 2.00601E-27
9.99924E-01 1.93041E-27
9.99981E-01 1.88505E-27
1.00000E+00 1.86994E-27
