 #
 # Subroutine ELSEPA. Elastic scattering of electrons and positrons
 #                    by neutral atoms and positive ions
 #
 # Projectile: electron
 # Kinetic energy = 1.50000E+08 eV = 5.51240E+06 a.u.
 #
 # WARNING: High-energy factorization with free-atom DF screening.
 #          Absorption, polarization and exchange corrections are
 #          switched off.
 #          Phase shifts are calculated for the bare nucleus.
 #          Scattering amplitudes are not evaluated.
 #
 # Element: La,  Z =  57,  atomic weight = 1.38905E+02 g/mol
 #
 # Nuclear model: Fermi distribution
 #                Average radius = 5.54145E-13 cm
 #                Skin thickness = 5.46000E-14 cm
 #
 # Number of electrons = 57
 #
 # Total elastic cross section = 7.53220E-18 cm**2 = 2.68980E-01 a0**2
 # 1st transport cross section = 2.80924E-25 cm**2 = 1.00320E-08 a0**2
 # 2nd transport cross section = 8.39541E-25 cm**2 = 2.99806E-08 a0**2
 #
 #
 # Differential cross section:                       MU=(1-COS(THETA))/2
 #
 #  THETA        MU          DCS          DCS        Sherman      error
 #  (deg)                 (cm**2/sr)   (a0**2/sr)    function
 #----------------------------------------------------------------------
0.00000E+00 2.66624E-09
7.61557E-13 2.63506E-09
1.18994E-12 2.61780E-09
1.71346E-12 2.59694E-09
2.33225E-12 2.57263E-09
3.04617E-12 2.54504E-09
3.85530E-12 2.51434E-09
4.75964E-12 2.48072E-09
5.75917E-12 2.44440E-09
6.85391E-12 2.40559E-09
8.04379E-12 2.36454E-09
9.32893E-12 2.32145E-09
1.07092E-11 2.27675E-09
1.21847E-11 2.23058E-09
1.37554E-11 2.18283E-09
1.54213E-11 2.13370E-09
1.71823E-11 2.08427E-09
1.90386E-11 2.03413E-09
2.09900E-11 1.98320E-09
2.30367E-11 1.93184E-09
2.51785E-11 1.88121E-09
2.74156E-11 1.83031E-09
2.97478E-11 1.77927E-09
3.21752E-11 1.72896E-09
3.46979E-11 1.67954E-09
3.73157E-11 1.63036E-09
4.00286E-11 1.58153E-09
4.28368E-11 1.53441E-09
4.57402E-11 1.48804E-09
4.87388E-11 1.44226E-09
5.18325E-11 1.39742E-09
5.50215E-11 1.35446E-09
5.83057E-11 1.31224E-09
6.16850E-11 1.27080E-09
6.51595E-11 1.23091E-09
6.87293E-11 1.19245E-09
7.23943E-11 1.15483E-09
7.61544E-11 1.11808E-09
1.18991E-10 8.17155E-10
1.71347E-10 6.09736E-10
2.33223E-10 4.66699E-10
3.04617E-10 3.65479E-10
3.85531E-10 2.91361E-10
4.75965E-10 2.35464E-10
5.75917E-10 1.92337E-10
6.85389E-10 1.58490E-10
8.04380E-10 1.31602E-10
9.32891E-10 1.10087E-10
1.07092E-09 9.23750E-11
1.21847E-09 7.79660E-11
1.37554E-09 6.66472E-11
1.54213E-09 5.76414E-11
1.71823E-09 4.97473E-11
1.90386E-09 4.31956E-11
2.09900E-09 3.78508E-11
2.30367E-09 3.33972E-11
2.51785E-09 2.93836E-11
2.74156E-09 2.60404E-11
2.97478E-09 2.32339E-11
3.21752E-09 2.07565E-11
3.46978E-09 1.85510E-11
3.73156E-09 1.66711E-11
4.00286E-09 1.50590E-11
4.28368E-09 1.35674E-11
4.57402E-09 1.22608E-11
4.87388E-09 1.11273E-11
5.18326E-09 1.01260E-11
5.50215E-09 9.19669E-12
5.83057E-09 8.38260E-12
6.16850E-09 7.66655E-12
6.51596E-09 7.01453E-12
6.87293E-09 6.42221E-12
7.23942E-09 5.89690E-12
7.61544E-09 5.42950E-12
1.18991E-08 2.55488E-12
1.71347E-08 1.37635E-12
2.33223E-08 8.16506E-13
3.04617E-08 5.16355E-13
3.85531E-08 3.41665E-13
4.75965E-08 2.34226E-13
5.75917E-08 1.65295E-13
6.85389E-08 1.19727E-13
8.04380E-08 8.87845E-14
9.32891E-08 6.72149E-14
1.07092E-07 5.18052E-14
1.21847E-07 4.06221E-14
1.37554E-07 3.22934E-14
1.54213E-07 2.60128E-14
1.71823E-07 2.11987E-14
1.90386E-07 1.74439E-14
2.09900E-07 1.44892E-14
2.30367E-07 1.21376E-14
2.51785E-07 1.02415E-14
2.74156E-07 8.70182E-15
2.97478E-07 7.44175E-15
3.21752E-07 6.40037E-15
3.46978E-07 5.53428E-15
3.73156E-07 4.81009E-15
4.00286E-07 4.20005E-15
4.28368E-07 3.68307E-15
4.57402E-07 3.24333E-15
4.87388E-07 2.86715E-15
5.18325E-07 2.54349E-15
5.50215E-07 2.26428E-15
5.83057E-07 2.02236E-15
6.16850E-07 1.81159E-15
6.51596E-07 1.62761E-15
6.87293E-07 1.46641E-15
7.23942E-07 1.32455E-15
7.61543E-07 1.19943E-15
1.18991E-06 4.98982E-16
1.71347E-06 2.43152E-16
2.33223E-06 1.32274E-16
3.04617E-06 7.80109E-17
3.85531E-06 4.89393E-17
4.75964E-06 3.22351E-17
5.75916E-06 2.20872E-17
6.85388E-06 1.56358E-17
8.04378E-06 1.13765E-17
9.32888E-06 8.47337E-18
1.07092E-05 6.43968E-18
1.21846E-05 4.98098E-18
1.37553E-05 3.91278E-18
1.54212E-05 3.11612E-18
1.71822E-05 2.51225E-18
1.90385E-05 2.04704E-18
2.09899E-05 1.68597E-18
2.30365E-05 1.40095E-18
2.51783E-05 1.17348E-18
2.74153E-05 9.90179E-19
2.97475E-05 8.41222E-19
3.21749E-05 7.19244E-19
3.46974E-05 6.18637E-19
3.73152E-05 5.35077E-19
4.00281E-05 4.65206E-19
4.28362E-05 4.06398E-19
4.57395E-05 3.56597E-19
4.87380E-05 3.14184E-19
5.18317E-05 2.77879E-19
5.50205E-05 2.46660E-19
5.83045E-05 2.19701E-19
6.16838E-05 1.96329E-19
6.51582E-05 1.75990E-19
6.87277E-05 1.58224E-19
7.23925E-05 1.42650E-19
7.61524E-05 1.29177E-19
9.21439E-05 8.83424E-20
1.09658E-04 6.24491E-20
1.28695E-04 4.53963E-20
1.49255E-04 3.37890E-20
1.71338E-04 2.56708E-20
1.94942E-04 1.98527E-20
2.20070E-04 1.55954E-20
2.46720E-04 1.24221E-20
2.74892E-04 1.00173E-20
3.04586E-04 8.16826E-21
3.35803E-04 6.72734E-21
3.68542E-04 5.59110E-21
4.02802E-04 4.68529E-21
4.38585E-04 3.95599E-21
4.75889E-04 3.36346E-21
5.14715E-04 2.87798E-21
5.55063E-04 2.47716E-21
5.96931E-04 2.14385E-21
6.40321E-04 1.86484E-21
6.85233E-04 1.62985E-21
7.31665E-04 1.43078E-21
7.79618E-04 1.26124E-21
8.29092E-04 1.11611E-21
8.80086E-04 9.91286E-22
9.32601E-04 8.83455E-22
9.86636E-04 7.89908E-22
1.04219E-03 7.08422E-22
1.09927E-03 6.37181E-22
1.15786E-03 5.74678E-22
1.21797E-03 5.19654E-22
1.27961E-03 4.71060E-22
1.34276E-03 4.28014E-22
1.40743E-03 3.89772E-22
1.47362E-03 3.55703E-22
1.54133E-03 3.25273E-22
1.61056E-03 2.98023E-22
1.68131E-03 2.73564E-22
1.75357E-03 2.51558E-22
1.82735E-03 2.31716E-22
1.90265E-03 2.13788E-22
1.97947E-03 1.97555E-22
2.05780E-03 1.82829E-22
2.13765E-03 1.69444E-22
2.21902E-03 1.57258E-22
2.30190E-03 1.46142E-22
2.38630E-03 1.35987E-22
2.47222E-03 1.26695E-22
2.55965E-03 1.18178E-22
2.64859E-03 1.10360E-22
2.73905E-03 1.03174E-22
2.83103E-03 9.65594E-23
2.92452E-03 9.04624E-23
3.01952E-03 8.48353E-23
3.11604E-03 7.96353E-23
3.21407E-03 7.48241E-23
3.31362E-03 7.03673E-23
3.41468E-03 6.62340E-23
3.51725E-03 6.23967E-23
3.62133E-03 5.88301E-23
3.72692E-03 5.55117E-23
3.83403E-03 5.24212E-23
3.94265E-03 4.95400E-23
4.05278E-03 4.68514E-23
4.16442E-03 4.43401E-23
4.27757E-03 4.19924E-23
4.39223E-03 3.97956E-23
4.50840E-03 3.77384E-23
4.62608E-03 3.58101E-23
4.74527E-03 3.40013E-23
4.86597E-03 3.23033E-23
4.98817E-03 3.07080E-23
5.11188E-03 2.92080E-23
5.23711E-03 2.77967E-23
5.36383E-03 2.64678E-23
5.49207E-03 2.52158E-23
5.62181E-03 2.40352E-23
5.75306E-03 2.29214E-23
5.88581E-03 2.18698E-23
6.02007E-03 2.08764E-23
6.15583E-03 1.99373E-23
6.29310E-03 1.90491E-23
6.43187E-03 1.82085E-23
6.57214E-03 1.74125E-23
6.71392E-03 1.66583E-23
6.85720E-03 1.59434E-23
7.00198E-03 1.52652E-23
7.14827E-03 1.46216E-23
7.29605E-03 1.40106E-23
7.44534E-03 1.34301E-23
7.59612E-03 1.28783E-23
7.97965E-03 1.16142E-23
8.37255E-03 1.04963E-23
8.77480E-03 9.50517E-24
9.18641E-03 8.62401E-24
9.60736E-03 7.83870E-24
1.00376E-02 7.13716E-24
1.04773E-02 6.50903E-24
1.09262E-02 5.94541E-24
1.13844E-02 5.43865E-24
1.18520E-02 4.98210E-24
1.23288E-02 4.57002E-24
1.28150E-02 4.19741E-24
1.33104E-02 3.85991E-24
1.38150E-02 3.55370E-24
1.43290E-02 3.27545E-24
1.48521E-02 3.02222E-24
1.53845E-02 2.79142E-24
1.59262E-02 2.58077E-24
1.64770E-02 2.38826E-24
1.70371E-02 2.21210E-24
1.76063E-02 2.05070E-24
1.81848E-02 1.90264E-24
1.87724E-02 1.76667E-24
1.93692E-02 1.64167E-24
1.99751E-02 1.52662E-24
2.05901E-02 1.42062E-24
2.12143E-02 1.32287E-24
2.18476E-02 1.23264E-24
2.24900E-02 1.14928E-24
2.31415E-02 1.07219E-24
2.38021E-02 1.00084E-24
2.44717E-02 9.34745E-25
2.51504E-02 8.73478E-25
2.58382E-02 8.16638E-25
2.65349E-02 7.63867E-25
2.72407E-02 7.14839E-25
2.79555E-02 6.69257E-25
2.86793E-02 6.26850E-25
2.94120E-02 5.87372E-25
3.01537E-02 5.50598E-25
3.09043E-02 5.16323E-25
3.16639E-02 4.84358E-25
3.24324E-02 4.54530E-25
3.32098E-02 4.26683E-25
3.39961E-02 4.00670E-25
3.47912E-02 3.76359E-25
3.55952E-02 3.53628E-25
3.64081E-02 3.32363E-25
3.72297E-02 3.12462E-25
3.80602E-02 2.93829E-25
3.88995E-02 2.76375E-25
3.97476E-02 2.60019E-25
4.06044E-02 2.44687E-25
4.14700E-02 2.30308E-25
4.23443E-02 2.16819E-25
4.32273E-02 2.04160E-25
4.41190E-02 1.92276E-25
4.50194E-02 1.81116E-25
4.59284E-02 1.70632E-25
4.68461E-02 1.60781E-25
4.87074E-02 1.42816E-25
5.06030E-02 1.26926E-25
5.25328E-02 1.12858E-25
5.44967E-02 1.00392E-25
5.64946E-02 8.93346E-26
5.85262E-02 7.95201E-26
6.05914E-02 7.08022E-26
6.26901E-02 6.30534E-26
6.48222E-02 5.61620E-26
6.69873E-02 5.00299E-26
6.91854E-02 4.45709E-26
7.14163E-02 3.97092E-26
7.36799E-02 3.53779E-26
7.59760E-02 3.15180E-26
7.83043E-02 2.80774E-26
8.06647E-02 2.50099E-26
8.30571E-02 2.22746E-26
8.54812E-02 1.98354E-26
8.79369E-02 1.76601E-26
9.04240E-02 1.57201E-26
9.29422E-02 1.39901E-26
9.54915E-02 1.24474E-26
9.80716E-02 1.10719E-26
1.00682E-01 9.84572E-27
1.03323E-01 8.75284E-27
1.05995E-01 7.77901E-27
1.08696E-01 6.91150E-27
1.11427E-01 6.13896E-27
1.14188E-01 5.45122E-27
1.16978E-01 4.83922E-27
1.19797E-01 4.29484E-27
1.22645E-01 3.81084E-27
1.25522E-01 3.38072E-27
1.28428E-01 2.99869E-27
1.31361E-01 2.65955E-27
1.34323E-01 2.35865E-27
1.37313E-01 2.09186E-27
1.40330E-01 1.85544E-27
1.43375E-01 1.64608E-27
1.46447E-01 1.46080E-27
1.49545E-01 1.29693E-27
1.52671E-01 1.15211E-27
1.55823E-01 1.02421E-27
1.59001E-01 9.11317E-28
1.62205E-01 8.11749E-28
1.65435E-01 7.23988E-28
1.68690E-01 6.46680E-28
1.71970E-01 5.78622E-28
1.75276E-01 5.18737E-28
1.78606E-01 4.66069E-28
1.81961E-01 4.19765E-28
1.85340E-01 3.79068E-28
1.88743E-01 3.43304E-28
1.92169E-01 3.11874E-28
1.95619E-01 2.84249E-28
1.99092E-01 2.59958E-28
2.02589E-01 2.38584E-28
2.06107E-01 2.19760E-28
2.09649E-01 2.03161E-28
2.13212E-01 1.88500E-28
2.16797E-01 1.75525E-28
2.20404E-01 1.64015E-28
2.24032E-01 1.53775E-28
2.27680E-01 1.44635E-28
2.31350E-01 1.36445E-28
2.35040E-01 1.29075E-28
2.38751E-01 1.22413E-28
2.42481E-01 1.16360E-28
2.46231E-01 1.10831E-28
2.50000E-01 1.05752E-28
2.53788E-01 1.01060E-28
2.57595E-01 9.67011E-29
2.61421E-01 9.26282E-29
2.65264E-01 8.88018E-29
2.69126E-01 8.51884E-29
2.73005E-01 8.17595E-29
2.76901E-01 7.84912E-29
2.80814E-01 7.53636E-29
2.84744E-01 7.23601E-29
2.88691E-01 6.94671E-29
2.92653E-01 6.66732E-29
2.96632E-01 6.39696E-29
3.00625E-01 6.13487E-29
3.04634E-01 5.88049E-29
3.08658E-01 5.63336E-29
3.12697E-01 5.39312E-29
3.16749E-01 5.15951E-29
3.20816E-01 4.93233E-29
3.24896E-01 4.71144E-29
3.28990E-01 4.49673E-29
3.33097E-01 4.28813E-29
3.37216E-01 4.08560E-29
3.41348E-01 3.88912E-29
3.45492E-01 3.69865E-29
3.49647E-01 3.51420E-29
3.53814E-01 3.33574E-29
3.57992E-01 3.16326E-29
3.62181E-01 2.99675E-29
3.66381E-01 2.83619E-29
3.70590E-01 2.68153E-29
3.74810E-01 2.53275E-29
3.79039E-01 2.38978E-29
3.83277E-01 2.25258E-29
3.87524E-01 2.12106E-29
3.91780E-01 1.99515E-29
3.96044E-01 1.87477E-29
4.00316E-01 1.75980E-29
4.04596E-01 1.65016E-29
4.08882E-01 1.54571E-29
4.13176E-01 1.44634E-29
4.17476E-01 1.35192E-29
4.21783E-01 1.26232E-29
4.26095E-01 1.17740E-29
4.30413E-01 1.09701E-29
4.34737E-01 1.02102E-29
4.39065E-01 9.49260E-30
4.43398E-01 8.81592E-30
4.47736E-01 8.17861E-30
4.52077E-01 7.57915E-30
4.56422E-01 7.01602E-30
4.60770E-01 6.48769E-30
4.65122E-01 5.99265E-30
4.69476E-01 5.52941E-30
4.73832E-01 5.09650E-30
4.78190E-01 4.69246E-30
4.82550E-01 4.31589E-30
4.86912E-01 3.96538E-30
4.91274E-01 3.63958E-30
4.95637E-01 3.33717E-30
5.00000E-01 3.05686E-30
5.04363E-01 2.79742E-30
5.08726E-01 2.55764E-30
5.13088E-01 2.33635E-30
5.17450E-01 2.13245E-30
5.21810E-01 1.94485E-30
5.26168E-01 1.77253E-30
5.30524E-01 1.61449E-30
5.34878E-01 1.46980E-30
5.39230E-01 1.33754E-30
5.43578E-01 1.21687E-30
5.47923E-01 1.10697E-30
5.52264E-01 1.00706E-30
5.56602E-01 9.16404E-31
5.60935E-01 8.34311E-31
5.65263E-01 7.60123E-31
5.69587E-01 6.93220E-31
5.73905E-01 6.33019E-31
5.78217E-01 5.78973E-31
5.82524E-01 5.30566E-31
5.86824E-01 4.87317E-31
5.91118E-01 4.48775E-31
5.95404E-01 4.14518E-31
5.99684E-01 3.84154E-31
6.03956E-01 3.57319E-31
6.08220E-01 3.33672E-31
6.12476E-01 3.12899E-31
6.16723E-01 2.94709E-31
6.20961E-01 2.78833E-31
6.25190E-01 2.65024E-31
6.29410E-01 2.53052E-31
6.33619E-01 2.42710E-31
6.37819E-01 2.33803E-31
6.42008E-01 2.26159E-31
6.46186E-01 2.19615E-31
6.50353E-01 2.14028E-31
6.54508E-01 2.09265E-31
6.58652E-01 2.05207E-31
6.62784E-01 2.01746E-31
6.66903E-01 1.98786E-31
6.71010E-01 1.96240E-31
6.75104E-01 1.94031E-31
6.79184E-01 1.92090E-31
6.83251E-01 1.90357E-31
6.87303E-01 1.88778E-31
6.91342E-01 1.87306E-31
6.95366E-01 1.85902E-31
6.99375E-01 1.84530E-31
7.03368E-01 1.83160E-31
7.07347E-01 1.81768E-31
7.11309E-01 1.80331E-31
7.15256E-01 1.78834E-31
7.19186E-01 1.77261E-31
7.23099E-01 1.75603E-31
7.26995E-01 1.73852E-31
7.30874E-01 1.72000E-31
7.34736E-01 1.70046E-31
7.38579E-01 1.67987E-31
7.42405E-01 1.65824E-31
7.46212E-01 1.63557E-31
7.50000E-01 1.61189E-31
7.53769E-01 1.58724E-31
7.57519E-01 1.56166E-31
7.61249E-01 1.53521E-31
7.64960E-01 1.50794E-31
7.68650E-01 1.47992E-31
7.72320E-01 1.45121E-31
7.75968E-01 1.42188E-31
7.79596E-01 1.39199E-31
7.83203E-01 1.36163E-31
7.86788E-01 1.33086E-31
7.90351E-01 1.29974E-31
7.93893E-01 1.26836E-31
7.97411E-01 1.23678E-31
8.00908E-01 1.20506E-31
8.04381E-01 1.17327E-31
8.07831E-01 1.14147E-31
8.11257E-01 1.10972E-31
8.14660E-01 1.07808E-31
8.18039E-01 1.04660E-31
8.21394E-01 1.01533E-31
8.24724E-01 9.84315E-32
8.28030E-01 9.53603E-32
8.31310E-01 9.23235E-32
8.34565E-01 8.93249E-32
8.37795E-01 8.63679E-32
8.40999E-01 8.34557E-32
8.44177E-01 8.05913E-32
8.47329E-01 7.77773E-32
8.50455E-01 7.50159E-32
8.53553E-01 7.23092E-32
8.56625E-01 6.96591E-32
8.59670E-01 6.70671E-32
8.62687E-01 6.45344E-32
8.65677E-01 6.20622E-32
8.68639E-01 5.96513E-32
8.71572E-01 5.73024E-32
8.74478E-01 5.50159E-32
8.77355E-01 5.27922E-32
8.80203E-01 5.06312E-32
8.83022E-01 4.85331E-32
8.85812E-01 4.64975E-32
8.88573E-01 4.45242E-32
8.91304E-01 4.26127E-32
8.94005E-01 4.07624E-32
8.96677E-01 3.89727E-32
8.99318E-01 3.72428E-32
9.01928E-01 3.55718E-32
9.04508E-01 3.39588E-32
9.07058E-01 3.24028E-32
9.09576E-01 3.09028E-32
9.12063E-01 2.94576E-32
9.14519E-01 2.80661E-32
9.16943E-01 2.67270E-32
9.19335E-01 2.54392E-32
9.21696E-01 2.42013E-32
9.24024E-01 2.30121E-32
9.26320E-01 2.18704E-32
9.28584E-01 2.07747E-32
9.30815E-01 1.97238E-32
9.33013E-01 1.87163E-32
9.35178E-01 1.77510E-32
9.37310E-01 1.68266E-32
9.39409E-01 1.59416E-32
9.41474E-01 1.50949E-32
9.43505E-01 1.42852E-32
9.45503E-01 1.35112E-32
9.47467E-01 1.27717E-32
9.49397E-01 1.20653E-32
9.51293E-01 1.13911E-32
9.53154E-01 1.07477E-32
9.54981E-01 1.01340E-32
9.56773E-01 9.54890E-33
9.58530E-01 8.99130E-33
9.60252E-01 8.46013E-33
9.61940E-01 7.95433E-33
9.63592E-01 7.47291E-33
9.65209E-01 7.01487E-33
9.66790E-01 6.57925E-33
9.68336E-01 6.16515E-33
9.69846E-01 5.77166E-33
9.71321E-01 5.39791E-33
9.72759E-01 5.04307E-33
9.74162E-01 4.70634E-33
9.75528E-01 4.38695E-33
9.76858E-01 4.08413E-33
9.78152E-01 3.79718E-33
9.79410E-01 3.52540E-33
9.80631E-01 3.26813E-33
9.81815E-01 3.02474E-33
9.82963E-01 2.79462E-33
9.84074E-01 2.57718E-33
9.85148E-01 2.37188E-33
9.86185E-01 2.17818E-33
9.87185E-01 1.99557E-33
9.88148E-01 1.82358E-33
9.89074E-01 1.66175E-33
9.89962E-01 1.50963E-33
9.90814E-01 1.36683E-33
9.91627E-01 1.23295E-33
9.92404E-01 1.10762E-33
9.93143E-01 9.90501E-34
9.93844E-01 8.81258E-34
9.94508E-01 7.79587E-34
9.95134E-01 6.85202E-34
9.95722E-01 5.97833E-34
9.96273E-01 5.17232E-34
9.96786E-01 4.43167E-34
9.97261E-01 3.75424E-34
9.97698E-01 3.13807E-34
9.98097E-01 2.58137E-34
9.98459E-01 2.08251E-34
9.98782E-01 1.64003E-34
9.99067E-01 1.25264E-34
9.99315E-01 9.19179E-35
9.99524E-01 6.38680E-35
9.99695E-01 4.10303E-35
9.99829E-01 2.33376E-35
9.99924E-01 1.07378E-35
9.99981E-01 3.19244E-36
1.00000E+00 6.79756E-37
