 #
 # Subroutine ELSEPA. Elastic scattering of electrons and positrons
 #                    by neutral atoms and positive ions
 #
 # Projectile: electron
 # Kinetic energy = 5.00000E+08 eV = 1.83747E+07 a.u.
 #
 # WARNING: High-energy factorization with free-atom DF screening.
 #          Absorption, polarization and exchange corrections are
 #          switched off.
 #          Phase shifts are calculated for the bare nucleus.
 #          Scattering amplitudes are not evaluated.
 #
 # Element: La,  Z =  57,  atomic weight = 1.38905E+02 g/mol
 #
 # Nuclear model: Fermi distribution
 #                Average radius = 5.54145E-13 cm
 #                Skin thickness = 5.46000E-14 cm
 #
 # Number of electrons = 57
 #
 # Total elastic cross section = 7.51440E-18 cm**2 = 2.68344E-01 a0**2
 # 1st transport cross section = 2.52714E-26 cm**2 = 9.02459E-10 a0**2
 # 2nd transport cross section = 7.57854E-26 cm**2 = 2.70635E-09 a0**2
 #
 #
 # Differential cross section:                       MU=(1-COS(THETA))/2
 #
 #  THETA        MU          DCS          DCS        Sherman      error
 #  (deg)                 (cm**2/sr)   (a0**2/sr)    function
 #----------------------------------------------------------------------
0.00000E+00 2.94842E-08
7.61557E-13 2.60063E-08
1.18994E-12 2.43371E-08
1.71346E-12 2.25206E-08
2.33225E-12 2.06467E-08
3.04617E-12 1.87894E-08
3.85530E-12 1.70047E-08
4.75964E-12 1.53316E-08
5.75917E-12 1.37932E-08
6.85391E-12 1.24022E-08
8.04379E-12 1.11570E-08
9.32893E-12 1.00494E-08
1.07092E-11 9.06927E-09
1.21847E-11 8.20434E-09
1.37554E-11 7.44190E-09
1.54213E-11 6.76952E-09
1.71823E-11 6.17564E-09
1.90386E-11 5.64979E-09
2.09900E-11 5.18276E-09
2.30367E-11 4.76652E-09
2.51785E-11 4.39414E-09
2.74156E-11 4.05958E-09
2.97478E-11 3.75787E-09
3.21752E-11 3.48486E-09
3.46979E-11 3.23702E-09
3.73157E-11 3.01135E-09
4.00286E-11 2.80529E-09
4.28368E-11 2.61667E-09
4.57402E-11 2.44362E-09
4.87388E-11 2.28452E-09
5.18325E-11 2.13799E-09
5.50215E-11 2.00282E-09
5.83057E-11 1.87774E-09
6.16850E-11 1.76203E-09
6.51595E-11 1.65490E-09
6.87293E-11 1.55559E-09
7.23943E-11 1.46346E-09
7.61544E-11 1.37791E-09
1.18991E-10 7.80274E-10
1.71347E-10 4.80769E-10
2.33223E-10 3.13974E-10
3.04617E-10 2.14337E-10
3.85531E-10 1.51138E-10
4.75965E-10 1.09226E-10
5.75917E-10 8.05679E-11
6.85389E-10 6.05036E-11
8.04380E-10 4.62620E-11
9.32891E-10 3.60006E-11
1.07092E-09 2.84791E-11
1.21847E-09 2.28712E-11
1.37554E-09 1.86191E-11
1.54213E-09 1.53420E-11
1.71823E-09 1.27769E-11
1.90386E-09 1.07401E-11
2.09900E-09 9.10195E-12
2.30367E-09 7.77021E-12
2.51785E-09 6.66973E-12
2.74156E-09 5.75634E-12
2.97478E-09 4.99368E-12
3.21752E-09 4.35239E-12
3.46978E-09 3.80966E-12
3.73156E-09 3.34762E-12
4.00286E-09 2.95221E-12
4.28368E-09 2.61225E-12
4.57402E-09 2.31881E-12
4.87388E-09 2.06463E-12
5.18326E-09 1.84378E-12
5.50215E-09 1.65131E-12
5.83057E-09 1.48301E-12
6.16850E-09 1.33551E-12
6.51596E-09 1.20586E-12
6.87293E-09 1.09153E-12
7.23942E-09 9.90420E-13
7.61544E-09 9.00733E-13
1.18991E-08 3.88252E-13
1.71347E-08 1.94598E-13
2.33223E-08 1.08154E-13
3.04617E-08 6.47725E-14
3.85531E-08 4.10901E-14
4.75965E-08 2.72883E-14
5.75917E-08 1.88131E-14
6.85389E-08 1.33813E-14
8.04380E-08 9.77394E-15
9.32891E-08 7.30362E-15
1.07092E-07 5.56638E-15
1.21847E-07 4.31634E-15
1.37554E-07 3.39845E-15
1.54213E-07 2.71220E-15
1.71823E-07 2.19081E-15
1.90386E-07 1.78899E-15
2.09900E-07 1.47526E-15
2.30367E-07 1.22741E-15
2.51785E-07 1.02952E-15
2.74156E-07 8.69963E-16
2.97478E-07 7.40164E-16
3.21752E-07 6.33694E-16
3.46978E-07 5.45701E-16
3.73156E-07 4.72465E-16
4.00286E-07 4.11112E-16
4.28368E-07 3.59400E-16
4.57402E-07 3.15568E-16
4.87388E-07 2.78217E-16
5.18325E-07 2.46230E-16
5.50215E-07 2.18709E-16
5.83057E-07 1.94927E-16
6.16850E-07 1.74289E-16
6.51596E-07 1.56311E-16
6.87293E-07 1.40591E-16
7.23942E-07 1.26797E-16
7.61543E-07 1.14654E-16
1.18991E-06 4.71675E-17
1.71347E-06 2.28048E-17
2.33223E-06 1.23294E-17
3.04617E-06 7.23527E-18
3.85531E-06 4.52059E-18
4.75964E-06 2.96780E-18
5.75916E-06 2.02806E-18
6.85388E-06 1.43255E-18
8.04378E-06 1.04044E-18
9.32888E-06 7.73785E-19
1.07092E-05 5.87346E-19
1.21846E-05 4.53833E-19
1.37553E-05 3.56197E-19
1.54212E-05 2.83466E-19
1.71822E-05 2.28389E-19
1.90385E-05 1.85997E-19
2.09899E-05 1.53118E-19
2.30365E-05 1.27182E-19
2.51783E-05 1.06494E-19
2.74153E-05 8.98317E-20
2.97475E-05 7.62972E-20
3.21749E-05 6.52183E-20
3.46974E-05 5.60837E-20
3.73152E-05 4.84993E-20
4.00281E-05 4.21591E-20
4.28362E-05 3.68240E-20
4.57395E-05 3.23069E-20
4.87380E-05 2.84609E-20
5.18317E-05 2.51694E-20
5.50205E-05 2.23393E-20
5.83045E-05 1.98959E-20
6.16838E-05 1.77778E-20
6.51582E-05 1.59349E-20
6.87277E-05 1.43254E-20
7.23925E-05 1.29145E-20
7.61524E-05 1.17485E-20
9.21439E-05 8.03062E-21
1.09658E-04 5.67253E-21
1.28695E-04 4.11933E-21
1.49255E-04 3.06206E-21
1.71338E-04 2.32262E-21
1.94942E-04 1.79275E-21
2.20070E-04 1.40513E-21
2.46720E-04 1.11632E-21
2.74892E-04 8.97572E-22
3.04586E-04 7.29491E-22
3.35803E-04 5.98624E-22
3.68542E-04 4.95537E-22
4.02802E-04 4.13455E-22
4.38585E-04 3.47460E-22
4.75889E-04 2.93926E-22
5.14715E-04 2.50142E-22
5.55063E-04 2.14065E-22
5.96931E-04 1.84129E-22
6.40321E-04 1.59130E-22
6.85233E-04 1.38129E-22
7.31665E-04 1.20388E-22
7.79618E-04 1.05324E-22
8.29092E-04 9.24697E-23
8.80086E-04 8.14526E-23
9.32601E-04 7.19695E-23
9.86636E-04 6.37744E-23
1.04219E-03 5.66657E-23
1.09927E-03 5.04777E-23
1.15786E-03 4.50732E-23
1.21797E-03 4.03382E-23
1.27961E-03 3.61773E-23
1.34276E-03 3.25107E-23
1.40743E-03 2.92710E-23
1.47362E-03 2.64013E-23
1.54133E-03 2.38533E-23
1.61056E-03 2.15858E-23
1.68131E-03 1.95634E-23
1.75357E-03 1.77560E-23
1.82735E-03 1.61375E-23
1.90265E-03 1.46856E-23
1.97947E-03 1.33807E-23
2.05780E-03 1.22059E-23
2.13765E-03 1.11466E-23
2.21902E-03 1.01899E-23
2.30190E-03 9.32468E-24
2.38630E-03 8.54100E-24
2.47222E-03 7.83024E-24
2.55965E-03 7.18478E-24
2.64859E-03 6.59790E-24
2.73905E-03 6.06366E-24
2.83103E-03 5.57678E-24
2.92452E-03 5.13258E-24
3.01952E-03 4.72691E-24
3.11604E-03 4.35605E-24
3.21407E-03 4.01669E-24
3.31362E-03 3.70588E-24
3.41468E-03 3.42097E-24
3.51725E-03 3.15957E-24
3.62133E-03 2.91957E-24
3.72692E-03 2.69904E-24
3.83403E-03 2.49625E-24
3.94265E-03 2.30965E-24
4.05278E-03 2.13782E-24
4.16442E-03 1.97950E-24
4.27757E-03 1.83354E-24
4.39223E-03 1.69889E-24
4.50840E-03 1.57461E-24
4.62608E-03 1.45984E-24
4.74527E-03 1.35379E-24
4.86597E-03 1.25576E-24
4.98817E-03 1.16510E-24
5.11188E-03 1.08121E-24
5.23711E-03 1.00356E-24
5.36383E-03 9.31664E-25
5.49207E-03 8.65060E-25
5.62181E-03 8.03340E-25
5.75306E-03 7.46127E-25
5.88581E-03 6.93074E-25
6.02007E-03 6.43865E-25
6.15583E-03 5.98208E-25
6.29310E-03 5.55836E-25
6.43187E-03 5.16502E-25
6.57214E-03 4.79980E-25
6.71392E-03 4.46062E-25
6.85720E-03 4.14556E-25
7.00198E-03 3.85285E-25
7.14827E-03 3.58086E-25
7.29605E-03 3.32808E-25
7.44534E-03 3.09313E-25
7.59612E-03 2.87471E-25
7.97965E-03 2.39347E-25
8.37255E-03 1.99217E-25
8.77480E-03 1.65743E-25
9.18641E-03 1.37816E-25
9.60736E-03 1.14519E-25
1.00376E-02 9.50876E-26
1.04773E-02 7.88874E-26
1.09262E-02 6.53889E-26
1.13844E-02 5.41500E-26
1.18520E-02 4.48008E-26
1.23288E-02 3.70321E-26
1.28150E-02 3.05845E-26
1.33104E-02 2.52407E-26
1.38150E-02 2.08184E-26
1.43290E-02 1.71648E-26
1.48521E-02 1.41514E-26
1.53845E-02 1.16708E-26
1.59262E-02 9.63277E-27
1.64770E-02 7.96161E-27
1.70371E-02 6.59406E-27
1.76063E-02 5.47718E-27
1.81848E-02 4.56674E-27
1.87724E-02 3.82585E-27
1.93692E-02 3.22380E-27
1.99751E-02 2.73506E-27
2.05901E-02 2.33849E-27
2.12143E-02 2.01660E-27
2.18476E-02 1.75496E-27
2.24900E-02 1.54175E-27
2.31415E-02 1.36727E-27
2.38021E-02 1.22363E-27
2.44717E-02 1.10442E-27
2.51504E-02 1.00448E-27
2.58382E-02 9.19678E-28
2.65349E-02 8.46713E-28
2.72407E-02 7.82981E-28
2.79555E-02 7.26447E-28
2.86793E-02 6.75530E-28
2.94120E-02 6.29023E-28
3.01537E-02 5.86013E-28
3.09043E-02 5.45823E-28
3.16639E-02 5.07960E-28
3.24324E-02 4.72077E-28
3.32098E-02 4.37934E-28
3.39961E-02 4.05374E-28
3.47912E-02 3.74300E-28
3.55952E-02 3.44657E-28
3.64081E-02 3.16420E-28
3.72297E-02 2.89581E-28
3.80602E-02 2.64140E-28
3.88995E-02 2.40102E-28
3.97476E-02 2.17471E-28
4.06044E-02 1.96247E-28
4.14700E-02 1.76421E-28
4.23443E-02 1.57981E-28
4.32273E-02 1.40902E-28
4.41190E-02 1.25156E-28
4.50194E-02 1.10704E-28
4.59284E-02 9.75023E-29
4.68461E-02 8.54997E-29
4.87074E-02 6.48655E-29
5.06030E-02 4.83132E-29
5.25328E-02 3.53202E-29
5.44967E-02 2.53579E-29
5.64946E-02 1.79153E-29
5.85262E-02 1.25160E-29
6.05914E-02 8.73079E-30
6.26901E-02 6.18414E-30
6.48222E-02 4.55698E-30
6.69873E-02 3.58588E-30
6.91854E-02 3.05979E-30
7.14163E-02 2.81508E-30
7.36799E-02 2.72954E-30
7.59760E-02 2.71603E-30
7.83043E-02 2.71608E-30
8.06647E-02 2.69393E-30
8.30571E-02 2.63105E-30
8.54812E-02 2.52139E-30
8.79369E-02 2.36742E-30
9.04240E-02 2.17683E-30
9.29422E-02 1.96009E-30
9.54915E-02 1.72848E-30
9.80716E-02 1.49280E-30
1.00682E-01 1.26253E-30
1.03323E-01 1.04534E-30
1.05995E-01 8.46891E-31
1.08696E-01 6.70872E-31
1.11427E-01 5.19179E-31
1.14188E-01 3.92169E-31
1.16978E-01 2.88966E-31
1.19797E-01 2.07779E-31
1.22645E-01 1.46197E-31
1.25522E-01 1.01462E-31
1.28428E-01 7.06929E-32
1.31361E-01 5.10635E-32
1.34323E-01 3.99399E-32
1.37313E-01 3.49707E-32
1.40330E-01 3.41404E-32
1.43375E-01 3.57912E-32
1.46447E-01 3.86203E-32
1.49545E-01 4.16569E-32
1.52671E-01 4.42276E-32
1.55823E-01 4.59133E-32
1.59001E-01 4.65035E-32
1.62205E-01 4.59496E-32
1.65435E-01 4.43221E-32
1.68690E-01 4.17719E-32
1.71970E-01 3.84965E-32
1.75276E-01 3.47131E-32
1.78606E-01 3.06378E-32
1.81961E-01 2.64696E-32
1.85340E-01 2.23807E-32
1.88743E-01 1.85107E-32
1.92169E-01 1.49639E-32
1.95619E-01 1.18108E-32
1.99092E-01 9.09005E-33
2.02589E-01 6.81324E-33
2.06107E-01 4.96923E-33
2.09649E-01 3.52958E-33
2.13212E-01 2.45349E-33
2.16797E-01 1.69249E-33
2.20404E-01 1.19449E-33
2.24032E-01 9.07173E-34
2.27680E-01 7.80682E-34
2.31350E-01 7.69550E-34
2.35040E-01 8.33999E-34
2.38751E-01 9.40648E-34
2.42481E-01 1.06272E-33
2.46231E-01 1.17988E-33
2.50000E-01 1.27773E-33
2.53788E-01 1.34715E-33
2.57595E-01 1.38350E-33
2.61421E-01 1.38577E-33
2.65264E-01 1.35571E-33
2.69126E-01 1.29710E-33
2.73005E-01 1.21494E-33
2.76901E-01 1.11492E-33
2.80814E-01 1.00289E-33
2.84744E-01 8.84426E-34
2.88691E-01 7.64597E-34
2.92653E-01 6.47742E-34
2.96632E-01 5.37375E-34
3.00625E-01 4.36147E-34
3.04634E-01 3.45865E-34
3.08658E-01 2.67564E-34
3.12697E-01 2.01591E-34
3.16749E-01 1.47721E-34
3.20816E-01 1.05274E-34
3.24896E-01 7.32353E-35
3.28990E-01 5.03624E-35
3.33097E-01 3.52889E-35
3.37216E-01 2.66095E-35
3.41348E-01 2.29508E-35
3.45492E-01 2.30264E-35
3.49647E-01 2.56768E-35
3.53814E-01 2.98945E-35
3.57992E-01 3.48379E-35
3.62181E-01 3.98339E-35
3.66381E-01 4.43719E-35
3.70590E-01 4.80927E-35
3.74810E-01 5.07710E-35
3.79039E-01 5.22973E-35
3.83277E-01 5.26565E-35
3.87524E-01 5.19081E-35
3.91780E-01 5.01662E-35
3.96044E-01 4.75817E-35
4.00316E-01 4.43264E-35
4.04596E-01 4.05798E-35
4.08882E-01 3.65181E-35
4.13176E-01 3.23059E-35
4.17476E-01 2.80900E-35
4.21783E-01 2.39958E-35
4.26095E-01 2.01249E-35
4.30413E-01 1.65552E-35
4.34737E-01 1.33408E-35
4.39065E-01 1.05145E-35
4.43398E-01 8.08978E-36
4.47736E-01 6.06374E-36
4.52077E-01 4.42002E-36
4.56422E-01 3.13187E-36
4.60770E-01 2.16506E-36
4.65122E-01 1.48049E-36
4.69476E-01 1.03665E-36
4.73832E-01 7.91590E-37
4.78190E-01 7.04589E-37
4.82550E-01 7.37471E-37
4.86912E-01 8.55549E-37
4.91274E-01 1.02825E-36
4.95637E-01 1.22949E-36
5.00000E-01 1.43771E-36
5.04363E-01 1.63589E-36
5.08726E-01 1.81122E-36
5.13088E-01 1.95478E-36
5.17450E-01 2.06104E-36
5.21810E-01 2.12747E-36
5.26168E-01 2.15394E-36
5.30524E-01 2.14229E-36
5.34878E-01 2.09580E-36
5.39230E-01 2.01882E-36
5.43578E-01 1.91631E-36
5.47923E-01 1.79356E-36
5.52264E-01 1.65589E-36
5.56602E-01 1.50843E-36
5.60935E-01 1.35592E-36
5.65263E-01 1.20263E-36
5.69587E-01 1.05225E-36
5.73905E-01 9.07879E-37
5.78217E-01 7.71970E-37
5.82524E-01 6.46381E-37
5.86824E-01 5.32400E-37
5.91118E-01 4.30792E-37
5.95404E-01 3.41862E-37
5.99684E-01 2.65521E-37
6.03956E-01 2.01353E-37
6.08220E-01 1.48679E-37
6.12476E-01 1.06629E-37
6.16723E-01 7.41921E-38
6.20961E-01 5.02750E-38
6.25190E-01 3.37474E-38
6.29410E-01 2.34817E-38
6.33619E-01 1.83850E-38
6.37819E-01 1.74247E-38
6.42008E-01 1.96489E-38
6.46186E-01 2.41968E-38
6.50353E-01 3.03103E-38
6.54508E-01 3.73345E-38
6.58652E-01 4.47172E-38
6.62784E-01 5.20097E-38
6.66903E-01 5.88532E-38
6.71010E-01 6.49798E-38
6.75104E-01 7.01968E-38
6.79184E-01 7.43843E-38
6.83251E-01 7.74761E-38
6.87303E-01 7.94606E-38
6.91342E-01 8.03645E-38
6.95366E-01 8.02461E-38
6.99375E-01 7.91903E-38
7.03368E-01 7.72961E-38
7.07347E-01 7.46770E-38
7.11309E-01 7.14469E-38
7.15256E-01 6.77254E-38
7.19186E-01 6.36284E-38
7.23099E-01 5.92650E-38
7.26995E-01 5.47367E-38
7.30874E-01 5.01364E-38
7.34736E-01 4.55448E-38
7.38579E-01 4.10344E-38
7.42405E-01 3.66644E-38
7.46212E-01 3.24834E-38
7.50000E-01 2.85304E-38
7.53769E-01 2.48338E-38
7.57519E-01 2.14145E-38
7.61249E-01 1.82829E-38
7.64960E-01 1.54451E-38
7.68650E-01 1.29002E-38
7.72320E-01 1.06416E-38
7.75968E-01 8.65946E-39
7.79596E-01 1.00000E-45
7.83203E-01 1.00000E-45
7.86788E-01 1.00000E-45
7.90351E-01 1.00000E-45
7.93893E-01 1.00000E-45
7.97411E-01 1.00000E-45
8.00908E-01 1.00000E-45
8.04381E-01 1.00000E-45
8.07831E-01 1.00000E-45
8.11257E-01 1.00000E-45
8.14660E-01 1.00000E-45
8.18039E-01 1.00000E-45
8.21394E-01 1.00000E-45
8.24724E-01 1.00000E-45
8.28030E-01 1.00000E-45
8.31310E-01 1.00000E-45
8.34565E-01 1.00000E-45
8.37795E-01 1.00000E-45
8.40999E-01 1.00000E-45
8.44177E-01 1.00000E-45
8.47329E-01 1.00000E-45
8.50455E-01 1.00000E-45
8.53553E-01 1.00000E-45
8.56625E-01 1.00000E-45
8.59670E-01 1.00000E-45
8.62687E-01 1.00000E-45
8.65677E-01 1.00000E-45
8.68639E-01 1.00000E-45
8.71572E-01 1.00000E-45
8.74478E-01 1.00000E-45
8.77355E-01 1.00000E-45
8.80203E-01 1.00000E-45
8.83022E-01 1.00000E-45
8.85812E-01 1.00000E-45
8.88573E-01 1.00000E-45
8.91304E-01 1.00000E-45
8.94005E-01 1.00000E-45
8.96677E-01 1.00000E-45
8.99318E-01 1.00000E-45
9.01928E-01 1.00000E-45
9.04508E-01 1.00000E-45
9.07058E-01 1.00000E-45
9.09576E-01 1.00000E-45
9.12063E-01 1.00000E-45
9.14519E-01 1.00000E-45
9.16943E-01 1.00000E-45
9.19335E-01 1.00000E-45
9.21696E-01 1.00000E-45
9.24024E-01 1.00000E-45
9.26320E-01 1.00000E-45
9.28584E-01 1.00000E-45
9.30815E-01 1.00000E-45
9.33013E-01 1.00000E-45
9.35178E-01 1.00000E-45
9.37310E-01 1.00000E-45
9.39409E-01 1.00000E-45
9.41474E-01 1.00000E-45
9.43505E-01 1.00000E-45
9.45503E-01 1.00000E-45
9.47467E-01 1.00000E-45
9.49397E-01 1.00000E-45
9.51293E-01 1.00000E-45
9.53154E-01 1.00000E-45
9.54981E-01 1.00000E-45
9.56773E-01 1.00000E-45
9.58530E-01 1.00000E-45
9.60252E-01 1.00000E-45
9.61940E-01 1.00000E-45
9.63592E-01 1.00000E-45
9.65209E-01 1.00000E-45
9.66790E-01 1.00000E-45
9.68336E-01 1.00000E-45
9.69846E-01 1.00000E-45
9.71321E-01 1.00000E-45
9.72759E-01 1.00000E-45
9.74162E-01 1.00000E-45
9.75528E-01 1.00000E-45
9.76858E-01 1.00000E-45
9.78152E-01 1.00000E-45
9.79410E-01 1.00000E-45
9.80631E-01 1.00000E-45
9.81815E-01 1.00000E-45
9.82963E-01 1.00000E-45
9.84074E-01 1.00000E-45
9.85148E-01 1.00000E-45
9.86185E-01 1.00000E-45
9.87185E-01 1.00000E-45
9.88148E-01 1.00000E-45
9.89074E-01 1.00000E-45
9.89962E-01 1.00000E-45
9.90814E-01 1.00000E-45
9.91627E-01 1.00000E-45
9.92404E-01 1.00000E-45
9.93143E-01 1.00000E-45
9.93844E-01 1.00000E-45
9.94508E-01 1.00000E-45
9.95134E-01 1.00000E-45
9.95722E-01 1.00000E-45
9.96273E-01 1.00000E-45
9.96786E-01 1.00000E-45
9.97261E-01 1.00000E-45
9.97698E-01 1.00000E-45
9.98097E-01 1.00000E-45
9.98459E-01 1.00000E-45
9.98782E-01 1.00000E-45
9.99067E-01 1.00000E-45
9.99315E-01 1.00000E-45
9.99524E-01 1.00000E-45
9.99695E-01 1.00000E-45
9.99829E-01 1.00000E-45
9.99924E-01 1.00000E-45
9.99981E-01 1.00000E-45
1.00000E+00 1.00000E-45
