 #
 # Subroutine ELSEPA. Elastic scattering of electrons and positrons
 #                    by neutral atoms and positive ions
 #
 # Projectile: electron
 # Kinetic energy = 4.00000E+06 eV = 1.46997E+05 a.u.
 #
 # WARNING: High-energy factorization with free-atom DF screening.
 #          Absorption, polarization and exchange corrections are
 #          switched off.
 #          Phase shifts are calculated for the bare nucleus.
 #          Scattering amplitudes are not evaluated.
 #
 # Element: La,  Z =  57,  atomic weight = 1.38905E+02 g/mol
 #
 # Nuclear model: Fermi distribution
 #                Average radius = 5.54145E-13 cm
 #                Skin thickness = 5.46000E-14 cm
 #
 # Number of electrons = 57
 #
 # Total elastic cross section = 7.63816E-18 cm**2 = 2.72764E-01 a0**2
 # 1st transport cross section = 2.55179E-22 cm**2 = 9.11261E-06 a0**2
 # 2nd transport cross section = 7.04091E-22 cm**2 = 2.51435E-05 a0**2
 #
 #
 # Differential cross section:                       MU=(1-COS(THETA))/2
 #
 #  THETA        MU          DCS          DCS        Sherman      error
 #  (deg)                 (cm**2/sr)   (a0**2/sr)    function
 #----------------------------------------------------------------------
0.00000E+00 2.39501E-12
7.61557E-13 2.39499E-12
1.18994E-12 2.39498E-12
1.71346E-12 2.39496E-12
2.33225E-12 2.39494E-12
3.04617E-12 2.39491E-12
3.85530E-12 2.39489E-12
4.75964E-12 2.39486E-12
5.75917E-12 2.39483E-12
6.85391E-12 2.39479E-12
8.04379E-12 2.39475E-12
9.32893E-12 2.39471E-12
1.07092E-11 2.39466E-12
1.21847E-11 2.39461E-12
1.37554E-11 2.39456E-12
1.54213E-11 2.39451E-12
1.71823E-11 2.39445E-12
1.90386E-11 2.39439E-12
2.09900E-11 2.39433E-12
2.30367E-11 2.39426E-12
2.51785E-11 2.39419E-12
2.74156E-11 2.39412E-12
2.97478E-11 2.39404E-12
3.21752E-11 2.39396E-12
3.46979E-11 2.39388E-12
3.73157E-11 2.39379E-12
4.00286E-11 2.39370E-12
4.28368E-11 2.39361E-12
4.57402E-11 2.39351E-12
4.87388E-11 2.39342E-12
5.18325E-11 2.39331E-12
5.50215E-11 2.39321E-12
5.83057E-11 2.39310E-12
6.16850E-11 2.39299E-12
6.51595E-11 2.39288E-12
6.87293E-11 2.39276E-12
7.23943E-11 2.39264E-12
7.61544E-11 2.39252E-12
1.18991E-10 2.39111E-12
1.71347E-10 2.38940E-12
2.33223E-10 2.38737E-12
3.04617E-10 2.38504E-12
3.85531E-10 2.38240E-12
4.75965E-10 2.37946E-12
5.75917E-10 2.37621E-12
6.85389E-10 2.37267E-12
8.04380E-10 2.36882E-12
9.32891E-10 2.36468E-12
1.07092E-09 2.36024E-12
1.21847E-09 2.35551E-12
1.37554E-09 2.35049E-12
1.54213E-09 2.34519E-12
1.71823E-09 2.33960E-12
1.90386E-09 2.33374E-12
2.09900E-09 2.32760E-12
2.30367E-09 2.32119E-12
2.51785E-09 2.31451E-12
2.74156E-09 2.30757E-12
2.97478E-09 2.30036E-12
3.21752E-09 2.29290E-12
3.46978E-09 2.28519E-12
3.73156E-09 2.27723E-12
4.00286E-09 2.26903E-12
4.28368E-09 2.26059E-12
4.57402E-09 2.25192E-12
4.87388E-09 2.24302E-12
5.18326E-09 2.23390E-12
5.50215E-09 2.22455E-12
5.83057E-09 2.21500E-12
6.16850E-09 2.20523E-12
6.51596E-09 2.19527E-12
6.87293E-09 2.18510E-12
7.23942E-09 2.17475E-12
7.61544E-09 2.16420E-12
1.18991E-08 2.04982E-12
1.71347E-08 1.92277E-12
2.33223E-08 1.78880E-12
3.04617E-08 1.65245E-12
3.85531E-08 1.51775E-12
4.75965E-08 1.38784E-12
5.75917E-08 1.26507E-12
6.85389E-08 1.15158E-12
8.04380E-08 1.04724E-12
9.32891E-08 9.52223E-13
1.07092E-07 8.66353E-13
1.21847E-07 7.89177E-13
1.37554E-07 7.20326E-13
1.54213E-07 6.58857E-13
1.71823E-07 6.03887E-13
1.90386E-07 5.54732E-13
2.09900E-07 5.10742E-13
2.30367E-07 4.71334E-13
2.51785E-07 4.35973E-13
2.74156E-07 4.04081E-13
2.97478E-07 3.75249E-13
3.21752E-07 3.49117E-13
3.46978E-07 3.25369E-13
3.73156E-07 3.03701E-13
4.00286E-07 2.83874E-13
4.28368E-07 2.65698E-13
4.57402E-07 2.48999E-13
4.87388E-07 2.33623E-13
5.18325E-07 2.19423E-13
5.50215E-07 2.06258E-13
5.83057E-07 1.94067E-13
6.16850E-07 1.82760E-13
6.51596E-07 1.72260E-13
6.87293E-07 1.62496E-13
7.23942E-07 1.53374E-13
7.61543E-07 1.44867E-13
1.18991E-06 8.46926E-14
1.71347E-06 5.28060E-14
2.33223E-06 3.47249E-14
3.04617E-06 2.39175E-14
3.85531E-06 1.70594E-14
4.75964E-06 1.24922E-14
5.75916E-06 9.33054E-15
6.85388E-06 7.06401E-15
8.04378E-06 5.43910E-15
9.32888E-06 4.25288E-15
1.07092E-05 3.37332E-15
1.21846E-05 2.71200E-15
1.37553E-05 2.20713E-15
1.54212E-05 1.81753E-15
1.71822E-05 1.51312E-15
1.90385E-05 1.27159E-15
2.09899E-05 1.07884E-15
2.30365E-05 9.22209E-16
2.51783E-05 7.93167E-16
2.74153E-05 6.86365E-16
2.97475E-05 5.96959E-16
3.21749E-05 5.21578E-16
3.46974E-05 4.57790E-16
3.73152E-05 4.03357E-16
4.00281E-05 3.56735E-16
4.28362E-05 3.16622E-16
4.57395E-05 2.81925E-16
4.87380E-05 2.51768E-16
5.18317E-05 2.25428E-16
5.50205E-05 2.02319E-16
5.83045E-05 1.82044E-16
6.16838E-05 1.64211E-16
6.51582E-05 1.48485E-16
6.87277E-05 1.34584E-16
7.23925E-05 1.22249E-16
7.61524E-05 1.11292E-16
9.21439E-05 7.80167E-17
1.09658E-04 5.62878E-17
1.28695E-04 4.16329E-17
1.49255E-04 3.14911E-17
1.71338E-04 2.42776E-17
1.94942E-04 1.90261E-17
2.20070E-04 1.51237E-17
2.46720E-04 1.21739E-17
2.74892E-04 9.91152E-18
3.04586E-04 8.15226E-18
3.35803E-04 6.76677E-18
3.68542E-04 5.66325E-18
4.02802E-04 4.77480E-18
4.38585E-04 4.05390E-18
4.75889E-04 3.46404E-18
5.14715E-04 2.97759E-18
5.55063E-04 2.57354E-18
5.96931E-04 2.23550E-18
6.40321E-04 1.95113E-18
6.85233E-04 1.71058E-18
7.31665E-04 1.50600E-18
7.79618E-04 1.33113E-18
8.29092E-04 1.18092E-18
8.80086E-04 1.05129E-18
9.32601E-04 9.38996E-19
9.86636E-04 8.41336E-19
1.04219E-03 7.56077E-19
1.09927E-03 6.81377E-19
1.15786E-03 6.15684E-19
1.21797E-03 5.57744E-19
1.27961E-03 5.06485E-19
1.34276E-03 4.61003E-19
1.40743E-03 4.20534E-19
1.47362E-03 3.84423E-19
1.54133E-03 3.52119E-19
1.61056E-03 3.23153E-19
1.68131E-03 2.97119E-19
1.75357E-03 2.73667E-19
1.82735E-03 2.52496E-19
1.90265E-03 2.33340E-19
1.97947E-03 2.15976E-19
2.05780E-03 2.00206E-19
2.13765E-03 1.85858E-19
2.21902E-03 1.72779E-19
2.30190E-03 1.60837E-19
2.38630E-03 1.49914E-19
2.47222E-03 1.39908E-19
2.55965E-03 1.30728E-19
2.64859E-03 1.22294E-19
2.73905E-03 1.14533E-19
2.83103E-03 1.07381E-19
2.92452E-03 1.00782E-19
3.01952E-03 9.46859E-20
3.11604E-03 8.90467E-20
3.21407E-03 8.38240E-20
3.31362E-03 7.89809E-20
3.41468E-03 7.44847E-20
3.51725E-03 7.03062E-20
3.62133E-03 6.64186E-20
3.72692E-03 6.27980E-20
3.83403E-03 5.94225E-20
3.94265E-03 5.62722E-20
4.05278E-03 5.33294E-20
4.16442E-03 5.05779E-20
4.27757E-03 4.80029E-20
4.39223E-03 4.55910E-20
4.50840E-03 4.33297E-20
4.62608E-03 4.12079E-20
4.74527E-03 3.92154E-20
4.86597E-03 3.73429E-20
4.98817E-03 3.55817E-20
5.11188E-03 3.39239E-20
5.23711E-03 3.23623E-20
5.36383E-03 3.08903E-20
5.49207E-03 2.95017E-20
5.62181E-03 2.81910E-20
5.75306E-03 2.69529E-20
5.88581E-03 2.57824E-20
6.02007E-03 2.46755E-20
6.15583E-03 2.36278E-20
6.29310E-03 2.26357E-20
6.43187E-03 2.16955E-20
6.57214E-03 2.08042E-20
6.71392E-03 1.99585E-20
6.85720E-03 1.91557E-20
7.00198E-03 1.83933E-20
7.14827E-03 1.76688E-20
7.29605E-03 1.69800E-20
7.44534E-03 1.63248E-20
7.59612E-03 1.57011E-20
7.97965E-03 1.42687E-20
8.37255E-03 1.29976E-20
8.77480E-03 1.18662E-20
9.18641E-03 1.08566E-20
9.60736E-03 9.95317E-21
1.00376E-02 9.14281E-21
1.04773E-02 8.41417E-21
1.09262E-02 7.75750E-21
1.13844E-02 7.16441E-21
1.18520E-02 6.62758E-21
1.23288E-02 6.14072E-21
1.28150E-02 5.69832E-21
1.33104E-02 5.29556E-21
1.38150E-02 4.92824E-21
1.43290E-02 4.59263E-21
1.48521E-02 4.28550E-21
1.53845E-02 4.00398E-21
1.59262E-02 3.74553E-21
1.64770E-02 3.50791E-21
1.70371E-02 3.28911E-21
1.76063E-02 3.08736E-21
1.81848E-02 2.90108E-21
1.87724E-02 2.72887E-21
1.93692E-02 2.56945E-21
1.99751E-02 2.42169E-21
2.05901E-02 2.28458E-21
2.12143E-02 2.15719E-21
2.18476E-02 2.03871E-21
2.24900E-02 1.92840E-21
2.31415E-02 1.82558E-21
2.38021E-02 1.72964E-21
2.44717E-02 1.64003E-21
2.51504E-02 1.55626E-21
2.58382E-02 1.47787E-21
2.65349E-02 1.40445E-21
2.72407E-02 1.33561E-21
2.79555E-02 1.27102E-21
2.86793E-02 1.21037E-21
2.94120E-02 1.15336E-21
3.01537E-02 1.09973E-21
3.09043E-02 1.04925E-21
3.16639E-02 1.00169E-21
3.24324E-02 9.56851E-22
3.32098E-02 9.14543E-22
3.39961E-02 8.74597E-22
3.47912E-02 8.36853E-22
3.55952E-02 8.01168E-22
3.64081E-02 7.67404E-22
3.72297E-02 7.35438E-22
3.80602E-02 7.05156E-22
3.88995E-02 6.76451E-22
3.97476E-02 6.49223E-22
4.06044E-02 6.23382E-22
4.14700E-02 5.98842E-22
4.23443E-02 5.75525E-22
4.32273E-02 5.53358E-22
4.41190E-02 5.32272E-22
4.50194E-02 5.12204E-22
4.59284E-02 4.93094E-22
4.68461E-02 4.74888E-22
4.87074E-02 4.40983E-22
5.06030E-02 4.10118E-22
5.25328E-02 3.81967E-22
5.44967E-02 3.56244E-22
5.64946E-02 3.32699E-22
5.85262E-02 3.11112E-22
6.05914E-02 2.91288E-22
6.26901E-02 2.73054E-22
6.48222E-02 2.56258E-22
6.69873E-02 2.40763E-22
6.91854E-02 2.26450E-22
7.14163E-02 2.13208E-22
7.36799E-02 2.00943E-22
7.59760E-02 1.89568E-22
7.83043E-02 1.79005E-22
8.06647E-02 1.69184E-22
8.30571E-02 1.60044E-22
8.54812E-02 1.51526E-22
8.79369E-02 1.43581E-22
9.04240E-02 1.36161E-22
9.29422E-02 1.29226E-22
9.54915E-02 1.22736E-22
9.80716E-02 1.16657E-22
1.00682E-01 1.10958E-22
1.03323E-01 1.05611E-22
1.05995E-01 1.00589E-22
1.08696E-01 9.58676E-23
1.11427E-01 9.14262E-23
1.14188E-01 8.72443E-23
1.16978E-01 8.33035E-23
1.19797E-01 7.95870E-23
1.22645E-01 7.60796E-23
1.25522E-01 7.27669E-23
1.28428E-01 6.96359E-23
1.31361E-01 6.66747E-23
1.34323E-01 6.38719E-23
1.37313E-01 6.12175E-23
1.40330E-01 5.87017E-23
1.43375E-01 5.63159E-23
1.46447E-01 5.40521E-23
1.49545E-01 5.19025E-23
1.52671E-01 4.98603E-23
1.55823E-01 4.79190E-23
1.59001E-01 4.60725E-23
1.62205E-01 4.43153E-23
1.65435E-01 4.26420E-23
1.68690E-01 4.10479E-23
1.71970E-01 3.95283E-23
1.75276E-01 3.80791E-23
1.78606E-01 3.66963E-23
1.81961E-01 3.53763E-23
1.85340E-01 3.41156E-23
1.88743E-01 3.29110E-23
1.92169E-01 3.17593E-23
1.95619E-01 3.06579E-23
1.99092E-01 2.96040E-23
2.02589E-01 2.85952E-23
2.06107E-01 2.76291E-23
2.09649E-01 2.67036E-23
2.13212E-01 2.58165E-23
2.16797E-01 2.49660E-23
2.20404E-01 2.41502E-23
2.24032E-01 2.33674E-23
2.27680E-01 2.26159E-23
2.31350E-01 2.18943E-23
2.35040E-01 2.12011E-23
2.38751E-01 2.05350E-23
2.42481E-01 1.98946E-23
2.46231E-01 1.92789E-23
2.50000E-01 1.86865E-23
2.53788E-01 1.81165E-23
2.57595E-01 1.75679E-23
2.61421E-01 1.70396E-23
2.65264E-01 1.65307E-23
2.69126E-01 1.60404E-23
2.73005E-01 1.55678E-23
2.76901E-01 1.51123E-23
2.80814E-01 1.46729E-23
2.84744E-01 1.42491E-23
2.88691E-01 1.38402E-23
2.92653E-01 1.34455E-23
2.96632E-01 1.30645E-23
3.00625E-01 1.26965E-23
3.04634E-01 1.23411E-23
3.08658E-01 1.19976E-23
3.12697E-01 1.16657E-23
3.16749E-01 1.13448E-23
3.20816E-01 1.10346E-23
3.24896E-01 1.07345E-23
3.28990E-01 1.04442E-23
3.33097E-01 1.01633E-23
3.37216E-01 9.89142E-24
3.41348E-01 9.62821E-24
3.45492E-01 9.37334E-24
3.49647E-01 9.12649E-24
3.53814E-01 8.88736E-24
3.57992E-01 8.65566E-24
3.62181E-01 8.43111E-24
3.66381E-01 8.21344E-24
3.70590E-01 8.00240E-24
3.74810E-01 7.79774E-24
3.79039E-01 7.59923E-24
3.83277E-01 7.40664E-24
3.87524E-01 7.21976E-24
3.91780E-01 7.03840E-24
3.96044E-01 6.86235E-24
4.00316E-01 6.69143E-24
4.04596E-01 6.52546E-24
4.08882E-01 6.36427E-24
4.13176E-01 6.20768E-24
4.17476E-01 6.05555E-24
4.21783E-01 5.90771E-24
4.26095E-01 5.76402E-24
4.30413E-01 5.62434E-24
4.34737E-01 5.48854E-24
4.39065E-01 5.35649E-24
4.43398E-01 5.22807E-24
4.47736E-01 5.10316E-24
4.52077E-01 4.98164E-24
4.56422E-01 4.86340E-24
4.60770E-01 4.74832E-24
4.65122E-01 4.63632E-24
4.69476E-01 4.52729E-24
4.73832E-01 4.42114E-24
4.78190E-01 4.31778E-24
4.82550E-01 4.21712E-24
4.86912E-01 4.11909E-24
4.91274E-01 4.02359E-24
4.95637E-01 3.93055E-24
5.00000E-01 3.83988E-24
5.04363E-01 3.75153E-24
5.08726E-01 3.66540E-24
5.13088E-01 3.58145E-24
5.17450E-01 3.49960E-24
5.21810E-01 3.41981E-24
5.26168E-01 3.34200E-24
5.30524E-01 3.26611E-24
5.34878E-01 3.19209E-24
5.39230E-01 3.11988E-24
5.43578E-01 3.04943E-24
5.47923E-01 2.98069E-24
5.52264E-01 2.91361E-24
5.56602E-01 2.84814E-24
5.60935E-01 2.78424E-24
5.65263E-01 2.72187E-24
5.69587E-01 2.66097E-24
5.73905E-01 2.60152E-24
5.78217E-01 2.54346E-24
5.82524E-01 2.48676E-24
5.86824E-01 2.43139E-24
5.91118E-01 2.37729E-24
5.95404E-01 2.32445E-24
5.99684E-01 2.27283E-24
6.03956E-01 2.22239E-24
6.08220E-01 2.17311E-24
6.12476E-01 2.12494E-24
6.16723E-01 2.07787E-24
6.20961E-01 2.03186E-24
6.25190E-01 1.98689E-24
6.29410E-01 1.94292E-24
6.33619E-01 1.89994E-24
6.37819E-01 1.85791E-24
6.42008E-01 1.81681E-24
6.46186E-01 1.77662E-24
6.50353E-01 1.73731E-24
6.54508E-01 1.69887E-24
6.58652E-01 1.66126E-24
6.62784E-01 1.62448E-24
6.66903E-01 1.58849E-24
6.71010E-01 1.55329E-24
6.75104E-01 1.51884E-24
6.79184E-01 1.48513E-24
6.83251E-01 1.45214E-24
6.87303E-01 1.41986E-24
6.91342E-01 1.38826E-24
6.95366E-01 1.35734E-24
6.99375E-01 1.32707E-24
7.03368E-01 1.29744E-24
7.07347E-01 1.26843E-24
7.11309E-01 1.24003E-24
7.15256E-01 1.21223E-24
7.19186E-01 1.18500E-24
7.23099E-01 1.15835E-24
7.26995E-01 1.13224E-24
7.30874E-01 1.10668E-24
7.34736E-01 1.08165E-24
7.38579E-01 1.05713E-24
7.42405E-01 1.03312E-24
7.46212E-01 1.00959E-24
7.50000E-01 9.86555E-25
7.53769E-01 9.63987E-25
7.57519E-01 9.41880E-25
7.61249E-01 9.20222E-25
7.64960E-01 8.99004E-25
7.68650E-01 8.78217E-25
7.72320E-01 8.57851E-25
7.75968E-01 8.37896E-25
7.79596E-01 8.18344E-25
7.83203E-01 7.99187E-25
7.86788E-01 7.80414E-25
7.90351E-01 7.62020E-25
7.93893E-01 7.43994E-25
7.97411E-01 7.26330E-25
8.00908E-01 7.09020E-25
8.04381E-01 6.92057E-25
8.07831E-01 6.75433E-25
8.11257E-01 6.59140E-25
8.14660E-01 6.43174E-25
8.18039E-01 6.27526E-25
8.21394E-01 6.12190E-25
8.24724E-01 5.97159E-25
8.28030E-01 5.82429E-25
8.31310E-01 5.67992E-25
8.34565E-01 5.53843E-25
8.37795E-01 5.39976E-25
8.40999E-01 5.26386E-25
8.44177E-01 5.13066E-25
8.47329E-01 5.00013E-25
8.50455E-01 4.87220E-25
8.53553E-01 4.74683E-25
8.56625E-01 4.62397E-25
8.59670E-01 4.50357E-25
8.62687E-01 4.38558E-25
8.65677E-01 4.26996E-25
8.68639E-01 4.15667E-25
8.71572E-01 4.04566E-25
8.74478E-01 3.93688E-25
8.77355E-01 3.83031E-25
8.80203E-01 3.72589E-25
8.83022E-01 3.62359E-25
8.85812E-01 3.52338E-25
8.88573E-01 3.42521E-25
8.91304E-01 3.32905E-25
8.94005E-01 3.23487E-25
8.96677E-01 3.14262E-25
8.99318E-01 3.05229E-25
9.01928E-01 2.96382E-25
9.04508E-01 2.87720E-25
9.07058E-01 2.79239E-25
9.09576E-01 2.70937E-25
9.12063E-01 2.62809E-25
9.14519E-01 2.54854E-25
9.16943E-01 2.47068E-25
9.19335E-01 2.39450E-25
9.21696E-01 2.31995E-25
9.24024E-01 2.24702E-25
9.26320E-01 2.17569E-25
9.28584E-01 2.10592E-25
9.30815E-01 2.03769E-25
9.33013E-01 1.97098E-25
9.35178E-01 1.90577E-25
9.37310E-01 1.84204E-25
9.39409E-01 1.77976E-25
9.41474E-01 1.71891E-25
9.43505E-01 1.65947E-25
9.45503E-01 1.60143E-25
9.47467E-01 1.54476E-25
9.49397E-01 1.48944E-25
9.51293E-01 1.43547E-25
9.53154E-01 1.38281E-25
9.54981E-01 1.33145E-25
9.56773E-01 1.28137E-25
9.58530E-01 1.23257E-25
9.60252E-01 1.18502E-25
9.61940E-01 1.13870E-25
9.63592E-01 1.09361E-25
9.65209E-01 1.04972E-25
9.66790E-01 1.00703E-25
9.68336E-01 9.65521E-26
9.69846E-01 9.25176E-26
9.71321E-01 8.85986E-26
9.72759E-01 8.47937E-26
9.74162E-01 8.11018E-26
9.75528E-01 7.75216E-26
9.76858E-01 7.40521E-26
9.78152E-01 7.06922E-26
9.79410E-01 6.74408E-26
9.80631E-01 6.42970E-26
9.81815E-01 6.12596E-26
9.82963E-01 5.83278E-26
9.84074E-01 5.55006E-26
9.85148E-01 5.27773E-26
9.86185E-01 5.01569E-26
9.87185E-01 4.76386E-26
9.88148E-01 4.52217E-26
9.89074E-01 4.29053E-26
9.89962E-01 4.06889E-26
9.90814E-01 3.85717E-26
9.91627E-01 3.65531E-26
9.92404E-01 3.46324E-26
9.93143E-01 3.28091E-26
9.93844E-01 3.10825E-26
9.94508E-01 2.94523E-26
9.95134E-01 2.79178E-26
9.95722E-01 2.64787E-26
9.96273E-01 2.51344E-26
9.96786E-01 2.38846E-26
9.97261E-01 2.27289E-26
9.97698E-01 2.16669E-26
9.98097E-01 2.06983E-26
9.98459E-01 1.98229E-26
9.98782E-01 1.90403E-26
9.99067E-01 1.83504E-26
9.99315E-01 1.77528E-26
9.99524E-01 1.72475E-26
9.99695E-01 1.68343E-26
9.99829E-01 1.65130E-26
9.99924E-01 1.62836E-26
9.99981E-01 1.61460E-26
1.00000E+00 1.61001E-26
