 #
 # Subroutine ELSEPA. Elastic scattering of electrons and positrons
 #                    by neutral atoms and positive ions
 #
 # Projectile: electron
 # Kinetic energy = 8.00000E+06 eV = 2.93995E+05 a.u.
 #
 # WARNING: High-energy factorization with free-atom DF screening.
 #          Absorption, polarization and exchange corrections are
 #          switched off.
 #          Phase shifts are calculated for the bare nucleus.
 #          Scattering amplitudes are not evaluated.
 #
 # Element: La,  Z =  57,  atomic weight = 1.38905E+02 g/mol
 #
 # Nuclear model: Fermi distribution
 #                Average radius = 5.54145E-13 cm
 #                Skin thickness = 5.46000E-14 cm
 #
 # Number of electrons = 57
 #
 # Total elastic cross section = 7.56245E-18 cm**2 = 2.70060E-01 a0**2
 # 1st transport cross section = 7.73464E-23 cm**2 = 2.76209E-06 a0**2
 # 2nd transport cross section = 2.15871E-22 cm**2 = 7.70888E-06 a0**2
 #
 #
 # Differential cross section:                       MU=(1-COS(THETA))/2
 #
 #  THETA        MU          DCS          DCS        Sherman      error
 #  (deg)                 (cm**2/sr)   (a0**2/sr)    function
 #----------------------------------------------------------------------
0.00000E+00 8.52558E-12
7.61557E-13 8.52525E-12
1.18994E-12 8.52507E-12
1.71346E-12 8.52485E-12
2.33225E-12 8.52459E-12
3.04617E-12 8.52429E-12
3.85530E-12 8.52395E-12
4.75964E-12 8.52357E-12
5.75917E-12 8.52315E-12
6.85391E-12 8.52269E-12
8.04379E-12 8.52218E-12
9.32893E-12 8.52164E-12
1.07092E-11 8.52106E-12
1.21847E-11 8.52044E-12
1.37554E-11 8.51978E-12
1.54213E-11 8.51908E-12
1.71823E-11 8.51834E-12
1.90386E-11 8.51756E-12
2.09900E-11 8.51674E-12
2.30367E-11 8.51588E-12
2.51785E-11 8.51498E-12
2.74156E-11 8.51405E-12
2.97478E-11 8.51307E-12
3.21752E-11 8.51205E-12
3.46979E-11 8.51099E-12
3.73157E-11 8.50989E-12
4.00286E-11 8.50875E-12
4.28368E-11 8.50758E-12
4.57402E-11 8.50636E-12
4.87388E-11 8.50510E-12
5.18325E-11 8.50381E-12
5.50215E-11 8.50247E-12
5.83057E-11 8.50110E-12
6.16850E-11 8.49968E-12
6.51595E-11 8.49823E-12
6.87293E-11 8.49673E-12
7.23943E-11 8.49520E-12
7.61544E-11 8.49363E-12
1.18991E-10 8.47575E-12
1.71347E-10 8.45399E-12
2.33223E-10 8.42838E-12
3.04617E-10 8.39899E-12
3.85531E-10 8.36588E-12
4.75965E-10 8.32912E-12
5.75917E-10 8.28879E-12
6.85389E-10 8.24498E-12
8.04380E-10 8.19777E-12
9.32891E-10 8.14728E-12
1.07092E-09 8.09359E-12
1.21847E-09 8.03683E-12
1.37554E-09 7.97711E-12
1.54213E-09 7.91455E-12
1.71823E-09 7.84926E-12
1.90386E-09 7.78138E-12
2.09900E-09 7.71104E-12
2.30367E-09 7.63836E-12
2.51785E-09 7.56349E-12
2.74156E-09 7.48654E-12
2.97478E-09 7.40767E-12
3.21752E-09 7.32712E-12
3.46978E-09 7.24548E-12
3.73156E-09 7.16207E-12
4.00286E-09 7.07702E-12
4.28368E-09 6.99043E-12
4.57402E-09 6.90243E-12
4.87388E-09 6.81312E-12
5.18326E-09 6.72407E-12
5.50215E-09 6.63456E-12
5.83057E-09 6.54409E-12
6.16850E-09 6.45278E-12
6.51596E-09 6.36073E-12
6.87293E-09 6.26805E-12
7.23942E-09 6.17542E-12
7.61544E-09 6.08418E-12
1.18991E-08 5.17876E-12
1.71347E-08 4.34954E-12
2.33223E-08 3.63260E-12
3.04617E-08 3.03679E-12
3.85531E-08 2.54986E-12
4.75965E-08 2.15764E-12
5.75917E-08 1.83993E-12
6.85389E-08 1.58242E-12
8.04380E-08 1.37109E-12
9.32891E-08 1.19608E-12
1.07092E-07 1.04953E-12
1.21847E-07 9.25554E-13
1.37554E-07 8.19696E-13
1.54213E-07 7.28702E-13
1.71823E-07 6.49809E-13
1.90386E-07 5.81282E-13
2.09900E-07 5.21217E-13
2.30367E-07 4.68660E-13
2.51785E-07 4.22311E-13
2.74156E-07 3.81500E-13
2.97478E-07 3.45382E-13
3.21752E-07 3.13113E-13
3.46978E-07 2.83362E-13
3.73156E-07 2.57548E-13
4.00286E-07 2.35052E-13
4.28368E-07 2.15365E-13
4.57402E-07 1.98067E-13
4.87388E-07 1.82810E-13
5.18325E-07 1.68183E-13
5.50215E-07 1.54799E-13
5.83057E-07 1.42923E-13
6.16850E-07 1.32350E-13
6.51596E-07 1.22906E-13
6.87293E-07 1.14447E-13
7.23942E-07 1.06665E-13
7.61543E-07 9.91444E-14
1.18991E-06 5.21333E-14
1.71347E-06 2.98083E-14
2.33223E-06 1.80901E-14
3.04617E-06 1.15579E-14
3.85531E-06 7.75380E-15
4.75964E-06 5.42119E-15
5.75916E-06 3.92790E-15
6.85388E-06 2.92471E-15
8.04378E-06 2.22860E-15
9.32888E-06 1.72643E-15
1.07092E-05 1.35807E-15
1.21846E-05 1.08204E-15
1.37553E-05 8.71658E-16
1.54212E-05 7.09144E-16
1.71822E-05 5.82012E-16
1.90385E-05 4.81672E-16
2.09899E-05 4.02118E-16
2.30365E-05 3.38292E-16
2.51783E-05 2.86533E-16
2.74153E-05 2.44269E-16
2.97475E-05 2.09488E-16
3.21749E-05 1.80683E-16
3.46974E-05 1.56654E-16
3.73152E-05 1.36616E-16
4.00281E-05 1.19683E-16
4.28362E-05 1.05307E-16
4.57395E-05 9.30887E-17
4.87380E-05 8.25315E-17
5.18317E-05 7.34656E-17
5.50205E-05 6.56138E-17
5.83045E-05 5.87735E-17
6.16838E-05 5.28266E-17
6.51582E-05 4.75950E-17
6.87277E-05 4.30061E-17
7.23925E-05 3.89646E-17
7.61524E-05 3.53769E-17
9.21439E-05 2.45838E-17
1.09658E-04 1.75994E-17
1.28695E-04 1.29286E-17
1.49255E-04 9.70470E-18
1.71338E-04 7.42507E-18
1.94942E-04 5.77585E-18
2.20070E-04 4.55965E-18
2.46720E-04 3.64727E-18
2.74892E-04 2.95191E-18
3.04586E-04 2.41483E-18
3.35803E-04 1.99450E-18
3.68542E-04 1.66194E-18
4.02802E-04 1.39596E-18
4.38585E-04 1.18122E-18
4.75889E-04 1.00631E-18
5.14715E-04 8.62681E-19
5.55063E-04 7.43846E-19
5.96931E-04 6.44832E-19
6.40321E-04 5.61804E-19
6.85233E-04 4.91750E-19
7.31665E-04 4.32317E-19
7.79618E-04 3.81618E-19
8.29092E-04 3.38161E-19
8.80086E-04 3.00733E-19
9.32601E-04 2.68360E-19
9.86636E-04 2.40240E-19
1.04219E-03 2.15719E-19
1.09927E-03 1.94258E-19
1.15786E-03 1.75409E-19
1.21797E-03 1.58799E-19
1.27961E-03 1.44115E-19
1.34276E-03 1.31095E-19
1.40743E-03 1.19518E-19
1.47362E-03 1.09195E-19
1.54133E-03 9.99666E-20
1.61056E-03 9.16965E-20
1.68131E-03 8.42670E-20
1.75357E-03 7.75776E-20
1.82735E-03 7.15416E-20
1.90265E-03 6.60834E-20
1.97947E-03 6.11381E-20
2.05780E-03 5.66485E-20
2.13765E-03 5.25654E-20
2.21902E-03 4.88451E-20
2.30190E-03 4.54495E-20
2.38630E-03 4.23453E-20
2.47222E-03 3.95027E-20
2.55965E-03 3.68959E-20
2.64859E-03 3.45015E-20
2.73905E-03 3.22992E-20
2.83103E-03 3.02707E-20
2.92452E-03 2.83998E-20
3.01952E-03 2.66720E-20
3.11604E-03 2.50743E-20
3.21407E-03 2.35949E-20
3.31362E-03 2.22239E-20
3.41468E-03 2.09514E-20
3.51725E-03 1.97693E-20
3.62133E-03 1.86699E-20
3.72692E-03 1.76463E-20
3.83403E-03 1.66924E-20
3.94265E-03 1.58024E-20
4.05278E-03 1.49714E-20
4.16442E-03 1.41946E-20
4.27757E-03 1.34679E-20
4.39223E-03 1.27874E-20
4.50840E-03 1.21497E-20
4.62608E-03 1.15515E-20
4.74527E-03 1.09899E-20
4.86597E-03 1.04623E-20
4.98817E-03 9.96621E-21
5.11188E-03 9.49940E-21
5.23711E-03 9.05981E-21
5.36383E-03 8.64558E-21
5.49207E-03 8.25491E-21
5.62181E-03 7.88625E-21
5.75306E-03 7.53812E-21
5.88581E-03 7.20914E-21
6.02007E-03 6.89807E-21
6.15583E-03 6.60373E-21
6.29310E-03 6.32507E-21
6.43187E-03 6.06109E-21
6.57214E-03 5.81085E-21
6.71392E-03 5.57351E-21
6.85720E-03 5.34829E-21
7.00198E-03 5.13442E-21
7.14827E-03 4.93125E-21
7.29605E-03 4.73812E-21
7.44534E-03 4.55445E-21
7.59612E-03 4.37968E-21
7.97965E-03 3.97840E-21
8.37255E-03 3.62249E-21
8.77480E-03 3.30588E-21
9.18641E-03 3.02348E-21
9.60736E-03 2.77090E-21
1.00376E-02 2.54445E-21
1.04773E-02 2.34091E-21
1.09262E-02 2.15755E-21
1.13844E-02 1.99201E-21
1.18520E-02 1.84223E-21
1.23288E-02 1.70644E-21
1.28150E-02 1.58309E-21
1.33104E-02 1.47083E-21
1.38150E-02 1.36848E-21
1.43290E-02 1.27499E-21
1.48521E-02 1.18946E-21
1.53845E-02 1.11108E-21
1.59262E-02 1.03915E-21
1.64770E-02 9.73025E-22
1.70371E-02 9.12155E-22
1.76063E-02 8.56042E-22
1.81848E-02 8.04244E-22
1.87724E-02 7.56365E-22
1.93692E-02 7.12052E-22
1.99751E-02 6.70988E-22
2.05901E-02 6.32890E-22
2.12143E-02 5.97501E-22
2.18476E-02 5.64593E-22
2.24900E-02 5.33957E-22
2.31415E-02 5.05407E-22
2.38021E-02 4.78773E-22
2.44717E-02 4.53901E-22
2.51504E-02 4.30651E-22
2.58382E-02 4.08897E-22
2.65349E-02 3.88524E-22
2.72407E-02 3.69428E-22
2.79555E-02 3.51511E-22
2.86793E-02 3.34688E-22
2.94120E-02 3.18879E-22
3.01537E-02 3.04009E-22
3.09043E-02 2.90013E-22
3.16639E-02 2.76829E-22
3.24324E-02 2.64399E-22
3.32098E-02 2.52673E-22
3.39961E-02 2.41602E-22
3.47912E-02 2.31143E-22
3.55952E-02 2.21256E-22
3.64081E-02 2.11902E-22
3.72297E-02 2.03047E-22
3.80602E-02 1.94659E-22
3.88995E-02 1.86709E-22
3.97476E-02 1.79168E-22
4.06044E-02 1.72013E-22
4.14700E-02 1.65218E-22
4.23443E-02 1.58762E-22
4.32273E-02 1.52626E-22
4.41190E-02 1.46789E-22
4.50194E-02 1.41234E-22
4.59284E-02 1.35946E-22
4.68461E-02 1.30907E-22
4.87074E-02 1.21525E-22
5.06030E-02 1.12986E-22
5.25328E-02 1.05200E-22
5.44967E-02 9.80857E-23
5.64946E-02 9.15752E-23
5.85262E-02 8.56070E-23
6.05914E-02 8.01272E-23
6.26901E-02 7.50879E-23
6.48222E-02 7.04466E-23
6.69873E-02 6.61656E-23
6.91854E-02 6.22116E-23
7.14163E-02 5.85546E-23
7.36799E-02 5.51678E-23
7.59760E-02 5.20271E-23
7.83043E-02 4.91112E-23
8.06647E-02 4.64009E-23
8.30571E-02 4.38786E-23
8.54812E-02 4.15286E-23
8.79369E-02 3.93369E-23
9.04240E-02 3.72906E-23
9.29422E-02 3.53782E-23
9.54915E-02 3.35890E-23
9.80716E-02 3.19134E-23
1.00682E-01 3.03430E-23
1.03323E-01 2.88697E-23
1.05995E-01 2.74862E-23
1.08696E-01 2.61859E-23
1.11427E-01 2.49629E-23
1.14188E-01 2.38117E-23
1.16978E-01 2.27270E-23
1.19797E-01 2.17043E-23
1.22645E-01 2.07393E-23
1.25522E-01 1.98282E-23
1.28428E-01 1.89672E-23
1.31361E-01 1.81530E-23
1.34323E-01 1.73826E-23
1.37313E-01 1.66532E-23
1.40330E-01 1.59620E-23
1.43375E-01 1.53066E-23
1.46447E-01 1.46850E-23
1.49545E-01 1.40949E-23
1.52671E-01 1.35343E-23
1.55823E-01 1.30016E-23
1.59001E-01 1.24951E-23
1.62205E-01 1.20131E-23
1.65435E-01 1.15543E-23
1.68690E-01 1.11173E-23
1.71970E-01 1.07009E-23
1.75276E-01 1.03039E-23
1.78606E-01 9.92518E-24
1.81961E-01 9.56373E-24
1.85340E-01 9.21862E-24
1.88743E-01 8.88895E-24
1.92169E-01 8.57388E-24
1.95619E-01 8.27263E-24
1.99092E-01 7.98449E-24
2.02589E-01 7.70874E-24
2.06107E-01 7.44474E-24
2.09649E-01 7.19190E-24
2.13212E-01 6.94966E-24
2.16797E-01 6.71745E-24
2.20404E-01 6.49479E-24
2.24032E-01 6.28121E-24
2.27680E-01 6.07625E-24
2.31350E-01 5.87949E-24
2.35040E-01 5.69055E-24
2.38751E-01 5.50904E-24
2.42481E-01 5.33461E-24
2.46231E-01 5.16693E-24
2.50000E-01 5.00568E-24
2.53788E-01 4.85057E-24
2.57595E-01 4.70131E-24
2.61421E-01 4.55764E-24
2.65264E-01 4.41931E-24
2.69126E-01 4.28607E-24
2.73005E-01 4.15770E-24
2.76901E-01 4.03399E-24
2.80814E-01 3.91473E-24
2.84744E-01 3.79973E-24
2.88691E-01 3.68880E-24
2.92653E-01 3.58178E-24
2.96632E-01 3.47849E-24
3.00625E-01 3.37879E-24
3.04634E-01 3.28251E-24
3.08658E-01 3.18952E-24
3.12697E-01 3.09968E-24
3.16749E-01 3.01285E-24
3.20816E-01 2.92893E-24
3.24896E-01 2.84780E-24
3.28990E-01 2.76934E-24
3.33097E-01 2.69345E-24
3.37216E-01 2.62003E-24
3.41348E-01 2.54898E-24
3.45492E-01 2.48020E-24
3.49647E-01 2.41362E-24
3.53814E-01 2.34915E-24
3.57992E-01 2.28670E-24
3.62181E-01 2.22620E-24
3.66381E-01 2.16758E-24
3.70590E-01 2.11077E-24
3.74810E-01 2.05570E-24
3.79039E-01 2.00231E-24
3.83277E-01 1.95054E-24
3.87524E-01 1.90032E-24
3.91780E-01 1.85160E-24
3.96044E-01 1.80433E-24
4.00316E-01 1.75846E-24
4.04596E-01 1.71393E-24
4.08882E-01 1.67070E-24
4.13176E-01 1.62873E-24
4.17476E-01 1.58797E-24
4.21783E-01 1.54838E-24
4.26095E-01 1.50991E-24
4.30413E-01 1.47254E-24
4.34737E-01 1.43622E-24
4.39065E-01 1.40092E-24
4.43398E-01 1.36660E-24
4.47736E-01 1.33324E-24
4.52077E-01 1.30079E-24
4.56422E-01 1.26924E-24
4.60770E-01 1.23854E-24
4.65122E-01 1.20868E-24
4.69476E-01 1.17963E-24
4.73832E-01 1.15135E-24
4.78190E-01 1.12384E-24
4.82550E-01 1.09705E-24
4.86912E-01 1.07097E-24
4.91274E-01 1.04558E-24
4.95637E-01 1.02085E-24
5.00000E-01 9.96766E-25
5.04363E-01 9.73307E-25
5.08726E-01 9.50453E-25
5.13088E-01 9.28186E-25
5.17450E-01 9.06488E-25
5.21810E-01 8.85342E-25
5.26168E-01 8.64731E-25
5.30524E-01 8.44640E-25
5.34878E-01 8.25052E-25
5.39230E-01 8.05953E-25
5.43578E-01 7.87329E-25
5.47923E-01 7.69165E-25
5.52264E-01 7.51449E-25
5.56602E-01 7.34167E-25
5.60935E-01 7.17308E-25
5.65263E-01 7.00858E-25
5.69587E-01 6.84806E-25
5.73905E-01 6.69141E-25
5.78217E-01 6.53852E-25
5.82524E-01 6.38929E-25
5.86824E-01 6.24360E-25
5.91118E-01 6.10137E-25
5.95404E-01 5.96250E-25
5.99684E-01 5.82690E-25
6.03956E-01 5.69447E-25
6.08220E-01 5.56513E-25
6.12476E-01 5.43880E-25
6.16723E-01 5.31539E-25
6.20961E-01 5.19483E-25
6.25190E-01 5.07704E-25
6.29410E-01 4.96195E-25
6.33619E-01 4.84948E-25
6.37819E-01 4.73957E-25
6.42008E-01 4.63215E-25
6.46186E-01 4.52715E-25
6.50353E-01 4.42452E-25
6.54508E-01 4.32419E-25
6.58652E-01 4.22609E-25
6.62784E-01 4.13019E-25
6.66903E-01 4.03641E-25
6.71010E-01 3.94470E-25
6.75104E-01 3.85502E-25
6.79184E-01 3.76731E-25
6.83251E-01 3.68152E-25
6.87303E-01 3.59761E-25
6.91342E-01 3.51552E-25
6.95366E-01 3.43522E-25
6.99375E-01 3.35665E-25
7.03368E-01 3.27979E-25
7.07347E-01 3.20457E-25
7.11309E-01 3.13098E-25
7.15256E-01 3.05896E-25
7.19186E-01 2.98848E-25
7.23099E-01 2.91950E-25
7.26995E-01 2.85198E-25
7.30874E-01 2.78590E-25
7.34736E-01 2.72122E-25
7.38579E-01 2.65790E-25
7.42405E-01 2.59592E-25
7.46212E-01 2.53523E-25
7.50000E-01 2.47582E-25
7.53769E-01 2.41766E-25
7.57519E-01 2.36071E-25
7.61249E-01 2.30494E-25
7.64960E-01 2.25033E-25
7.68650E-01 2.19686E-25
7.72320E-01 2.14450E-25
7.75968E-01 2.09322E-25
7.79596E-01 2.04300E-25
7.83203E-01 1.99382E-25
7.86788E-01 1.94565E-25
7.90351E-01 1.89847E-25
7.93893E-01 1.85226E-25
7.97411E-01 1.80700E-25
8.00908E-01 1.76267E-25
8.04381E-01 1.71924E-25
8.07831E-01 1.67670E-25
8.11257E-01 1.63504E-25
8.14660E-01 1.59422E-25
8.18039E-01 1.55424E-25
8.21394E-01 1.51507E-25
8.24724E-01 1.47671E-25
8.28030E-01 1.43912E-25
8.31310E-01 1.40230E-25
8.34565E-01 1.36624E-25
8.37795E-01 1.33090E-25
8.40999E-01 1.29629E-25
8.44177E-01 1.26239E-25
8.47329E-01 1.22917E-25
8.50455E-01 1.19664E-25
8.53553E-01 1.16476E-25
8.56625E-01 1.13354E-25
8.59670E-01 1.10296E-25
8.62687E-01 1.07301E-25
8.65677E-01 1.04366E-25
8.68639E-01 1.01493E-25
8.71572E-01 9.86777E-26
8.74478E-01 9.59209E-26
8.77355E-01 9.32209E-26
8.80203E-01 9.05767E-26
8.83022E-01 8.79873E-26
8.85812E-01 8.54517E-26
8.88573E-01 8.29688E-26
8.91304E-01 8.05378E-26
8.94005E-01 7.81576E-26
8.96677E-01 7.58274E-26
8.99318E-01 7.35462E-26
9.01928E-01 7.13133E-26
9.04508E-01 6.91278E-26
9.07058E-01 6.69887E-26
9.09576E-01 6.48955E-26
9.12063E-01 6.28471E-26
9.14519E-01 6.08430E-26
9.16943E-01 5.88823E-26
9.19335E-01 5.69644E-26
9.21696E-01 5.50885E-26
9.24024E-01 5.32539E-26
9.26320E-01 5.14600E-26
9.28584E-01 4.97061E-26
9.30815E-01 4.79916E-26
9.33013E-01 4.63159E-26
9.35178E-01 4.46783E-26
9.37310E-01 4.30783E-26
9.39409E-01 4.15154E-26
9.41474E-01 3.99889E-26
9.43505E-01 3.84983E-26
9.45503E-01 3.70430E-26
9.47467E-01 3.56227E-26
9.49397E-01 3.42367E-26
9.51293E-01 3.28847E-26
9.53154E-01 3.15660E-26
9.54981E-01 3.02804E-26
9.56773E-01 2.90272E-26
9.58530E-01 2.78062E-26
9.60252E-01 2.66168E-26
9.61940E-01 2.54586E-26
9.63592E-01 2.43314E-26
9.65209E-01 2.32346E-26
9.66790E-01 2.21679E-26
9.68336E-01 2.11310E-26
9.69846E-01 2.01235E-26
9.71321E-01 1.91450E-26
9.72759E-01 1.81952E-26
9.74162E-01 1.72739E-26
9.75528E-01 1.63807E-26
9.76858E-01 1.55152E-26
9.78152E-01 1.46773E-26
9.79410E-01 1.38666E-26
9.80631E-01 1.30828E-26
9.81815E-01 1.23258E-26
9.82963E-01 1.15952E-26
9.84074E-01 1.08908E-26
9.85148E-01 1.02125E-26
9.86185E-01 9.55981E-27
9.87185E-01 8.93272E-27
9.88148E-01 8.33096E-27
9.89074E-01 7.75434E-27
9.89962E-01 7.20267E-27
9.90814E-01 6.67577E-27
9.91627E-01 6.17346E-27
9.92404E-01 5.69560E-27
9.93143E-01 5.24201E-27
9.93844E-01 4.81256E-27
9.94508E-01 4.40710E-27
9.95134E-01 4.02551E-27
9.95722E-01 3.66765E-27
9.96273E-01 3.33342E-27
9.96786E-01 3.02270E-27
9.97261E-01 2.73540E-27
9.97698E-01 2.47142E-27
9.98097E-01 2.23068E-27
9.98459E-01 2.01310E-27
9.98782E-01 1.81861E-27
9.99067E-01 1.64715E-27
9.99315E-01 1.49866E-27
9.99524E-01 1.37309E-27
9.99695E-01 1.27041E-27
9.99829E-01 1.19058E-27
9.99924E-01 1.13358E-27
9.99981E-01 1.09939E-27
1.00000E+00 1.08799E-27
