 #
 # Subroutine ELSEPA. Elastic scattering of electrons and positrons
 #                    by neutral atoms and positive ions
 #
 # Projectile: electron
 # Kinetic energy = 1.00000E+08 eV = 3.67493E+06 a.u.
 #
 # WARNING: High-energy factorization with free-atom DF screening.
 #          Absorption, polarization and exchange corrections are
 #          switched off.
 #          Phase shifts are calculated for the bare nucleus.
 #          Scattering amplitudes are not evaluated.
 #
 # Element: La,  Z =  57,  atomic weight = 1.38905E+02 g/mol
 #
 # Nuclear model: Fermi distribution
 #                Average radius = 5.54145E-13 cm
 #                Skin thickness = 5.46000E-14 cm
 #
 # Number of electrons = 57
 #
 # Total elastic cross section = 7.53126E-18 cm**2 = 2.68946E-01 a0**2
 # 1st transport cross section = 6.30880E-25 cm**2 = 2.25291E-08 a0**2
 # 2nd transport cross section = 1.87777E-24 cm**2 = 6.70563E-08 a0**2
 #
 #
 # Differential cross section:                       MU=(1-COS(THETA))/2
 #
 #  THETA        MU          DCS          DCS        Sherman      error
 #  (deg)                 (cm**2/sr)   (a0**2/sr)    function
 #----------------------------------------------------------------------
0.00000E+00 1.18902E-09
7.61557E-13 1.18279E-09
1.18994E-12 1.17930E-09
1.71346E-12 1.17507E-09
2.33225E-12 1.17010E-09
3.04617E-12 1.16441E-09
3.85530E-12 1.15802E-09
4.75964E-12 1.15093E-09
5.75917E-12 1.14319E-09
6.85391E-12 1.13480E-09
8.04379E-12 1.12579E-09
9.32893E-12 1.11619E-09
1.07092E-11 1.10603E-09
1.21847E-11 1.09532E-09
1.37554E-11 1.08411E-09
1.54213E-11 1.07242E-09
1.71823E-11 1.06029E-09
1.90386E-11 1.04774E-09
2.09900E-11 1.03480E-09
2.30367E-11 1.02153E-09
2.51785E-11 1.00802E-09
2.74156E-11 9.94171E-10
2.97478E-11 9.80011E-10
3.21752E-11 9.65565E-10
3.46979E-11 9.50860E-10
3.73157E-11 9.36159E-10
4.00286E-11 9.21353E-10
4.28368E-11 9.06368E-10
4.57402E-11 8.91229E-10
4.87388E-11 8.75958E-10
5.18325E-11 8.60677E-10
5.50215E-11 8.45613E-10
5.83057E-11 8.30485E-10
6.16850E-11 8.15313E-10
6.51595E-11 8.00117E-10
6.87293E-11 7.84916E-10
7.23943E-11 7.70069E-10
7.61544E-11 7.55344E-10
1.18991E-10 6.15685E-10
1.71347E-10 4.97522E-10
2.33223E-10 4.02862E-10
3.04617E-10 3.28734E-10
3.85531E-10 2.71146E-10
4.75965E-10 2.26231E-10
5.75917E-10 1.90811E-10
6.85389E-10 1.62473E-10
8.04380E-10 1.39438E-10
9.32891E-10 1.20458E-10
1.07092E-09 1.04640E-10
1.21847E-09 9.13291E-11
1.37554E-09 8.00427E-11
1.54213E-09 7.04114E-11
1.71823E-09 6.21442E-11
1.90386E-09 5.50315E-11
2.09900E-09 4.88915E-11
2.30367E-09 4.35276E-11
2.51785E-09 3.87014E-11
2.74156E-09 3.46169E-11
2.97478E-09 3.11393E-11
3.21752E-09 2.81613E-11
3.46978E-09 2.55970E-11
3.73156E-09 2.31954E-11
4.00286E-09 2.10446E-11
4.28368E-09 1.91750E-11
4.57402E-09 1.75426E-11
4.87388E-09 1.61111E-11
5.18326E-09 1.48212E-11
5.50215E-09 1.35979E-11
5.83057E-09 1.25168E-11
6.16850E-09 1.15580E-11
6.51596E-09 1.07047E-11
6.87293E-09 9.94286E-12
7.23942E-09 9.20996E-12
7.61544E-09 8.54043E-12
1.18991E-08 4.34770E-12
1.71347E-08 2.40815E-12
2.33223E-08 1.43221E-12
3.04617E-08 9.09822E-13
3.85531E-08 6.10322E-13
4.75965E-08 4.27232E-13
5.75917E-08 3.09034E-13
6.85389E-08 2.28953E-13
8.04380E-08 1.73073E-13
9.32891E-08 1.33085E-13
1.07092E-07 1.03825E-13
1.21847E-07 8.20437E-14
1.37554E-07 6.56111E-14
1.54213E-07 5.30646E-14
1.71823E-07 4.33673E-14
1.90386E-07 3.57846E-14
2.09900E-07 2.97884E-14
2.30367E-07 2.49968E-14
2.51785E-07 2.11302E-14
2.74156E-07 1.80036E-14
2.97478E-07 1.54238E-14
3.21752E-07 1.33017E-14
3.46978E-07 1.15282E-14
3.73156E-07 1.00453E-14
4.00286E-07 8.79285E-15
4.28368E-07 7.73088E-15
4.57402E-07 6.82519E-15
4.87388E-07 6.04753E-15
5.18325E-07 5.37895E-15
5.50215E-07 4.79883E-15
5.83057E-07 4.29646E-15
6.16850E-07 3.85639E-15
6.51596E-07 3.47249E-15
6.87293E-07 3.13407E-15
7.23942E-07 2.83648E-15
7.61543E-07 2.57292E-15
1.18991E-06 1.08397E-15
1.71347E-06 5.31548E-16
2.33223E-06 2.90148E-16
3.04617E-06 1.71492E-16
3.85531E-06 1.07771E-16
4.75964E-06 7.10957E-17
5.75916E-06 4.87843E-17
6.85388E-06 3.45818E-17
8.04378E-06 2.51930E-17
9.32888E-06 1.87857E-17
1.07092E-05 1.42919E-17
1.21846E-05 1.10650E-17
1.37553E-05 8.69948E-18
1.54212E-05 6.93351E-18
1.71822E-05 5.59368E-18
1.90385E-05 4.56065E-18
2.09899E-05 3.75825E-18
2.30365E-05 3.12443E-18
2.51783E-05 2.61826E-18
2.74153E-05 2.21015E-18
2.97475E-05 1.87833E-18
3.21749E-05 1.60648E-18
3.46974E-05 1.38216E-18
3.73152E-05 1.19578E-18
4.00281E-05 1.03988E-18
4.28362E-05 9.08617E-19
4.57395E-05 7.97427E-19
4.87380E-05 7.02707E-19
5.18317E-05 6.21607E-19
5.50205E-05 5.51852E-19
5.83045E-05 4.91602E-19
6.16838E-05 4.39360E-19
6.51582E-05 3.93889E-19
6.87277E-05 3.54165E-19
7.23925E-05 3.19336E-19
7.61524E-05 2.88958E-19
9.21439E-05 1.97647E-19
1.09658E-04 1.39729E-19
1.28695E-04 1.01578E-19
1.49255E-04 7.56068E-20
1.71338E-04 5.74407E-20
1.94942E-04 4.44212E-20
2.20070E-04 3.48945E-20
2.46720E-04 2.77934E-20
2.74892E-04 2.24122E-20
3.04586E-04 1.82747E-20
3.35803E-04 1.50507E-20
3.68542E-04 1.25085E-20
4.02802E-04 1.04821E-20
4.38585E-04 8.85055E-21
4.75889E-04 7.52510E-21
5.14715E-04 6.43921E-21
5.55063E-04 5.54272E-21
5.96931E-04 4.79729E-21
6.40321E-04 4.17333E-21
6.85233E-04 3.64783E-21
7.31665E-04 3.20268E-21
7.79618E-04 2.82357E-21
8.29092E-04 2.49907E-21
8.80086E-04 2.21999E-21
9.32601E-04 1.97889E-21
9.86636E-04 1.76974E-21
1.04219E-03 1.58757E-21
1.09927E-03 1.42831E-21
1.15786E-03 1.28858E-21
1.21797E-03 1.16556E-21
1.27961E-03 1.05692E-21
1.34276E-03 9.60682E-22
1.40743E-03 8.75176E-22
1.47362E-03 7.98999E-22
1.54133E-03 7.30953E-22
1.61056E-03 6.70016E-22
1.68131E-03 6.15314E-22
1.75357E-03 5.66094E-22
1.82735E-03 5.21710E-22
1.90265E-03 4.81601E-22
1.97947E-03 4.45282E-22
2.05780E-03 4.12329E-22
2.13765E-03 3.82375E-22
2.21902E-03 3.55097E-22
2.30190E-03 3.30210E-22
2.38630E-03 3.07469E-22
2.47222E-03 2.86655E-22
2.55965E-03 2.67575E-22
2.64859E-03 2.50058E-22
2.73905E-03 2.33953E-22
2.83103E-03 2.19125E-22
2.92452E-03 2.05454E-22
3.01952E-03 1.92833E-22
3.11604E-03 1.81167E-22
3.21407E-03 1.70370E-22
3.31362E-03 1.60365E-22
3.41468E-03 1.51084E-22
3.51725E-03 1.42464E-22
3.62133E-03 1.34450E-22
3.72692E-03 1.26991E-22
3.83403E-03 1.20042E-22
3.94265E-03 1.13561E-22
4.05278E-03 1.07511E-22
4.16442E-03 1.01858E-22
4.27757E-03 9.65702E-23
4.39223E-03 9.16206E-23
4.50840E-03 8.69834E-23
4.62608E-03 8.26349E-23
4.74527E-03 7.85540E-23
4.86597E-03 7.47210E-23
4.98817E-03 7.11182E-23
5.11188E-03 6.77290E-23
5.23711E-03 6.45384E-23
5.36383E-03 6.15326E-23
5.49207E-03 5.86989E-23
5.62181E-03 5.60256E-23
5.75306E-03 5.35020E-23
5.88581E-03 5.11180E-23
6.02007E-03 4.88644E-23
6.15583E-03 4.67329E-23
6.29310E-03 4.47155E-23
6.43187E-03 4.28050E-23
6.57214E-03 4.09947E-23
6.71392E-03 3.92783E-23
6.85720E-03 3.76500E-23
7.00198E-03 3.61045E-23
7.14827E-03 3.46367E-23
7.29605E-03 3.32421E-23
7.44534E-03 3.19163E-23
7.59612E-03 3.06552E-23
7.97965E-03 2.77617E-23
8.37255E-03 2.51980E-23
8.77480E-03 2.29200E-23
9.18641E-03 2.08904E-23
9.60736E-03 1.90774E-23
1.00376E-02 1.74539E-23
1.04773E-02 1.59967E-23
1.09262E-02 1.46858E-23
1.13844E-02 1.35039E-23
1.18520E-02 1.24363E-23
1.23288E-02 1.14699E-23
1.28150E-02 1.05935E-23
1.33104E-02 9.79727E-24
1.38150E-02 9.07260E-24
1.43290E-02 8.41196E-24
1.48521E-02 7.80873E-24
1.53845E-02 7.25705E-24
1.59262E-02 6.75178E-24
1.64770E-02 6.28835E-24
1.70371E-02 5.86269E-24
1.76063E-02 5.47121E-24
1.81848E-02 5.11070E-24
1.87724E-02 4.77829E-24
1.93692E-02 4.47144E-24
1.99751E-02 4.18783E-24
2.05901E-02 3.92542E-24
2.12143E-02 3.68237E-24
2.18476E-02 3.45699E-24
2.24900E-02 3.24781E-24
2.31415E-02 3.05345E-24
2.38021E-02 2.87271E-24
2.44717E-02 2.70446E-24
2.51504E-02 2.54771E-24
2.58382E-02 2.40155E-24
2.65349E-02 2.26513E-24
2.72407E-02 2.13772E-24
2.79555E-02 2.01861E-24
2.86793E-02 1.90719E-24
2.94120E-02 1.80288E-24
3.01537E-02 1.70516E-24
3.09043E-02 1.61353E-24
3.16639E-02 1.52757E-24
3.24324E-02 1.44688E-24
3.32098E-02 1.37107E-24
3.39961E-02 1.29981E-24
3.47912E-02 1.23278E-24
3.55952E-02 1.16970E-24
3.64081E-02 1.11029E-24
3.72297E-02 1.05432E-24
3.80602E-02 1.00155E-24
3.88995E-02 9.51779E-25
3.97476E-02 9.04806E-25
4.06044E-02 8.60454E-25
4.14700E-02 8.18555E-25
4.23443E-02 7.78954E-25
4.32273E-02 7.41507E-25
4.41190E-02 7.06083E-25
4.50194E-02 6.72555E-25
4.59284E-02 6.40809E-25
4.68461E-02 6.10737E-25
4.87074E-02 5.55223E-25
5.06030E-02 5.05290E-25
5.25328E-02 4.60309E-25
5.44967E-02 4.19731E-25
5.64946E-02 3.83073E-25
5.85262E-02 3.49914E-25
6.05914E-02 3.19882E-25
6.26901E-02 2.92650E-25
6.48222E-02 2.67929E-25
6.69873E-02 2.45464E-25
6.91854E-02 2.25027E-25
7.14163E-02 2.06417E-25
7.36799E-02 1.89454E-25
7.59760E-02 1.73980E-25
7.83043E-02 1.59852E-25
8.06647E-02 1.46942E-25
8.30571E-02 1.35136E-25
8.54812E-02 1.24331E-25
8.79369E-02 1.14437E-25
9.04240E-02 1.05369E-25
9.29422E-02 9.70546E-26
9.54915E-02 8.94258E-26
9.80716E-02 8.24221E-26
1.00682E-01 7.59889E-26
1.03323E-01 7.00766E-26
1.05995E-01 6.46405E-26
1.08696E-01 5.96398E-26
1.11427E-01 5.50377E-26
1.14188E-01 5.08007E-26
1.16978E-01 4.68983E-26
1.19797E-01 4.33028E-26
1.22645E-01 3.99888E-26
1.25522E-01 3.69334E-26
1.28428E-01 3.41155E-26
1.31361E-01 3.15159E-26
1.34323E-01 2.91171E-26
1.37313E-01 2.69030E-26
1.40330E-01 2.48589E-26
1.43375E-01 2.29714E-26
1.46447E-01 2.12282E-26
1.49545E-01 1.96179E-26
1.52671E-01 1.81302E-26
1.55823E-01 1.67555E-26
1.59001E-01 1.54851E-26
1.62205E-01 1.43110E-26
1.65435E-01 1.32256E-26
1.68690E-01 1.22224E-26
1.71970E-01 1.12948E-26
1.75276E-01 1.04373E-26
1.78606E-01 9.64448E-27
1.81961E-01 8.91142E-27
1.85340E-01 8.23361E-27
1.88743E-01 7.60689E-27
1.92169E-01 7.02741E-27
1.95619E-01 6.49162E-27
1.99092E-01 5.99624E-27
2.02589E-01 5.53824E-27
2.06107E-01 5.11482E-27
2.09649E-01 4.72340E-27
2.13212E-01 4.36157E-27
2.16797E-01 4.02714E-27
2.20404E-01 3.71806E-27
2.24032E-01 3.43243E-27
2.27680E-01 3.16851E-27
2.31350E-01 2.92466E-27
2.35040E-01 2.69941E-27
2.38751E-01 2.49135E-27
2.42481E-01 2.29921E-27
2.46231E-01 2.12179E-27
2.50000E-01 1.95799E-27
2.53788E-01 1.80679E-27
2.57595E-01 1.66725E-27
2.61421E-01 1.53850E-27
2.65264E-01 1.41971E-27
2.69126E-01 1.31014E-27
2.73005E-01 1.20910E-27
2.76901E-01 1.11594E-27
2.80814E-01 1.03007E-27
2.84744E-01 9.50920E-28
2.88691E-01 8.77996E-28
2.92653E-01 8.10816E-28
2.96632E-01 7.48943E-28
3.00625E-01 6.91970E-28
3.04634E-01 6.39520E-28
3.08658E-01 5.91244E-28
3.12697E-01 5.46821E-28
3.16749E-01 5.05950E-28
3.20816E-01 4.68357E-28
3.24896E-01 4.33784E-28
3.28990E-01 4.01995E-28
3.33097E-01 3.72771E-28
3.37216E-01 3.45910E-28
3.41348E-01 3.21224E-28
3.45492E-01 2.98541E-28
3.49647E-01 2.77699E-28
3.53814E-01 2.58552E-28
3.57992E-01 2.40964E-28
3.62181E-01 2.24806E-28
3.66381E-01 2.09965E-28
3.70590E-01 1.96331E-28
3.74810E-01 1.83806E-28
3.79039E-01 1.72298E-28
3.83277E-01 1.61724E-28
3.87524E-01 1.52005E-28
3.91780E-01 1.43069E-28
3.96044E-01 1.34852E-28
4.00316E-01 1.27292E-28
4.04596E-01 1.20334E-28
4.08882E-01 1.13925E-28
4.13176E-01 1.08020E-28
4.17476E-01 1.02574E-28
4.21783E-01 9.75486E-29
4.26095E-01 9.29063E-29
4.30413E-01 8.86137E-29
4.34737E-01 8.46404E-29
4.39065E-01 8.09581E-29
4.43398E-01 7.75410E-29
4.47736E-01 7.43656E-29
4.52077E-01 7.14104E-29
4.56422E-01 6.86557E-29
4.60770E-01 6.60835E-29
4.65122E-01 6.36774E-29
4.69476E-01 6.14225E-29
4.73832E-01 5.93051E-29
4.78190E-01 5.73129E-29
4.82550E-01 5.54346E-29
4.86912E-01 5.36600E-29
4.91274E-01 5.19797E-29
4.95637E-01 5.03854E-29
5.00000E-01 4.88694E-29
5.04363E-01 4.74248E-29
5.08726E-01 4.60454E-29
5.13088E-01 4.47255E-29
5.17450E-01 4.34601E-29
5.21810E-01 4.22446E-29
5.26168E-01 4.10749E-29
5.30524E-01 3.99472E-29
5.34878E-01 3.88583E-29
5.39230E-01 3.78052E-29
5.43578E-01 3.67852E-29
5.47923E-01 3.57959E-29
5.52264E-01 3.48352E-29
5.56602E-01 3.39012E-29
5.60935E-01 3.29923E-29
5.65263E-01 3.21069E-29
5.69587E-01 3.12436E-29
5.73905E-01 3.04014E-29
5.78217E-01 2.95792E-29
5.82524E-01 2.87760E-29
5.86824E-01 2.79911E-29
5.91118E-01 2.72237E-29
5.95404E-01 2.64731E-29
5.99684E-01 2.57389E-29
6.03956E-01 2.50204E-29
6.08220E-01 2.43174E-29
6.12476E-01 2.36293E-29
6.16723E-01 2.29559E-29
6.20961E-01 2.22968E-29
6.25190E-01 2.16518E-29
6.29410E-01 2.10206E-29
6.33619E-01 2.04030E-29
6.37819E-01 1.97987E-29
6.42008E-01 1.92077E-29
6.46186E-01 1.86297E-29
6.50353E-01 1.80646E-29
6.54508E-01 1.75122E-29
6.58652E-01 1.69723E-29
6.62784E-01 1.64449E-29
6.66903E-01 1.59298E-29
6.71010E-01 1.54268E-29
6.75104E-01 1.49358E-29
6.79184E-01 1.44568E-29
6.83251E-01 1.39894E-29
6.87303E-01 1.35337E-29
6.91342E-01 1.30894E-29
6.95366E-01 1.26564E-29
6.99375E-01 1.22346E-29
7.03368E-01 1.18239E-29
7.07347E-01 1.14240E-29
7.11309E-01 1.10348E-29
7.15256E-01 1.06562E-29
7.19186E-01 1.02880E-29
7.23099E-01 9.93011E-30
7.26995E-01 9.58226E-30
7.30874E-01 9.24432E-30
7.34736E-01 8.91612E-30
7.38579E-01 8.59749E-30
7.42405E-01 8.28825E-30
7.46212E-01 7.98823E-30
7.50000E-01 7.69726E-30
7.53769E-01 7.41515E-30
7.57519E-01 7.14171E-30
7.61249E-01 6.87678E-30
7.64960E-01 6.62016E-30
7.68650E-01 6.37168E-30
7.72320E-01 6.13115E-30
7.75968E-01 5.89840E-30
7.79596E-01 5.67323E-30
7.83203E-01 5.45546E-30
7.86788E-01 5.24493E-30
7.90351E-01 5.04143E-30
7.93893E-01 4.84481E-30
7.97411E-01 4.65488E-30
8.00908E-01 4.47146E-30
8.04381E-01 4.29438E-30
8.07831E-01 4.12347E-30
8.11257E-01 3.95856E-30
8.14660E-01 3.79948E-30
8.18039E-01 3.64607E-30
8.21394E-01 3.49815E-30
8.24724E-01 3.35558E-30
8.28030E-01 3.21819E-30
8.31310E-01 3.08582E-30
8.34565E-01 2.95833E-30
8.37795E-01 2.83555E-30
8.40999E-01 2.71736E-30
8.44177E-01 2.60360E-30
8.47329E-01 2.49412E-30
8.50455E-01 2.38880E-30
8.53553E-01 2.28749E-30
8.56625E-01 2.19007E-30
8.59670E-01 2.09639E-30
8.62687E-01 2.00635E-30
8.65677E-01 1.91981E-30
8.68639E-01 1.83666E-30
8.71572E-01 1.75677E-30
8.74478E-01 1.68004E-30
8.77355E-01 1.60635E-30
8.80203E-01 1.53560E-30
8.83022E-01 1.46767E-30
8.85812E-01 1.40247E-30
8.88573E-01 1.33990E-30
8.91304E-01 1.27986E-30
8.94005E-01 1.22226E-30
8.96677E-01 1.16700E-30
8.99318E-01 1.11401E-30
9.01928E-01 1.06319E-30
9.04508E-01 1.01447E-30
9.07058E-01 9.67757E-31
9.09576E-01 9.22982E-31
9.12063E-01 8.80067E-31
9.14519E-01 8.38942E-31
9.16943E-01 7.99536E-31
9.19335E-01 7.61782E-31
9.21696E-01 7.25615E-31
9.24024E-01 6.90972E-31
9.26320E-01 6.57793E-31
9.28584E-01 6.26020E-31
9.30815E-01 5.95595E-31
9.33013E-01 5.66465E-31
9.35178E-01 5.38578E-31
9.37310E-01 5.11883E-31
9.39409E-01 4.86333E-31
9.41474E-01 4.61879E-31
9.43505E-01 4.38478E-31
9.45503E-01 4.16087E-31
9.47467E-01 3.94664E-31
9.49397E-01 3.74169E-31
9.51293E-01 3.54565E-31
9.53154E-01 3.35815E-31
9.54981E-01 3.17883E-31
9.56773E-01 3.00736E-31
9.58530E-01 2.84342E-31
9.60252E-01 2.68669E-31
9.61940E-01 2.53689E-31
9.63592E-01 2.39372E-31
9.65209E-01 2.25691E-31
9.66790E-01 2.12621E-31
9.68336E-01 2.00136E-31
9.69846E-01 1.88214E-31
9.71321E-01 1.76830E-31
9.72759E-01 1.65963E-31
9.74162E-01 1.55594E-31
9.75528E-01 1.45701E-31
9.76858E-01 1.36266E-31
9.78152E-01 1.27271E-31
9.79410E-01 1.18700E-31
9.80631E-01 1.10534E-31
9.81815E-01 1.02760E-31
9.82963E-01 9.53626E-32
9.84074E-01 8.83272E-32
9.85148E-01 8.16409E-32
9.86185E-01 7.52909E-32
9.87185E-01 6.92654E-32
9.88148E-01 6.35529E-32
9.89074E-01 5.81428E-32
9.89962E-01 5.30248E-32
9.90814E-01 4.81895E-32
9.91627E-01 4.36278E-32
9.92404E-01 3.93311E-32
9.93143E-01 3.52916E-32
9.93844E-01 3.15017E-32
9.94508E-01 2.79544E-32
9.95134E-01 2.46431E-32
9.95722E-01 2.15618E-32
9.96273E-01 1.87048E-32
9.96786E-01 1.60668E-32
9.97261E-01 1.36430E-32
9.97698E-01 1.14290E-32
9.98097E-01 9.42073E-33
9.98459E-01 7.61454E-33
9.98782E-01 6.00717E-33
9.99067E-01 4.59567E-33
9.99315E-01 3.37749E-33
9.99524E-01 2.35043E-33
9.99695E-01 1.51262E-33
9.99829E-01 8.62562E-34
9.99924E-01 3.99064E-34
9.99981E-01 1.21304E-34
1.00000E+00 2.87769E-35
