 #
 # Subroutine ELSEPA. Elastic scattering of electrons and positrons
 #                    by neutral atoms and positive ions
 #
 # Projectile: electron
 # Kinetic energy = 7.00000E+06 eV = 2.57245E+05 a.u.
 #
 # WARNING: High-energy factorization with free-atom DF screening.
 #          Absorption, polarization and exchange corrections are
 #          switched off.
 #          Phase shifts are calculated for the bare nucleus.
 #          Scattering amplitudes are not evaluated.
 #
 # Element: Tb,  Z =  65,  atomic weight = 1.58925E+02 g/mol
 #
 # Nuclear model: Fermi distribution
 #                Average radius = 5.79582E-13 cm
 #                Skin thickness = 5.46000E-14 cm
 #
 # Number of electrons = 65
 #
 # Total elastic cross section = 7.18534E-18 cm**2 = 2.56593E-01 a0**2
 # 1st transport cross section = 1.28365E-22 cm**2 = 4.58399E-06 a0**2
 # 2nd transport cross section = 3.54405E-22 cm**2 = 1.26560E-05 a0**2
 #
 #
 # Differential cross section:                       MU=(1-COS(THETA))/2
 #
 #  THETA        MU          DCS          DCS        Sherman      error
 #  (deg)                 (cm**2/sr)   (a0**2/sr)    function
 #----------------------------------------------------------------------
0.00000E+00 4.60959E-12
7.61557E-13 4.60946E-12
1.18994E-12 4.60939E-12
1.71346E-12 4.60931E-12
2.33225E-12 4.60920E-12
3.04617E-12 4.60909E-12
3.85530E-12 4.60896E-12
4.75964E-12 4.60881E-12
5.75917E-12 4.60864E-12
6.85391E-12 4.60847E-12
8.04379E-12 4.60827E-12
9.32893E-12 4.60806E-12
1.07092E-11 4.60784E-12
1.21847E-11 4.60760E-12
1.37554E-11 4.60734E-12
1.54213E-11 4.60707E-12
1.71823E-11 4.60678E-12
1.90386E-11 4.60648E-12
2.09900E-11 4.60616E-12
2.30367E-11 4.60583E-12
2.51785E-11 4.60548E-12
2.74156E-11 4.60511E-12
2.97478E-11 4.60473E-12
3.21752E-11 4.60434E-12
3.46979E-11 4.60393E-12
3.73157E-11 4.60350E-12
4.00286E-11 4.60306E-12
4.28368E-11 4.60260E-12
4.57402E-11 4.60213E-12
4.87388E-11 4.60164E-12
5.18325E-11 4.60114E-12
5.50215E-11 4.60062E-12
5.83057E-11 4.60009E-12
6.16850E-11 4.59954E-12
6.51595E-11 4.59897E-12
6.87293E-11 4.59839E-12
7.23943E-11 4.59780E-12
7.61544E-11 4.59718E-12
1.18991E-10 4.59024E-12
1.71347E-10 4.58177E-12
2.33223E-10 4.57179E-12
3.04617E-10 4.56033E-12
3.85531E-10 4.54740E-12
4.75965E-10 4.53302E-12
5.75917E-10 4.51721E-12
6.85389E-10 4.50000E-12
8.04380E-10 4.48142E-12
9.32891E-10 4.46150E-12
1.07092E-09 4.44026E-12
1.21847E-09 4.41775E-12
1.37554E-09 4.39400E-12
1.54213E-09 4.36904E-12
1.71823E-09 4.34291E-12
1.90386E-09 4.31565E-12
2.09900E-09 4.28731E-12
2.30367E-09 4.25791E-12
2.51785E-09 4.22752E-12
2.74156E-09 4.19616E-12
2.97478E-09 4.16388E-12
3.21752E-09 4.13073E-12
3.46978E-09 4.09676E-12
3.73156E-09 4.06200E-12
4.00286E-09 4.02651E-12
4.28368E-09 3.99054E-12
4.57402E-09 3.95395E-12
4.87388E-09 3.91668E-12
5.18326E-09 3.87875E-12
5.50215E-09 3.84021E-12
5.83057E-09 3.80109E-12
6.16850E-09 3.76144E-12
6.51596E-09 3.72163E-12
6.87293E-09 3.68189E-12
7.23942E-09 3.64173E-12
7.61544E-09 3.60119E-12
1.18991E-08 3.18888E-12
1.71347E-08 2.78874E-12
2.33223E-08 2.42239E-12
3.04617E-08 2.09908E-12
3.85531E-08 1.82327E-12
4.75965E-08 1.59053E-12
5.75917E-08 1.39553E-12
6.85389E-08 1.23327E-12
8.04380E-08 1.09696E-12
9.32891E-08 9.81892E-13
1.07092E-07 8.83931E-13
1.21847E-07 7.99686E-13
1.37554E-07 7.26477E-13
1.54213E-07 6.62282E-13
1.71823E-07 6.05637E-13
1.90386E-07 5.55047E-13
2.09900E-07 5.09786E-13
2.30367E-07 4.69099E-13
2.51785E-07 4.32168E-13
2.74156E-07 3.98761E-13
2.97478E-07 3.68371E-13
3.21752E-07 3.40623E-13
3.46978E-07 3.15362E-13
3.73156E-07 2.92223E-13
4.00286E-07 2.71054E-13
4.28368E-07 2.50437E-13
4.57402E-07 2.31579E-13
4.87388E-07 2.14850E-13
5.18325E-07 1.99959E-13
5.50215E-07 1.86661E-13
5.83057E-07 1.74749E-13
6.16850E-07 1.64046E-13
6.51596E-07 1.53694E-13
6.87293E-07 1.43316E-13
7.23942E-07 1.33968E-13
7.61543E-07 1.25527E-13
1.18991E-06 6.98085E-14
1.71347E-06 4.16793E-14
2.33223E-06 2.62241E-14
3.04617E-06 1.72318E-14
3.85531E-06 1.16809E-14
4.75964E-06 8.17357E-15
5.75916E-06 5.89014E-15
6.85388E-06 4.35405E-15
8.04378E-06 3.29753E-15
9.32888E-06 2.55000E-15
1.07092E-05 2.00721E-15
1.21846E-05 1.60354E-15
1.37553E-05 1.29823E-15
1.54212E-05 1.06325E-15
1.71822E-05 8.79599E-16
1.90385E-05 7.33209E-16
2.09899E-05 6.16437E-16
2.30365E-05 5.21760E-16
2.51783E-05 4.44209E-16
2.74153E-05 3.80425E-16
2.97475E-05 3.27578E-16
3.21749E-05 2.83508E-16
3.46974E-05 2.46591E-16
3.73152E-05 2.15456E-16
4.00281E-05 1.89077E-16
4.28362E-05 1.66529E-16
4.57395E-05 1.47292E-16
4.87380E-05 1.30841E-16
5.18317E-05 1.16530E-16
5.50205E-05 1.04136E-16
5.83045E-05 9.33960E-17
6.16838E-05 8.39512E-17
6.51582E-05 7.56920E-17
6.87277E-05 6.84569E-17
7.23925E-05 6.20351E-17
7.61524E-05 5.63662E-17
9.21439E-05 3.92705E-17
1.09658E-04 2.81922E-17
1.28695E-04 2.07723E-17
1.49255E-04 1.56427E-17
1.71338E-04 1.20032E-17
1.94942E-04 9.36454E-18
2.20070E-04 7.41209E-18
2.46720E-04 5.94274E-18
2.74892E-04 4.82016E-18
3.04586E-04 3.95007E-18
3.35803E-04 3.26769E-18
3.68542E-04 2.72651E-18
4.02802E-04 2.29269E-18
4.38585E-04 1.94188E-18
4.75889E-04 1.65568E-18
5.14715E-04 1.42031E-18
5.55063E-04 1.22538E-18
5.96931E-04 1.06278E-18
6.40321E-04 9.26321E-19
6.85233E-04 8.11123E-19
7.31665E-04 7.13306E-19
7.79618E-04 6.29837E-19
8.29092E-04 5.58259E-19
8.80086E-04 4.96586E-19
9.32601E-04 4.43227E-19
9.86636E-04 3.96866E-19
1.04219E-03 3.56429E-19
1.09927E-03 3.21032E-19
1.15786E-03 2.89935E-19
1.21797E-03 2.62527E-19
1.27961E-03 2.38296E-19
1.34276E-03 2.16806E-19
1.40743E-03 1.97695E-19
1.47362E-03 1.80653E-19
1.54133E-03 1.65414E-19
1.61056E-03 1.51757E-19
1.68131E-03 1.39486E-19
1.75357E-03 1.28436E-19
1.82735E-03 1.18464E-19
1.90265E-03 1.09446E-19
1.97947E-03 1.01273E-19
2.05780E-03 9.38535E-20
2.13765E-03 8.71036E-20
2.21902E-03 8.09532E-20
2.30190E-03 7.53388E-20
2.38630E-03 7.02053E-20
2.47222E-03 6.55040E-20
2.55965E-03 6.11918E-20
2.64859E-03 5.72305E-20
2.73905E-03 5.35865E-20
2.83103E-03 5.02295E-20
2.92452E-03 4.71329E-20
3.01952E-03 4.42727E-20
3.11604E-03 4.16274E-20
3.21407E-03 3.91780E-20
3.31362E-03 3.69073E-20
3.41468E-03 3.47997E-20
3.51725E-03 3.28415E-20
3.62133E-03 3.10200E-20
3.72692E-03 2.93238E-20
3.83403E-03 2.77429E-20
3.94265E-03 2.62677E-20
4.05278E-03 2.48901E-20
4.16442E-03 2.36021E-20
4.27757E-03 2.23972E-20
4.39223E-03 2.12686E-20
4.50840E-03 2.02109E-20
4.62608E-03 1.92185E-20
4.74527E-03 1.82869E-20
4.86597E-03 1.74114E-20
4.98817E-03 1.65882E-20
5.11188E-03 1.58134E-20
5.23711E-03 1.50838E-20
5.36383E-03 1.43961E-20
5.49207E-03 1.37475E-20
5.62181E-03 1.31354E-20
5.75306E-03 1.25572E-20
5.88581E-03 1.20108E-20
6.02007E-03 1.14941E-20
6.15583E-03 1.10051E-20
6.29310E-03 1.05422E-20
6.43187E-03 1.01035E-20
6.57214E-03 9.68769E-21
6.71392E-03 9.29323E-21
6.85720E-03 8.91889E-21
7.00198E-03 8.56337E-21
7.14827E-03 8.22561E-21
7.29605E-03 7.90448E-21
7.44534E-03 7.59908E-21
7.59612E-03 7.30843E-21
7.97965E-03 6.64101E-21
8.37255E-03 6.04886E-21
8.77480E-03 5.52201E-21
9.18641E-03 5.05195E-21
9.60736E-03 4.63145E-21
1.00376E-02 4.25435E-21
1.04773E-02 3.91534E-21
1.09262E-02 3.60988E-21
1.13844E-02 3.33404E-21
1.18520E-02 3.08441E-21
1.23288E-02 2.85805E-21
1.28150E-02 2.65238E-21
1.33104E-02 2.46516E-21
1.38150E-02 2.29443E-21
1.43290E-02 2.13845E-21
1.48521E-02 1.99573E-21
1.53845E-02 1.86491E-21
1.59262E-02 1.74482E-21
1.64770E-02 1.63441E-21
1.70371E-02 1.53275E-21
1.76063E-02 1.43901E-21
1.81848E-02 1.35246E-21
1.87724E-02 1.27245E-21
1.93692E-02 1.19838E-21
1.99751E-02 1.12972E-21
2.05901E-02 1.06601E-21
2.12143E-02 1.00682E-21
2.18476E-02 9.51768E-22
2.24900E-02 9.00503E-22
2.31415E-02 8.52718E-22
2.38021E-02 8.08128E-22
2.44717E-02 7.66479E-22
2.51504E-02 7.27538E-22
2.58382E-02 6.91094E-22
2.65349E-02 6.56956E-22
2.72407E-02 6.24948E-22
2.79555E-02 5.94912E-22
2.86793E-02 5.66701E-22
2.94120E-02 5.40183E-22
3.01537E-02 5.15236E-22
3.09043E-02 4.91747E-22
3.16639E-02 4.69616E-22
3.24324E-02 4.48746E-22
3.32098E-02 4.29052E-22
3.39961E-02 4.10454E-22
3.47912E-02 3.92880E-22
3.55952E-02 3.76260E-22
3.64081E-02 3.60533E-22
3.72297E-02 3.45641E-22
3.80602E-02 3.31530E-22
3.88995E-02 3.18152E-22
3.97476E-02 3.05460E-22
4.06044E-02 2.93412E-22
4.14700E-02 2.81969E-22
4.23443E-02 2.71093E-22
4.32273E-02 2.60751E-22
4.41190E-02 2.50912E-22
4.50194E-02 2.41546E-22
4.59284E-02 2.32625E-22
4.68461E-02 2.24124E-22
4.87074E-02 2.08288E-22
5.06030E-02 1.93864E-22
5.25328E-02 1.80702E-22
5.44967E-02 1.68670E-22
5.64946E-02 1.57651E-22
5.85262E-02 1.47543E-22
6.05914E-02 1.38256E-22
6.26901E-02 1.29709E-22
6.48222E-02 1.21831E-22
6.69873E-02 1.14561E-22
6.91854E-02 1.07840E-22
7.14163E-02 1.01619E-22
7.36799E-02 9.58540E-23
7.59760E-02 9.05038E-23
7.83043E-02 8.55327E-23
8.06647E-02 8.09083E-23
8.30571E-02 7.66013E-23
8.54812E-02 7.25854E-23
8.79369E-02 6.88369E-23
9.04240E-02 6.53343E-23
9.29422E-02 6.20581E-23
9.54915E-02 5.89905E-23
9.80716E-02 5.61155E-23
1.00682E-01 5.34184E-23
1.03323E-01 5.08860E-23
1.05995E-01 4.85060E-23
1.08696E-01 4.62673E-23
1.11427E-01 4.41597E-23
1.14188E-01 4.21740E-23
1.16978E-01 4.03016E-23
1.19797E-01 3.85346E-23
1.22645E-01 3.68658E-23
1.25522E-01 3.52887E-23
1.28428E-01 3.37970E-23
1.31361E-01 3.23853E-23
1.34323E-01 3.10482E-23
1.37313E-01 2.97809E-23
1.40330E-01 2.85791E-23
1.43375E-01 2.74387E-23
1.46447E-01 2.63557E-23
1.49545E-01 2.53268E-23
1.52671E-01 2.43486E-23
1.55823E-01 2.34180E-23
1.59001E-01 2.25323E-23
1.62205E-01 2.16888E-23
1.65435E-01 2.08851E-23
1.68690E-01 2.01189E-23
1.71970E-01 1.93880E-23
1.75276E-01 1.86906E-23
1.78606E-01 1.80246E-23
1.81961E-01 1.73884E-23
1.85340E-01 1.67804E-23
1.88743E-01 1.61990E-23
1.92169E-01 1.56429E-23
1.95619E-01 1.51106E-23
1.99092E-01 1.46010E-23
2.02589E-01 1.41128E-23
2.06107E-01 1.36450E-23
2.09649E-01 1.31965E-23
2.13212E-01 1.27664E-23
2.16797E-01 1.23537E-23
2.20404E-01 1.19577E-23
2.24032E-01 1.15773E-23
2.27680E-01 1.12120E-23
2.31350E-01 1.08610E-23
2.35040E-01 1.05235E-23
2.38751E-01 1.01991E-23
2.42481E-01 9.88696E-24
2.46231E-01 9.58662E-24
2.50000E-01 9.29753E-24
2.53788E-01 9.01916E-24
2.57595E-01 8.75103E-24
2.61421E-01 8.49270E-24
2.65264E-01 8.24370E-24
2.69126E-01 8.00365E-24
2.73005E-01 7.77215E-24
2.76901E-01 7.54882E-24
2.80814E-01 7.33332E-24
2.84744E-01 7.12531E-24
2.88691E-01 6.92448E-24
2.92653E-01 6.73052E-24
2.96632E-01 6.54315E-24
3.00625E-01 6.36210E-24
3.04634E-01 6.18710E-24
3.08658E-01 6.01792E-24
3.12697E-01 5.85431E-24
3.16749E-01 5.69605E-24
3.20816E-01 5.54294E-24
3.24896E-01 5.39477E-24
3.28990E-01 5.25134E-24
3.33097E-01 5.11246E-24
3.37216E-01 4.97798E-24
3.41348E-01 4.84771E-24
3.45492E-01 4.72150E-24
3.49647E-01 4.59919E-24
3.53814E-01 4.48063E-24
3.57992E-01 4.36570E-24
3.62181E-01 4.25424E-24
3.66381E-01 4.14615E-24
3.70590E-01 4.04128E-24
3.74810E-01 3.93954E-24
3.79039E-01 3.84079E-24
3.83277E-01 3.74495E-24
3.87524E-01 3.65189E-24
3.91780E-01 3.56154E-24
3.96044E-01 3.47378E-24
4.00316E-01 3.38854E-24
4.04596E-01 3.30572E-24
4.08882E-01 3.22524E-24
4.13176E-01 3.14702E-24
4.17476E-01 3.07099E-24
4.21783E-01 2.99706E-24
4.26095E-01 2.92518E-24
4.30413E-01 2.85527E-24
4.34737E-01 2.78727E-24
4.39065E-01 2.72110E-24
4.43398E-01 2.65672E-24
4.47736E-01 2.59406E-24
4.52077E-01 2.53307E-24
4.56422E-01 2.47370E-24
4.60770E-01 2.41590E-24
4.65122E-01 2.35961E-24
4.69476E-01 2.30480E-24
4.73832E-01 2.25140E-24
4.78190E-01 2.19939E-24
4.82550E-01 2.14871E-24
4.86912E-01 2.09932E-24
4.91274E-01 2.05119E-24
4.95637E-01 2.00428E-24
5.00000E-01 1.95855E-24
5.04363E-01 1.91396E-24
5.08726E-01 1.87048E-24
5.13088E-01 1.82808E-24
5.17450E-01 1.78673E-24
5.21810E-01 1.74639E-24
5.26168E-01 1.70704E-24
5.30524E-01 1.66865E-24
5.34878E-01 1.63118E-24
5.39230E-01 1.59462E-24
5.43578E-01 1.55893E-24
5.47923E-01 1.52409E-24
5.52264E-01 1.49009E-24
5.56602E-01 1.45688E-24
5.60935E-01 1.42446E-24
5.65263E-01 1.39280E-24
5.69587E-01 1.36188E-24
5.73905E-01 1.33168E-24
5.78217E-01 1.30217E-24
5.82524E-01 1.27335E-24
5.86824E-01 1.24519E-24
5.91118E-01 1.21767E-24
5.95404E-01 1.19077E-24
5.99684E-01 1.16449E-24
6.03956E-01 1.13880E-24
6.08220E-01 1.11369E-24
6.12476E-01 1.08914E-24
6.16723E-01 1.06514E-24
6.20961E-01 1.04167E-24
6.25190E-01 1.01873E-24
6.29410E-01 9.96286E-25
6.33619E-01 9.74338E-25
6.37819E-01 9.52871E-25
6.42008E-01 9.31873E-25
6.46186E-01 9.11332E-25
6.50353E-01 8.91236E-25
6.54508E-01 8.71573E-25
6.58652E-01 8.52335E-25
6.62784E-01 8.33509E-25
6.66903E-01 8.15086E-25
6.71010E-01 7.97055E-25
6.75104E-01 7.79408E-25
6.79184E-01 7.62134E-25
6.83251E-01 7.45226E-25
6.87303E-01 7.28673E-25
6.91342E-01 7.12468E-25
6.95366E-01 6.96602E-25
6.99375E-01 6.81067E-25
7.03368E-01 6.65856E-25
7.07347E-01 6.50961E-25
7.11309E-01 6.36373E-25
7.15256E-01 6.22087E-25
7.19186E-01 6.08096E-25
7.23099E-01 5.94391E-25
7.26995E-01 5.80968E-25
7.30874E-01 5.67819E-25
7.34736E-01 5.54938E-25
7.38579E-01 5.42320E-25
7.42405E-01 5.29957E-25
7.46212E-01 5.17846E-25
7.50000E-01 5.05979E-25
7.53769E-01 4.94352E-25
7.57519E-01 4.82958E-25
7.61249E-01 4.71795E-25
7.64960E-01 4.60855E-25
7.68650E-01 4.50134E-25
7.72320E-01 4.39628E-25
7.75968E-01 4.29332E-25
7.79596E-01 4.19241E-25
7.83203E-01 4.09351E-25
7.86788E-01 3.99658E-25
7.90351E-01 3.90158E-25
7.93893E-01 3.80846E-25
7.97411E-01 3.71719E-25
8.00908E-01 3.62772E-25
8.04381E-01 3.54003E-25
8.07831E-01 3.45407E-25
8.11257E-01 3.36982E-25
8.14660E-01 3.28722E-25
8.18039E-01 3.20626E-25
8.21394E-01 3.12689E-25
8.24724E-01 3.04910E-25
8.28030E-01 2.97283E-25
8.31310E-01 2.89808E-25
8.34565E-01 2.82479E-25
8.37795E-01 2.75296E-25
8.40999E-01 2.68254E-25
8.44177E-01 2.61352E-25
8.47329E-01 2.54586E-25
8.50455E-01 2.47953E-25
8.53553E-01 2.41452E-25
8.56625E-01 2.35080E-25
8.59670E-01 2.28835E-25
8.62687E-01 2.22714E-25
8.65677E-01 2.16714E-25
8.68639E-01 2.10834E-25
8.71572E-01 2.05071E-25
8.74478E-01 1.99424E-25
8.77355E-01 1.93890E-25
8.80203E-01 1.88467E-25
8.83022E-01 1.83153E-25
8.85812E-01 1.77947E-25
8.88573E-01 1.72846E-25
8.91304E-01 1.67849E-25
8.94005E-01 1.62953E-25
8.96677E-01 1.58158E-25
8.99318E-01 1.53461E-25
9.01928E-01 1.48860E-25
9.04508E-01 1.44355E-25
9.07058E-01 1.39944E-25
9.09576E-01 1.35625E-25
9.12063E-01 1.31396E-25
9.14519E-01 1.27256E-25
9.16943E-01 1.23204E-25
9.19335E-01 1.19238E-25
9.21696E-01 1.15357E-25
9.24024E-01 1.11560E-25
9.26320E-01 1.07846E-25
9.28584E-01 1.04212E-25
9.30815E-01 1.00658E-25
9.33013E-01 9.71835E-26
9.35178E-01 9.37862E-26
9.37310E-01 9.04653E-26
9.39409E-01 8.72198E-26
9.41474E-01 8.40486E-26
9.43505E-01 8.09507E-26
9.45503E-01 7.79250E-26
9.47467E-01 7.49706E-26
9.49397E-01 7.20865E-26
9.51293E-01 6.92719E-26
9.53154E-01 6.65257E-26
9.54981E-01 6.38471E-26
9.56773E-01 6.12353E-26
9.58530E-01 5.86894E-26
9.60252E-01 5.62086E-26
9.61940E-01 5.37921E-26
9.63592E-01 5.14392E-26
9.65209E-01 4.91492E-26
9.66790E-01 4.69212E-26
9.68336E-01 4.47546E-26
9.69846E-01 4.26488E-26
9.71321E-01 4.06030E-26
9.72759E-01 3.86167E-26
9.74162E-01 3.66892E-26
9.75528E-01 3.48200E-26
9.76858E-01 3.30083E-26
9.78152E-01 3.12538E-26
9.79410E-01 2.95558E-26
9.80631E-01 2.79139E-26
9.81815E-01 2.63275E-26
9.82963E-01 2.47961E-26
9.84074E-01 2.33194E-26
9.85148E-01 2.18967E-26
9.86185E-01 2.05278E-26
9.87185E-01 1.92121E-26
9.88148E-01 1.79493E-26
9.89074E-01 1.67391E-26
9.89962E-01 1.55809E-26
9.90814E-01 1.44746E-26
9.91627E-01 1.34197E-26
9.92404E-01 1.24160E-26
9.93143E-01 1.14631E-26
9.93844E-01 1.05608E-26
9.94508E-01 9.70873E-27
9.95134E-01 8.90672E-27
9.95722E-01 8.15450E-27
9.96273E-01 7.45185E-27
9.96786E-01 6.79857E-27
9.97261E-01 6.19445E-27
9.97698E-01 5.63932E-27
9.98097E-01 5.13301E-27
9.98459E-01 4.67537E-27
9.98782E-01 4.26626E-27
9.99067E-01 3.90557E-27
9.99315E-01 3.59319E-27
9.99524E-01 3.32903E-27
9.99695E-01 3.11300E-27
9.99829E-01 2.94504E-27
9.99924E-01 2.82510E-27
9.99981E-01 2.75316E-27
1.00000E+00 2.72918E-27
