 #
 # Subroutine ELSEPA. Elastic scattering of electrons and positrons
 #                    by neutral atoms and positive ions
 #
 # Projectile: electron
 # Kinetic energy = 2.50000E+06 eV = 9.18733E+04 a.u.
 #
 # WARNING: High-energy factorization with free-atom DF screening.
 #          Absorption, polarization and exchange corrections are
 #          switched off.
 #          Phase shifts are calculated for the bare nucleus.
 #          Scattering amplitudes are not evaluated.
 #
 # Element: Tb,  Z =  65,  atomic weight = 1.58925E+02 g/mol
 #
 # Nuclear model: Fermi distribution
 #                Average radius = 5.79582E-13 cm
 #                Skin thickness = 5.46000E-14 cm
 #
 # Number of electrons = 65
 #
 # Total elastic cross section = 7.37363E-18 cm**2 = 2.63317E-01 a0**2
 # 1st transport cross section = 7.26956E-22 cm**2 = 2.59601E-05 a0**2
 # 2nd transport cross section = 1.96757E-21 cm**2 = 7.02632E-05 a0**2
 #
 #
 # Differential cross section:                       MU=(1-COS(THETA))/2
 #
 #  THETA        MU          DCS          DCS        Sherman      error
 #  (deg)                 (cm**2/sr)   (a0**2/sr)    function
 #----------------------------------------------------------------------
0.00000E+00 7.40778E-13
7.61557E-13 7.40775E-13
1.18994E-12 7.40773E-13
1.71346E-12 7.40771E-13
2.33225E-12 7.40768E-13
3.04617E-12 7.40766E-13
3.85530E-12 7.40762E-13
4.75964E-12 7.40759E-13
5.75917E-12 7.40755E-13
6.85391E-12 7.40750E-13
8.04379E-12 7.40745E-13
9.32893E-12 7.40740E-13
1.07092E-11 7.40734E-13
1.21847E-11 7.40728E-13
1.37554E-11 7.40722E-13
1.54213E-11 7.40715E-13
1.71823E-11 7.40708E-13
1.90386E-11 7.40700E-13
2.09900E-11 7.40693E-13
2.30367E-11 7.40684E-13
2.51785E-11 7.40675E-13
2.74156E-11 7.40666E-13
2.97478E-11 7.40657E-13
3.21752E-11 7.40647E-13
3.46979E-11 7.40637E-13
3.73157E-11 7.40626E-13
4.00286E-11 7.40615E-13
4.28368E-11 7.40603E-13
4.57402E-11 7.40591E-13
4.87388E-11 7.40579E-13
5.18325E-11 7.40567E-13
5.50215E-11 7.40554E-13
5.83057E-11 7.40540E-13
6.16850E-11 7.40526E-13
6.51595E-11 7.40512E-13
6.87293E-11 7.40497E-13
7.23943E-11 7.40482E-13
7.61544E-11 7.40467E-13
1.18991E-10 7.40292E-13
1.71347E-10 7.40078E-13
2.33223E-10 7.39824E-13
3.04617E-10 7.39532E-13
3.85531E-10 7.39201E-13
4.75965E-10 7.38832E-13
5.75917E-10 7.38424E-13
6.85389E-10 7.37977E-13
8.04380E-10 7.37492E-13
9.32891E-10 7.36969E-13
1.07092E-09 7.36407E-13
1.21847E-09 7.35808E-13
1.37554E-09 7.35171E-13
1.54213E-09 7.34496E-13
1.71823E-09 7.33784E-13
1.90386E-09 7.33034E-13
2.09900E-09 7.32247E-13
2.30367E-09 7.31424E-13
2.51785E-09 7.30564E-13
2.74156E-09 7.29667E-13
2.97478E-09 7.28734E-13
3.21752E-09 7.27765E-13
3.46978E-09 7.26760E-13
3.73156E-09 7.25720E-13
4.00286E-09 7.24645E-13
4.28368E-09 7.23534E-13
4.57402E-09 7.22389E-13
4.87388E-09 7.21210E-13
5.18326E-09 7.19996E-13
5.50215E-09 7.18749E-13
5.83057E-09 7.17468E-13
6.16850E-09 7.16155E-13
6.51596E-09 7.14808E-13
6.87293E-09 7.13429E-13
7.23942E-09 7.12017E-13
7.61544E-09 7.10574E-13
1.18991E-08 6.94472E-13
1.71347E-08 6.75609E-13
2.33223E-08 6.54409E-13
3.04617E-08 6.31415E-13
3.85531E-08 6.06849E-13
4.75965E-08 5.81411E-13
5.75917E-08 5.55206E-13
6.85389E-08 5.29039E-13
8.04380E-08 5.02731E-13
9.32891E-08 4.77134E-13
1.07092E-07 4.51941E-13
1.21847E-07 4.27778E-13
1.37554E-07 4.04457E-13
1.54213E-07 3.82292E-13
1.71823E-07 3.61243E-13
1.90386E-07 3.41339E-13
2.09900E-07 3.22684E-13
2.30367E-07 3.05079E-13
2.51785E-07 2.88748E-13
2.74156E-07 2.73336E-13
2.97478E-07 2.59145E-13
3.21752E-07 2.45774E-13
3.46978E-07 2.33445E-13
3.73156E-07 2.21879E-13
4.00286E-07 2.11166E-13
4.28368E-07 2.01151E-13
4.57402E-07 1.91830E-13
4.87388E-07 1.83129E-13
5.18325E-07 1.74996E-13
5.50215E-07 1.67399E-13
5.83057E-07 1.60273E-13
6.16850E-07 1.53598E-13
6.51596E-07 1.47324E-13
6.87293E-07 1.41421E-13
7.23942E-07 1.35862E-13
7.61543E-07 1.30610E-13
1.18991E-06 9.08172E-14
1.71347E-06 6.53680E-14
2.33223E-06 4.80104E-14
3.04617E-06 3.53868E-14
3.85531E-06 2.69895E-14
4.75964E-06 2.07231E-14
5.75916E-06 1.63090E-14
6.85388E-06 1.28726E-14
8.04378E-06 1.03933E-14
9.32888E-06 8.40669E-15
1.07092E-05 6.91501E-15
1.21846E-05 5.70869E-15
1.37553E-05 4.76412E-15
1.54212E-05 3.99502E-15
1.71822E-05 3.37329E-15
1.90385E-05 2.86346E-15
2.09899E-05 2.44422E-15
2.30365E-05 2.09944E-15
2.51783E-05 1.80867E-15
2.74153E-05 1.56828E-15
2.97475E-05 1.36327E-15
3.21749E-05 1.19243E-15
3.46974E-05 1.04641E-15
3.73152E-05 9.23159E-16
4.00281E-05 8.17422E-16
4.28362E-05 7.26949E-16
4.57395E-05 6.48835E-16
4.87380E-05 5.81173E-16
5.18317E-05 5.22366E-16
5.50205E-05 4.70903E-16
5.83045E-05 4.25921E-16
6.16838E-05 3.86283E-16
6.51582E-05 3.51459E-16
6.87277E-05 3.20263E-16
7.23925E-05 2.92666E-16
7.61524E-05 2.67979E-16
9.21439E-05 1.92346E-16
1.09658E-04 1.41856E-16
1.28695E-04 1.06849E-16
1.49255E-04 8.19063E-17
1.71338E-04 6.37920E-17
1.94942E-04 5.03952E-17
2.20070E-04 4.03179E-17
2.46720E-04 3.26230E-17
2.74892E-04 2.66561E-17
3.04586E-04 2.20105E-17
3.35803E-04 1.83315E-17
3.68542E-04 1.53979E-17
4.02802E-04 1.30229E-17
4.38585E-04 1.10969E-17
4.75889E-04 9.50960E-18
5.14715E-04 8.20215E-18
5.55063E-04 7.10922E-18
5.96931E-04 6.19543E-18
6.40321E-04 5.42319E-18
6.85233E-04 4.76882E-18
7.31665E-04 4.21032E-18
7.79618E-04 3.73151E-18
8.29092E-04 3.31930E-18
8.80086E-04 2.96233E-18
9.32601E-04 2.65266E-18
9.86636E-04 2.38203E-18
1.04219E-03 2.14564E-18
1.09927E-03 1.93743E-18
1.15786E-03 1.75430E-18
1.21797E-03 1.59210E-18
1.27961E-03 1.44842E-18
1.34276E-03 1.32053E-18
1.40743E-03 1.20651E-18
1.47362E-03 1.10456E-18
1.54133E-03 1.01315E-18
1.61056E-03 9.31060E-19
1.68131E-03 8.57078E-19
1.75357E-03 7.90383E-19
1.82735E-03 7.29987E-19
1.90265E-03 6.75333E-19
1.97947E-03 6.25647E-19
2.05780E-03 5.80504E-19
2.13765E-03 5.39339E-19
2.21902E-03 5.01788E-19
2.30190E-03 4.67448E-19
2.38630E-03 4.36007E-19
2.47222E-03 4.07177E-19
2.55965E-03 3.80692E-19
2.64859E-03 3.56344E-19
2.73905E-03 3.33906E-19
2.83103E-03 3.13228E-19
2.92452E-03 2.94118E-19
3.01952E-03 2.76463E-19
3.11604E-03 2.60108E-19
3.21407E-03 2.44958E-19
3.31362E-03 2.30897E-19
3.41468E-03 2.17838E-19
3.51725E-03 2.05694E-19
3.62133E-03 1.94389E-19
3.72692E-03 1.83856E-19
3.83403E-03 1.74030E-19
3.94265E-03 1.64858E-19
4.05278E-03 1.56284E-19
4.16442E-03 1.48267E-19
4.27757E-03 1.40758E-19
4.39223E-03 1.33725E-19
4.50840E-03 1.27127E-19
4.62608E-03 1.20935E-19
4.74527E-03 1.15119E-19
4.86597E-03 1.09651E-19
4.98817E-03 1.04506E-19
5.11188E-03 9.96625E-20
5.23711E-03 9.50992E-20
5.36383E-03 9.07958E-20
5.49207E-03 8.67362E-20
5.62181E-03 8.29022E-20
5.75306E-03 7.92809E-20
5.88581E-03 7.58560E-20
6.02007E-03 7.26169E-20
6.15583E-03 6.95499E-20
6.29310E-03 6.66453E-20
6.43187E-03 6.38922E-20
6.57214E-03 6.12814E-20
6.71392E-03 5.88042E-20
6.85720E-03 5.64521E-20
7.00198E-03 5.42181E-20
7.14827E-03 5.20944E-20
7.29605E-03 5.00754E-20
7.44534E-03 4.81539E-20
7.59612E-03 4.63253E-20
7.97965E-03 4.21232E-20
8.37255E-03 3.83927E-20
8.77480E-03 3.50712E-20
9.18641E-03 3.21056E-20
9.60736E-03 2.94510E-20
1.00376E-02 2.70689E-20
1.04773E-02 2.49260E-20
1.09262E-02 2.29941E-20
1.13844E-02 2.12485E-20
1.18520E-02 1.96678E-20
1.23288E-02 1.82337E-20
1.28150E-02 1.69299E-20
1.33104E-02 1.57425E-20
1.38150E-02 1.46591E-20
1.43290E-02 1.36688E-20
1.48521E-02 1.27622E-20
1.53845E-02 1.19308E-20
1.59262E-02 1.11672E-20
1.64770E-02 1.04649E-20
1.70371E-02 9.81794E-21
1.76063E-02 9.22114E-21
1.81848E-02 8.66989E-21
1.87724E-02 8.16004E-21
1.93692E-02 7.68785E-21
1.99751E-02 7.25003E-21
2.05901E-02 6.84359E-21
2.12143E-02 6.46582E-21
2.18476E-02 6.11432E-21
2.24900E-02 5.78691E-21
2.31415E-02 5.48161E-21
2.38021E-02 5.19663E-21
2.44717E-02 4.93036E-21
2.51504E-02 4.68131E-21
2.58382E-02 4.44817E-21
2.65349E-02 4.22968E-21
2.72407E-02 4.02481E-21
2.79555E-02 3.83246E-21
2.86793E-02 3.65179E-21
2.94120E-02 3.48188E-21
3.01537E-02 3.32201E-21
3.09043E-02 3.17143E-21
3.16639E-02 3.02953E-21
3.24324E-02 2.89567E-21
3.32098E-02 2.76933E-21
3.39961E-02 2.64999E-21
3.47912E-02 2.53719E-21
3.55952E-02 2.43049E-21
3.64081E-02 2.32950E-21
3.72297E-02 2.23385E-21
3.80602E-02 2.14320E-21
3.88995E-02 2.05724E-21
3.97476E-02 1.97566E-21
4.06044E-02 1.89821E-21
4.14700E-02 1.82463E-21
4.23443E-02 1.75469E-21
4.32273E-02 1.68816E-21
4.41190E-02 1.62486E-21
4.50194E-02 1.56459E-21
4.59284E-02 1.50717E-21
4.68461E-02 1.45245E-21
4.87074E-02 1.35047E-21
5.06030E-02 1.25756E-21
5.25328E-02 1.17275E-21
5.44967E-02 1.09519E-21
5.64946E-02 1.02414E-21
5.85262E-02 9.58942E-22
6.05914E-02 8.99015E-22
6.26901E-02 8.43849E-22
6.48222E-02 7.92989E-22
6.69873E-02 7.46029E-22
6.91854E-02 7.02610E-22
7.14163E-02 6.62409E-22
7.36799E-02 6.25140E-22
7.59760E-02 5.90544E-22
7.83043E-02 5.58389E-22
8.06647E-02 5.28467E-22
8.30571E-02 5.00592E-22
8.54812E-02 4.74593E-22
8.79369E-02 4.50317E-22
9.04240E-02 4.27628E-22
9.29422E-02 4.06398E-22
9.54915E-02 3.86514E-22
9.80716E-02 3.67873E-22
1.00682E-01 3.50381E-22
1.03323E-01 3.33951E-22
1.05995E-01 3.18506E-22
1.08696E-01 3.03973E-22
1.11427E-01 2.90287E-22
1.14188E-01 2.77388E-22
1.16978E-01 2.65222E-22
1.19797E-01 2.53737E-22
1.22645E-01 2.42887E-22
1.25522E-01 2.32629E-22
1.28428E-01 2.22924E-22
1.31361E-01 2.13736E-22
1.34323E-01 2.05031E-22
1.37313E-01 1.96778E-22
1.40330E-01 1.88949E-22
1.43375E-01 1.81517E-22
1.46447E-01 1.74457E-22
1.49545E-01 1.67747E-22
1.52671E-01 1.61365E-22
1.55823E-01 1.55292E-22
1.59001E-01 1.49510E-22
1.62205E-01 1.44002E-22
1.65435E-01 1.38751E-22
1.68690E-01 1.33743E-22
1.71970E-01 1.28965E-22
1.75276E-01 1.24403E-22
1.78606E-01 1.20046E-22
1.81961E-01 1.15882E-22
1.85340E-01 1.11901E-22
1.88743E-01 1.08093E-22
1.92169E-01 1.04448E-22
1.95619E-01 1.00959E-22
1.99092E-01 9.76170E-23
2.02589E-01 9.44143E-23
2.06107E-01 9.13440E-23
2.09649E-01 8.83993E-23
2.13212E-01 8.55739E-23
2.16797E-01 8.28620E-23
2.20404E-01 8.02580E-23
2.24032E-01 7.77565E-23
2.27680E-01 7.53527E-23
2.31350E-01 7.30419E-23
2.35040E-01 7.08197E-23
2.38751E-01 6.86820E-23
2.42481E-01 6.66247E-23
2.46231E-01 6.46442E-23
2.50000E-01 6.27370E-23
2.53788E-01 6.08997E-23
2.57595E-01 5.91292E-23
2.61421E-01 5.74225E-23
2.65264E-01 5.57768E-23
2.69126E-01 5.41895E-23
2.73005E-01 5.26579E-23
2.76901E-01 5.11798E-23
2.80814E-01 4.97528E-23
2.84744E-01 4.83747E-23
2.88691E-01 4.70435E-23
2.92653E-01 4.57573E-23
2.96632E-01 4.45142E-23
3.00625E-01 4.33124E-23
3.04634E-01 4.21502E-23
3.08658E-01 4.10261E-23
3.12697E-01 3.99385E-23
3.16749E-01 3.88859E-23
3.20816E-01 3.78670E-23
3.24896E-01 3.68805E-23
3.28990E-01 3.59250E-23
3.33097E-01 3.49995E-23
3.37216E-01 3.41027E-23
3.41348E-01 3.32336E-23
3.45492E-01 3.23911E-23
3.49647E-01 3.15742E-23
3.53814E-01 3.07821E-23
3.57992E-01 3.00136E-23
3.62181E-01 2.92681E-23
3.66381E-01 2.85446E-23
3.70590E-01 2.78424E-23
3.74810E-01 2.71607E-23
3.79039E-01 2.64988E-23
3.83277E-01 2.58559E-23
3.87524E-01 2.52314E-23
3.91780E-01 2.46246E-23
3.96044E-01 2.40350E-23
4.00316E-01 2.34620E-23
4.04596E-01 2.29049E-23
4.08882E-01 2.23633E-23
4.13176E-01 2.18366E-23
4.17476E-01 2.13244E-23
4.21783E-01 2.08260E-23
4.26095E-01 2.03412E-23
4.30413E-01 1.98694E-23
4.34737E-01 1.94102E-23
4.39065E-01 1.89632E-23
4.43398E-01 1.85280E-23
4.47736E-01 1.81042E-23
4.52077E-01 1.76915E-23
4.56422E-01 1.72895E-23
4.60770E-01 1.68979E-23
4.65122E-01 1.65163E-23
4.69476E-01 1.61444E-23
4.73832E-01 1.57820E-23
4.78190E-01 1.54288E-23
4.82550E-01 1.50844E-23
4.86912E-01 1.47487E-23
4.91274E-01 1.44212E-23
4.95637E-01 1.41019E-23
5.00000E-01 1.37904E-23
5.04363E-01 1.34865E-23
5.08726E-01 1.31900E-23
5.13088E-01 1.29007E-23
5.17450E-01 1.26184E-23
5.21810E-01 1.23428E-23
5.26168E-01 1.20738E-23
5.30524E-01 1.18112E-23
5.34878E-01 1.15548E-23
5.39230E-01 1.13044E-23
5.43578E-01 1.10598E-23
5.47923E-01 1.08210E-23
5.52264E-01 1.05877E-23
5.56602E-01 1.03597E-23
5.60935E-01 1.01370E-23
5.65263E-01 9.91939E-24
5.69587E-01 9.70673E-24
5.73905E-01 9.49888E-24
5.78217E-01 9.29571E-24
5.82524E-01 9.09711E-24
5.86824E-01 8.90295E-24
5.91118E-01 8.71310E-24
5.95404E-01 8.52746E-24
5.99684E-01 8.34592E-24
6.03956E-01 8.16837E-24
6.08220E-01 7.99471E-24
6.12476E-01 7.82483E-24
6.16723E-01 7.65864E-24
6.20961E-01 7.49604E-24
6.25190E-01 7.33695E-24
6.29410E-01 7.18127E-24
6.33619E-01 7.02892E-24
6.37819E-01 6.87982E-24
6.42008E-01 6.73388E-24
6.46186E-01 6.59103E-24
6.50353E-01 6.45120E-24
6.54508E-01 6.31429E-24
6.58652E-01 6.18026E-24
6.62784E-01 6.04901E-24
6.66903E-01 5.92050E-24
6.71010E-01 5.79465E-24
6.75104E-01 5.67140E-24
6.79184E-01 5.55068E-24
6.83251E-01 5.43244E-24
6.87303E-01 5.31662E-24
6.91342E-01 5.20316E-24
6.95366E-01 5.09201E-24
6.99375E-01 4.98311E-24
7.03368E-01 4.87642E-24
7.07347E-01 4.77187E-24
7.11309E-01 4.66943E-24
7.15256E-01 4.56904E-24
7.19186E-01 4.47066E-24
7.23099E-01 4.37425E-24
7.26995E-01 4.27975E-24
7.30874E-01 4.18713E-24
7.34736E-01 4.09634E-24
7.38579E-01 4.00735E-24
7.42405E-01 3.92012E-24
7.46212E-01 3.83460E-24
7.50000E-01 3.75076E-24
7.53769E-01 3.66857E-24
7.57519E-01 3.58798E-24
7.61249E-01 3.50897E-24
7.64960E-01 3.43150E-24
7.68650E-01 3.35553E-24
7.72320E-01 3.28105E-24
7.75968E-01 3.20800E-24
7.79596E-01 3.13638E-24
7.83203E-01 3.06614E-24
7.86788E-01 2.99726E-24
7.90351E-01 2.92970E-24
7.93893E-01 2.86346E-24
7.97411E-01 2.79848E-24
8.00908E-01 2.73476E-24
8.04381E-01 2.67227E-24
8.07831E-01 2.61098E-24
8.11257E-01 2.55086E-24
8.14660E-01 2.49190E-24
8.18039E-01 2.43408E-24
8.21394E-01 2.37736E-24
8.24724E-01 2.32173E-24
8.28030E-01 2.26717E-24
8.31310E-01 2.21366E-24
8.34565E-01 2.16118E-24
8.37795E-01 2.10970E-24
8.40999E-01 2.05922E-24
8.44177E-01 2.00971E-24
8.47329E-01 1.96115E-24
8.50455E-01 1.91352E-24
8.53553E-01 1.86682E-24
8.56625E-01 1.82101E-24
8.59670E-01 1.77609E-24
8.62687E-01 1.73205E-24
8.65677E-01 1.68885E-24
8.68639E-01 1.64650E-24
8.71572E-01 1.60497E-24
8.74478E-01 1.56426E-24
8.77355E-01 1.52434E-24
8.80203E-01 1.48520E-24
8.83022E-01 1.44683E-24
8.85812E-01 1.40922E-24
8.88573E-01 1.37235E-24
8.91304E-01 1.33622E-24
8.94005E-01 1.30081E-24
8.96677E-01 1.26610E-24
8.99318E-01 1.23209E-24
9.01928E-01 1.19877E-24
9.04508E-01 1.16612E-24
9.07058E-01 1.13413E-24
9.09576E-01 1.10280E-24
9.12063E-01 1.07211E-24
9.14519E-01 1.04206E-24
9.16943E-01 1.01263E-24
9.19335E-01 9.83812E-25
9.21696E-01 9.55602E-25
9.24024E-01 9.27989E-25
9.26320E-01 9.00965E-25
9.28584E-01 8.74520E-25
9.30815E-01 8.48647E-25
9.33013E-01 8.23337E-25
9.35178E-01 7.98582E-25
9.37310E-01 7.74376E-25
9.39409E-01 7.50710E-25
9.41474E-01 7.27577E-25
9.43505E-01 7.04970E-25
9.45503E-01 6.82883E-25
9.47467E-01 6.61309E-25
9.49397E-01 6.40241E-25
9.51293E-01 6.19673E-25
9.53154E-01 5.99598E-25
9.54981E-01 5.80012E-25
9.56773E-01 5.60907E-25
9.58530E-01 5.42278E-25
9.60252E-01 5.24120E-25
9.61940E-01 5.06428E-25
9.63592E-01 4.89196E-25
9.65209E-01 4.72419E-25
9.66790E-01 4.56092E-25
9.68336E-01 4.40211E-25
9.69846E-01 4.24770E-25
9.71321E-01 4.09766E-25
9.72759E-01 3.95195E-25
9.74162E-01 3.81051E-25
9.75528E-01 3.67330E-25
9.76858E-01 3.54030E-25
9.78152E-01 3.41146E-25
9.79410E-01 3.28674E-25
9.80631E-01 3.16611E-25
9.81815E-01 3.04954E-25
9.82963E-01 2.93698E-25
9.84074E-01 2.82842E-25
9.85148E-01 2.72381E-25
9.86185E-01 2.62313E-25
9.87185E-01 2.52636E-25
9.88148E-01 2.43346E-25
9.89074E-01 2.34440E-25
9.89962E-01 2.25917E-25
9.90814E-01 2.17773E-25
9.91627E-01 2.10007E-25
9.92404E-01 2.02617E-25
9.93143E-01 1.95600E-25
9.93844E-01 1.88954E-25
9.94508E-01 1.82678E-25
9.95134E-01 1.76770E-25
9.95722E-01 1.71228E-25
9.96273E-01 1.66051E-25
9.96786E-01 1.61237E-25
9.97261E-01 1.56785E-25
9.97698E-01 1.52693E-25
9.98097E-01 1.48961E-25
9.98459E-01 1.45588E-25
9.98782E-01 1.42572E-25
9.99067E-01 1.39913E-25
9.99315E-01 1.37610E-25
9.99524E-01 1.35662E-25
9.99695E-01 1.34069E-25
9.99829E-01 1.32831E-25
9.99924E-01 1.31946E-25
9.99981E-01 1.31416E-25
1.00000E+00 1.31239E-25
