 #
 # Subroutine ELSEPA. Elastic scattering of electrons and positrons
 #                    by neutral atoms and positive ions
 #
 # Projectile: electron
 # Kinetic energy = 8.00000E+08 eV = 2.93995E+07 a.u.
 #
 # WARNING: High-energy factorization with free-atom DF screening.
 #          Absorption, polarization and exchange corrections are
 #          switched off.
 #          Phase shifts are calculated for the bare nucleus.
 #          Scattering amplitudes are not evaluated.
 #
 # Element: Tb,  Z =  65,  atomic weight = 1.58925E+02 g/mol
 #
 # Nuclear model: Fermi distribution
 #                Average radius = 5.79582E-13 cm
 #                Skin thickness = 5.46000E-14 cm
 #
 # Number of electrons = 65
 #
 # Total elastic cross section = 7.09238E-18 cm**2 = 2.53273E-01 a0**2
 # 1st transport cross section = 1.26560E-26 cm**2 = 4.51953E-10 a0**2
 # 2nd transport cross section = 3.79622E-26 cm**2 = 1.35566E-09 a0**2
 #
 #
 # Differential cross section:                       MU=(1-COS(THETA))/2
 #
 #  THETA        MU          DCS          DCS        Sherman      error
 #  (deg)                 (cm**2/sr)   (a0**2/sr)    function
 #----------------------------------------------------------------------
0.00000E+00 5.23602E-08
7.61557E-13 3.96269E-08
1.18994E-12 3.46405E-08
1.71346E-12 2.99138E-08
2.33225E-12 2.56916E-08
3.04617E-12 2.20683E-08
3.85530E-12 1.90250E-08
4.75964E-12 1.65118E-08
5.75917E-12 1.44330E-08
6.85391E-12 1.27183E-08
8.04379E-12 1.12871E-08
9.32893E-12 1.00837E-08
1.07092E-11 9.05987E-09
1.21847E-11 8.17818E-09
1.37554E-11 7.41220E-09
1.54213E-11 6.73938E-09
1.71823E-11 6.14417E-09
1.90386E-11 5.61424E-09
2.09900E-11 5.13904E-09
2.30367E-11 4.71257E-09
2.51785E-11 4.32655E-09
2.74156E-11 3.97862E-09
2.97478E-11 3.66173E-09
3.21752E-11 3.37511E-09
3.46979E-11 3.11365E-09
3.73157E-11 2.86348E-09
4.00286E-11 2.63318E-09
4.28368E-11 2.43056E-09
4.57402E-11 2.25160E-09
4.87388E-11 2.09295E-09
5.18325E-11 1.95182E-09
5.50215E-11 1.82584E-09
5.83057E-11 1.69732E-09
6.16850E-11 1.57692E-09
6.51595E-11 1.46912E-09
6.87293E-11 1.37230E-09
7.23943E-11 1.28511E-09
7.61544E-11 1.20637E-09
1.18991E-10 6.58909E-10
1.71347E-10 3.88949E-10
2.33223E-10 2.42360E-10
3.04617E-10 1.57319E-10
3.85531E-10 1.06046E-10
4.75965E-10 7.38497E-11
5.75917E-10 5.31004E-11
6.85389E-10 3.92319E-11
8.04380E-10 2.97159E-11
9.32891E-10 2.29752E-11
1.07092E-09 1.80691E-11
1.21847E-09 1.44266E-11
1.37554E-09 1.16712E-11
1.54213E-09 9.54470E-12
1.71823E-09 7.87859E-12
1.90386E-09 6.55733E-12
2.09900E-09 5.49835E-12
2.30367E-09 4.64373E-12
2.51785E-09 3.94723E-12
2.74156E-09 3.37628E-12
2.97478E-09 2.90356E-12
3.21752E-09 2.51044E-12
3.46978E-09 2.18097E-12
3.73156E-09 1.90283E-12
4.00286E-09 1.66800E-12
4.28368E-09 1.46948E-12
4.57402E-09 1.29850E-12
4.87388E-09 1.15206E-12
5.18326E-09 1.02618E-12
5.50215E-09 9.16334E-13
5.83057E-09 8.21206E-13
6.16850E-09 7.38180E-13
6.51596E-09 6.65209E-13
6.87293E-09 6.01283E-13
7.23942E-09 5.44751E-13
7.61544E-09 4.94703E-13
1.18991E-08 2.10973E-13
1.71347E-08 1.04580E-13
2.33223E-08 5.75363E-14
3.04617E-08 3.41896E-14
3.85531E-08 2.15586E-14
4.75965E-08 1.42528E-14
5.75917E-08 9.79415E-15
6.85389E-08 6.94992E-15
8.04380E-08 5.06720E-15
9.32891E-08 3.78113E-15
1.07092E-07 2.87849E-15
1.21847E-07 2.22993E-15
1.37554E-07 1.75424E-15
1.54213E-07 1.39892E-15
1.71823E-07 1.12920E-15
1.90386E-07 9.21473E-16
2.09900E-07 7.59392E-16
2.30367E-07 6.31432E-16
2.51785E-07 5.29322E-16
2.74156E-07 4.47039E-16
2.97478E-07 3.80139E-16
3.21752E-07 3.25295E-16
3.46978E-07 2.79991E-16
3.73156E-07 2.42304E-16
4.00286E-07 2.10747E-16
4.28368E-07 1.84163E-16
4.57402E-07 1.61640E-16
4.87388E-07 1.42456E-16
5.18325E-07 1.26034E-16
5.50215E-07 1.11911E-16
5.83057E-07 9.97108E-17
6.16850E-07 8.91281E-17
6.51596E-07 7.99125E-17
6.87293E-07 7.18571E-17
7.23942E-07 6.47914E-17
7.61543E-07 5.85726E-17
1.18991E-06 2.40553E-17
1.71347E-06 1.16188E-17
2.33223E-06 6.27789E-18
3.04617E-06 3.68263E-18
3.85531E-06 2.30030E-18
4.75964E-06 1.50989E-18
5.75916E-06 1.03166E-18
6.85388E-06 7.28653E-19
8.04378E-06 5.29174E-19
9.32888E-06 3.93528E-19
1.07092E-05 2.98697E-19
1.21846E-05 2.30790E-19
1.37553E-05 1.81134E-19
1.54212E-05 1.44145E-19
1.71822E-05 1.16137E-19
1.90385E-05 9.45692E-20
2.09899E-05 7.78595E-20
2.30365E-05 6.46752E-20
2.51783E-05 5.41554E-20
2.74153E-05 4.56809E-20
2.97475E-05 3.87966E-20
3.21749E-05 3.31617E-20
3.46974E-05 2.85164E-20
3.73152E-05 2.46602E-20
4.00281E-05 2.14366E-20
4.28362E-05 1.87240E-20
4.57395E-05 1.64274E-20
4.87380E-05 1.44718E-20
5.18317E-05 1.27980E-20
5.50205E-05 1.13589E-20
5.83045E-05 1.01163E-20
6.16838E-05 9.03918E-21
6.51582E-05 8.10205E-21
6.87277E-05 7.28362E-21
7.23925E-05 6.56624E-21
7.61524E-05 5.99252E-21
9.21439E-05 4.08779E-21
1.09658E-04 2.87969E-21
1.28695E-04 2.08415E-21
1.49255E-04 1.54294E-21
1.71338E-04 1.16477E-21
1.94942E-04 8.94142E-22
2.20070E-04 6.96505E-22
2.46720E-04 5.49561E-22
2.74892E-04 4.38546E-22
3.04586E-04 3.53497E-22
3.35803E-04 2.87505E-22
3.68542E-04 2.35721E-22
4.02802E-04 1.94666E-22
4.38585E-04 1.61814E-22
4.75889E-04 1.35305E-22
5.14715E-04 1.13747E-22
5.55063E-04 9.60937E-23
5.96931E-04 8.15429E-23
6.40321E-04 6.94784E-23
6.85233E-04 5.94206E-23
7.31665E-04 5.09932E-23
7.79618E-04 4.38991E-23
8.29092E-04 3.79013E-23
8.80086E-04 3.28102E-23
9.32601E-04 2.84726E-23
9.86636E-04 2.47643E-23
1.04219E-03 2.15837E-23
1.09927E-03 1.88476E-23
1.15786E-03 1.64873E-23
1.21797E-03 1.44460E-23
1.27961E-03 1.26762E-23
1.34276E-03 1.11385E-23
1.40743E-03 9.79953E-24
1.47362E-03 8.63143E-24
1.54133E-03 7.61052E-24
1.61056E-03 6.71675E-24
1.68131E-03 5.93308E-24
1.75357E-03 5.24493E-24
1.82735E-03 4.63987E-24
1.90265E-03 4.10719E-24
1.97947E-03 3.63770E-24
2.05780E-03 3.22348E-24
2.13765E-03 2.85765E-24
2.21902E-03 2.53428E-24
2.30190E-03 2.24822E-24
2.38630E-03 1.99497E-24
2.47222E-03 1.77063E-24
2.55965E-03 1.57177E-24
2.64859E-03 1.39541E-24
2.73905E-03 1.23893E-24
2.83103E-03 1.10004E-24
2.92452E-03 9.76718E-25
3.01952E-03 8.67189E-25
3.11604E-03 7.69888E-25
3.21407E-03 6.83436E-25
3.31362E-03 6.06615E-25
3.41468E-03 5.38346E-25
3.51725E-03 4.77676E-25
3.62133E-03 4.23763E-25
3.72692E-03 3.75856E-25
3.83403E-03 3.33292E-25
3.94265E-03 2.95481E-25
4.05278E-03 2.61899E-25
4.16442E-03 2.32082E-25
4.27757E-03 2.05613E-25
4.39223E-03 1.82126E-25
4.50840E-03 1.61292E-25
4.62608E-03 1.42817E-25
4.74527E-03 1.26443E-25
4.86597E-03 1.11937E-25
4.98817E-03 9.90922E-26
5.11188E-03 8.77239E-26
5.23711E-03 7.76678E-26
5.36383E-03 6.87774E-26
5.49207E-03 6.09220E-26
5.62181E-03 5.39851E-26
5.75306E-03 4.78628E-26
5.88581E-03 4.24625E-26
6.02007E-03 3.77018E-26
6.15583E-03 3.35073E-26
6.29310E-03 2.98135E-26
6.43187E-03 2.65622E-26
6.57214E-03 2.37016E-26
6.71392E-03 2.11857E-26
6.85720E-03 1.89735E-26
7.00198E-03 1.70288E-26
7.14827E-03 1.53193E-26
7.29605E-03 1.38164E-26
7.44534E-03 1.24949E-26
7.59612E-03 1.13323E-26
7.97965E-03 8.99678E-27
8.37255E-03 7.28626E-27
8.77480E-03 6.01826E-27
9.18641E-03 5.06138E-27
9.60736E-03 4.32204E-27
1.00376E-02 3.73445E-27
1.04773E-02 3.25306E-27
1.09262E-02 2.84689E-27
1.13844E-02 2.49529E-27
1.18520E-02 2.18482E-27
1.23288E-02 1.90694E-27
1.28150E-02 1.65637E-27
1.33104E-02 1.42989E-27
1.38150E-02 1.22550E-27
1.43290E-02 1.04189E-27
1.48521E-02 8.78080E-28
1.53845E-02 7.33145E-28
1.59262E-02 6.06136E-28
1.64770E-02 4.95997E-28
1.70371E-02 4.01557E-28
1.76063E-02 3.21541E-28
1.81848E-02 2.54601E-28
1.87724E-02 1.99349E-28
1.93692E-02 1.54395E-28
1.99751E-02 1.18380E-28
2.05901E-02 9.00075E-29
2.12143E-02 6.80633E-29
2.18476E-02 5.14357E-29
2.24900E-02 3.91247E-29
2.31415E-02 3.02478E-29
2.38021E-02 2.40407E-29
2.44717E-02 1.98540E-29
2.51504E-02 1.71471E-29
2.58382E-02 1.54795E-29
2.65349E-02 1.45012E-29
2.72407E-02 1.39415E-29
2.79555E-02 1.35986E-29
2.86793E-02 1.33284E-29
2.94120E-02 1.30342E-29
3.01537E-02 1.26574E-29
3.09043E-02 1.21692E-29
3.16639E-02 1.15624E-29
3.24324E-02 1.08457E-29
3.32098E-02 1.00378E-29
3.39961E-02 9.16322E-30
3.47912E-02 8.24914E-30
3.55952E-02 7.32239E-30
3.64081E-02 6.40784E-30
3.72297E-02 5.52711E-30
3.80602E-02 4.69787E-30
3.88995E-02 3.93355E-30
3.97476E-02 3.24336E-30
4.06044E-02 2.63256E-30
4.14700E-02 2.10288E-30
4.23443E-02 1.65305E-30
4.32273E-02 1.27936E-30
4.41190E-02 9.76260E-31
4.50194E-02 7.36890E-31
4.59284E-02 5.53595E-31
4.68461E-02 4.18371E-31
4.87074E-02 2.60523E-31
5.06030E-02 2.04635E-31
5.25328E-02 2.02866E-31
5.44967E-02 2.20703E-31
5.64946E-02 2.36597E-31
5.85262E-02 2.39858E-31
6.05914E-02 2.27760E-31
6.26901E-02 2.02585E-31
6.48222E-02 1.69066E-31
6.69873E-02 1.32458E-31
6.91854E-02 9.73064E-32
7.14163E-02 6.68163E-32
7.36799E-02 4.27060E-32
7.59760E-02 2.53753E-32
7.83043E-02 1.42427E-32
8.06647E-02 8.13403E-33
8.30571E-02 5.63755E-33
8.54812E-02 5.38012E-33
8.79369E-02 6.20682E-33
9.04240E-02 7.26851E-33
9.29422E-02 8.03481E-33
9.54915E-02 8.25578E-33
9.80716E-02 7.89531E-33
1.00682E-01 7.05591E-33
1.03323E-01 5.90919E-33
1.05995E-01 4.64037E-33
1.08696E-01 3.41052E-33
1.11427E-01 2.33607E-33
1.14188E-01 1.48273E-33
1.16978E-01 8.69839E-34
1.19797E-01 4.80783E-34
1.22645E-01 2.75905E-34
1.25522E-01 2.04941E-34
1.28428E-01 2.17239E-34
1.31361E-01 2.68886E-34
1.34323E-01 3.26635E-34
1.37313E-01 3.69066E-34
1.40330E-01 3.85668E-34
1.43375E-01 3.74652E-34
1.46447E-01 3.40198E-34
1.49545E-01 2.89738E-34
1.52671E-01 2.31644E-34
1.55823E-01 1.73542E-34
1.59001E-01 1.21289E-34
1.62205E-01 7.85519E-35
1.65435E-01 4.68602E-35
1.68690E-01 2.59723E-35
1.71970E-01 1.43971E-35
1.75276E-01 9.94838E-36
1.78606E-01 1.02380E-35
1.81961E-01 1.30532E-35
1.85340E-01 1.65994E-35
1.88743E-01 1.96125E-35
1.92169E-01 2.13649E-35
1.95619E-01 2.15959E-35
1.99092E-01 2.03979E-35
2.02589E-01 1.80894E-35
2.06107E-01 1.50950E-35
2.09649E-01 1.18472E-35
2.13212E-01 8.71808E-36
2.16797E-01 5.97990E-36
2.20404E-01 3.79242E-36
2.24032E-01 2.21019E-36
2.27680E-01 1.20282E-36
2.31350E-01 6.81493E-37
2.35040E-01 5.26069E-37
2.38751E-01 6.08947E-37
2.42481E-01 8.13252E-37
2.46231E-01 1.04449E-36
2.50000E-01 1.23600E-36
2.53788E-01 1.34930E-36
2.57595E-01 1.37059E-36
2.61421E-01 1.30515E-36
2.65264E-01 1.17078E-36
2.69126E-01 9.91622E-37
2.73005E-01 7.92835E-37
2.76901E-01 5.96760E-37
2.80814E-01 4.20560E-37
2.84744E-01 2.75221E-37
2.88691E-01 1.65688E-37
2.92653E-01 1.00000E-45
2.96632E-01 1.00000E-45
3.00625E-01 1.00000E-45
3.04634E-01 1.00000E-45
3.08658E-01 1.00000E-45
3.12697E-01 1.00000E-45
3.16749E-01 1.00000E-45
3.20816E-01 1.00000E-45
3.24896E-01 1.00000E-45
3.28990E-01 1.00000E-45
3.33097E-01 1.00000E-45
3.37216E-01 1.00000E-45
3.41348E-01 1.00000E-45
3.45492E-01 1.00000E-45
3.49647E-01 1.00000E-45
3.53814E-01 1.00000E-45
3.57992E-01 1.00000E-45
3.62181E-01 1.00000E-45
3.66381E-01 1.00000E-45
3.70590E-01 1.00000E-45
3.74810E-01 1.00000E-45
3.79039E-01 1.00000E-45
3.83277E-01 1.00000E-45
3.87524E-01 1.00000E-45
3.91780E-01 1.00000E-45
3.96044E-01 1.00000E-45
4.00316E-01 1.00000E-45
4.04596E-01 1.00000E-45
4.08882E-01 1.00000E-45
4.13176E-01 1.00000E-45
4.17476E-01 1.00000E-45
4.21783E-01 1.00000E-45
4.26095E-01 1.00000E-45
4.30413E-01 1.00000E-45
4.34737E-01 1.00000E-45
4.39065E-01 1.00000E-45
4.43398E-01 1.00000E-45
4.47736E-01 1.00000E-45
4.52077E-01 1.00000E-45
4.56422E-01 1.00000E-45
4.60770E-01 1.00000E-45
4.65122E-01 1.00000E-45
4.69476E-01 1.00000E-45
4.73832E-01 1.00000E-45
4.78190E-01 1.00000E-45
4.82550E-01 1.00000E-45
4.86912E-01 1.00000E-45
4.91274E-01 1.00000E-45
4.95637E-01 1.00000E-45
5.00000E-01 1.00000E-45
5.04363E-01 1.00000E-45
5.08726E-01 1.00000E-45
5.13088E-01 1.00000E-45
5.17450E-01 1.00000E-45
5.21810E-01 1.00000E-45
5.26168E-01 1.00000E-45
5.30524E-01 1.00000E-45
5.34878E-01 1.00000E-45
5.39230E-01 1.00000E-45
5.43578E-01 1.00000E-45
5.47923E-01 1.00000E-45
5.52264E-01 1.00000E-45
5.56602E-01 1.00000E-45
5.60935E-01 1.00000E-45
5.65263E-01 1.00000E-45
5.69587E-01 1.00000E-45
5.73905E-01 1.00000E-45
5.78217E-01 1.00000E-45
5.82524E-01 1.00000E-45
5.86824E-01 1.00000E-45
5.91118E-01 1.00000E-45
5.95404E-01 1.00000E-45
5.99684E-01 1.00000E-45
6.03956E-01 1.00000E-45
6.08220E-01 1.00000E-45
6.12476E-01 1.00000E-45
6.16723E-01 1.00000E-45
6.20961E-01 1.00000E-45
6.25190E-01 1.00000E-45
6.29410E-01 1.00000E-45
6.33619E-01 1.00000E-45
6.37819E-01 1.00000E-45
6.42008E-01 1.00000E-45
6.46186E-01 1.00000E-45
6.50353E-01 1.00000E-45
6.54508E-01 1.00000E-45
6.58652E-01 1.00000E-45
6.62784E-01 1.00000E-45
6.66903E-01 1.00000E-45
6.71010E-01 1.00000E-45
6.75104E-01 1.00000E-45
6.79184E-01 1.00000E-45
6.83251E-01 1.00000E-45
6.87303E-01 1.00000E-45
6.91342E-01 1.00000E-45
6.95366E-01 1.00000E-45
6.99375E-01 1.00000E-45
7.03368E-01 1.00000E-45
7.07347E-01 1.00000E-45
7.11309E-01 1.00000E-45
7.15256E-01 1.00000E-45
7.19186E-01 1.00000E-45
7.23099E-01 1.00000E-45
7.26995E-01 1.00000E-45
7.30874E-01 1.00000E-45
7.34736E-01 1.00000E-45
7.38579E-01 1.00000E-45
7.42405E-01 1.00000E-45
7.46212E-01 1.00000E-45
7.50000E-01 1.00000E-45
7.53769E-01 1.00000E-45
7.57519E-01 1.00000E-45
7.61249E-01 1.00000E-45
7.64960E-01 1.00000E-45
7.68650E-01 1.00000E-45
7.72320E-01 1.00000E-45
7.75968E-01 1.00000E-45
7.79596E-01 1.00000E-45
7.83203E-01 1.00000E-45
7.86788E-01 1.00000E-45
7.90351E-01 1.00000E-45
7.93893E-01 1.00000E-45
7.97411E-01 1.00000E-45
8.00908E-01 1.00000E-45
8.04381E-01 1.00000E-45
8.07831E-01 1.00000E-45
8.11257E-01 1.00000E-45
8.14660E-01 1.00000E-45
8.18039E-01 1.00000E-45
8.21394E-01 1.00000E-45
8.24724E-01 1.00000E-45
8.28030E-01 1.00000E-45
8.31310E-01 1.00000E-45
8.34565E-01 1.00000E-45
8.37795E-01 1.00000E-45
8.40999E-01 1.00000E-45
8.44177E-01 1.00000E-45
8.47329E-01 1.00000E-45
8.50455E-01 1.00000E-45
8.53553E-01 1.00000E-45
8.56625E-01 1.00000E-45
8.59670E-01 1.00000E-45
8.62687E-01 1.00000E-45
8.65677E-01 1.00000E-45
8.68639E-01 1.00000E-45
8.71572E-01 1.00000E-45
8.74478E-01 1.00000E-45
8.77355E-01 1.00000E-45
8.80203E-01 1.00000E-45
8.83022E-01 1.00000E-45
8.85812E-01 1.00000E-45
8.88573E-01 1.00000E-45
8.91304E-01 1.00000E-45
8.94005E-01 1.00000E-45
8.96677E-01 1.00000E-45
8.99318E-01 1.00000E-45
9.01928E-01 1.00000E-45
9.04508E-01 1.00000E-45
9.07058E-01 1.00000E-45
9.09576E-01 1.00000E-45
9.12063E-01 1.00000E-45
9.14519E-01 1.00000E-45
9.16943E-01 1.00000E-45
9.19335E-01 1.00000E-45
9.21696E-01 1.00000E-45
9.24024E-01 1.00000E-45
9.26320E-01 1.00000E-45
9.28584E-01 1.00000E-45
9.30815E-01 1.00000E-45
9.33013E-01 1.00000E-45
9.35178E-01 1.00000E-45
9.37310E-01 1.00000E-45
9.39409E-01 1.00000E-45
9.41474E-01 1.00000E-45
9.43505E-01 1.00000E-45
9.45503E-01 1.00000E-45
9.47467E-01 1.00000E-45
9.49397E-01 1.00000E-45
9.51293E-01 1.00000E-45
9.53154E-01 1.00000E-45
9.54981E-01 1.00000E-45
9.56773E-01 1.00000E-45
9.58530E-01 1.00000E-45
9.60252E-01 1.00000E-45
9.61940E-01 1.00000E-45
9.63592E-01 1.00000E-45
9.65209E-01 1.00000E-45
9.66790E-01 1.00000E-45
9.68336E-01 1.00000E-45
9.69846E-01 1.00000E-45
9.71321E-01 1.00000E-45
9.72759E-01 1.00000E-45
9.74162E-01 1.00000E-45
9.75528E-01 1.00000E-45
9.76858E-01 1.00000E-45
9.78152E-01 1.00000E-45
9.79410E-01 1.00000E-45
9.80631E-01 1.00000E-45
9.81815E-01 1.00000E-45
9.82963E-01 1.00000E-45
9.84074E-01 1.00000E-45
9.85148E-01 1.00000E-45
9.86185E-01 1.00000E-45
9.87185E-01 1.00000E-45
9.88148E-01 1.00000E-45
9.89074E-01 1.00000E-45
9.89962E-01 1.00000E-45
9.90814E-01 1.00000E-45
9.91627E-01 1.00000E-45
9.92404E-01 1.00000E-45
9.93143E-01 1.00000E-45
9.93844E-01 1.00000E-45
9.94508E-01 1.00000E-45
9.95134E-01 1.00000E-45
9.95722E-01 1.00000E-45
9.96273E-01 1.00000E-45
9.96786E-01 1.00000E-45
9.97261E-01 1.00000E-45
9.97698E-01 1.00000E-45
9.98097E-01 1.00000E-45
9.98459E-01 1.00000E-45
9.98782E-01 1.00000E-45
9.99067E-01 1.00000E-45
9.99315E-01 1.00000E-45
9.99524E-01 1.00000E-45
9.99695E-01 1.00000E-45
9.99829E-01 1.00000E-45
9.99924E-01 1.00000E-45
9.99981E-01 1.00000E-45
1.00000E+00 1.00000E-45
