 #
 # Subroutine ELSEPA. Elastic scattering of electrons and positrons
 #                    by neutral atoms and positive ions
 #
 # Projectile: electron
 # Kinetic energy = 2.50000E+08 eV = 9.18733E+06 a.u.
 #
 # WARNING: High-energy factorization with free-atom DF screening.
 #          Absorption, polarization and exchange corrections are
 #          switched off.
 #          Phase shifts are calculated for the bare nucleus.
 #          Scattering amplitudes are not evaluated.
 #
 # Element: Tb,  Z =  65,  atomic weight = 1.58925E+02 g/mol
 #
 # Nuclear model: Fermi distribution
 #                Average radius = 5.79582E-13 cm
 #                Skin thickness = 5.46000E-14 cm
 #
 # Number of electrons = 65
 #
 # Total elastic cross section = 7.14786E-18 cm**2 = 2.55255E-01 a0**2
 # 1st transport cross section = 1.29921E-25 cm**2 = 4.63957E-09 a0**2
 # 2nd transport cross section = 3.89193E-25 cm**2 = 1.38983E-08 a0**2
 #
 #
 # Differential cross section:                       MU=(1-COS(THETA))/2
 #
 #  THETA        MU          DCS          DCS        Sherman      error
 #  (deg)                 (cm**2/sr)   (a0**2/sr)    function
 #----------------------------------------------------------------------
0.00000E+00 5.12767E-09
7.61557E-13 4.97691E-09
1.18994E-12 4.89538E-09
1.71346E-12 4.79874E-09
2.33225E-12 4.68860E-09
3.04617E-12 4.56676E-09
3.85530E-12 4.43531E-09
4.75964E-12 4.29609E-09
5.75917E-12 4.14962E-09
6.85391E-12 4.00041E-09
8.04379E-12 3.84700E-09
9.32893E-12 3.69411E-09
1.07092E-11 3.54030E-09
1.21847E-11 3.38904E-09
1.37554E-11 3.23990E-09
1.54213E-11 3.09445E-09
1.71823E-11 2.95359E-09
1.90386E-11 2.81685E-09
2.09900E-11 2.68651E-09
2.30367E-11 2.56023E-09
2.51785E-11 2.44152E-09
2.74156E-11 2.32686E-09
2.97478E-11 2.21964E-09
3.21752E-11 2.11691E-09
3.46979E-11 2.02057E-09
3.73157E-11 1.92916E-09
4.00286E-11 1.84311E-09
4.28368E-11 1.76211E-09
4.57402E-11 1.68553E-09
4.87388E-11 1.61388E-09
5.18325E-11 1.54587E-09
5.50215E-11 1.48246E-09
5.83057E-11 1.42215E-09
6.16850E-11 1.36588E-09
6.51595E-11 1.31244E-09
6.87293E-11 1.26225E-09
7.23943E-11 1.21474E-09
7.61544E-11 1.16987E-09
1.18991E-10 8.29997E-10
1.71347E-10 6.14136E-10
2.33223E-10 4.65290E-10
3.04617E-10 3.57567E-10
3.85531E-10 2.76512E-10
4.75965E-10 2.15745E-10
5.75917E-10 1.73655E-10
6.85389E-10 1.38510E-10
8.04380E-10 1.13308E-10
9.32891E-10 9.26624E-11
1.07092E-09 7.69956E-11
1.21847E-09 6.42701E-11
1.37554E-09 5.41426E-11
1.54213E-09 4.59155E-11
1.71823E-09 3.91159E-11
1.90386E-09 3.35859E-11
2.09900E-09 2.88782E-11
2.30367E-09 2.50432E-11
2.51785E-09 2.17085E-11
2.74156E-09 1.89682E-11
2.97478E-09 1.65793E-11
3.21752E-09 1.45787E-11
3.46978E-09 1.28472E-11
3.73156E-09 1.13685E-11
4.00286E-09 1.00926E-11
4.28368E-09 8.98733E-12
4.57402E-09 8.03300E-12
4.87388E-09 7.19758E-12
5.18326E-09 6.47388E-12
5.50215E-09 5.83511E-12
5.83057E-09 5.27876E-12
6.16850E-09 4.78489E-12
6.51596E-09 4.35119E-12
6.87293E-09 3.96536E-12
7.23942E-09 3.62338E-12
7.61544E-09 3.31817E-12
1.18991E-08 1.52740E-12
1.71347E-08 8.04824E-13
2.33223E-08 4.61988E-13
3.04617E-08 2.82904E-13
3.85531E-08 1.82308E-13
4.75965E-08 1.22731E-13
5.75917E-08 8.56446E-14
6.85389E-08 6.15935E-14
8.04380E-08 4.54405E-14
9.32891E-08 3.42629E-14
1.07092E-07 2.63205E-14
1.21847E-07 2.05539E-14
1.37554E-07 1.62848E-14
1.54213E-07 1.30688E-14
1.71823E-07 1.06087E-14
1.90386E-07 8.70070E-15
2.09900E-07 7.20249E-15
2.30367E-07 6.01241E-15
2.51785E-07 5.05784E-15
2.74156E-07 4.28510E-15
2.97478E-07 3.65421E-15
3.21752E-07 3.13507E-15
3.46978E-07 2.70478E-15
3.73156E-07 2.34573E-15
4.00286E-07 2.04419E-15
4.28368E-07 1.78951E-15
4.57402E-07 1.57325E-15
4.87388E-07 1.38866E-15
5.18325E-07 1.23035E-15
5.50215E-07 1.09396E-15
5.83057E-07 9.75948E-16
6.16850E-07 8.73415E-16
6.51596E-07 7.83996E-16
6.87293E-07 7.05733E-16
7.23942E-07 6.36998E-16
7.61543E-07 5.76433E-16
1.18991E-06 2.38684E-16
1.71347E-06 1.15982E-16
2.33223E-06 6.29542E-17
3.04617E-06 3.70572E-17
3.85531E-06 2.32088E-17
4.75964E-06 1.52652E-17
5.75916E-06 1.04470E-17
6.85388E-06 7.38803E-18
8.04378E-06 5.37090E-18
9.32888E-06 3.99744E-18
1.07092E-05 3.03620E-18
1.21846E-05 2.34726E-18
1.37553E-05 1.84309E-18
1.54212E-05 1.46729E-18
1.71822E-05 1.18258E-18
1.90385E-05 9.63237E-19
2.09899E-05 7.93233E-19
2.30365E-05 6.59050E-19
2.51783E-05 5.51953E-19
2.74153E-05 4.65654E-19
2.97475E-05 3.95533E-19
3.21749E-05 3.38125E-19
3.46974E-05 2.90790E-19
3.73152E-05 2.51488E-19
4.00281E-05 2.18632E-19
4.28362E-05 1.90984E-19
4.57395E-05 1.67572E-19
4.87380E-05 1.47634E-19
5.18317E-05 1.30567E-19
5.50205E-05 1.15892E-19
5.83045E-05 1.03219E-19
6.16838E-05 9.22341E-20
6.51582E-05 8.26754E-20
6.87277E-05 7.43270E-20
7.23925E-05 6.70090E-20
7.61524E-05 6.08410E-20
9.21439E-05 4.16238E-20
1.09658E-04 2.94352E-20
1.28695E-04 2.14058E-20
1.49255E-04 1.59388E-20
1.71338E-04 1.21138E-20
1.94942E-04 9.37158E-21
2.20070E-04 7.36425E-21
2.46720E-04 5.86745E-21
2.74892E-04 4.73271E-21
3.04586E-04 3.85986E-21
3.35803E-04 3.17943E-21
3.68542E-04 2.64270E-21
4.02802E-04 2.21464E-21
4.38585E-04 1.86984E-21
4.75889E-04 1.58960E-21
5.14715E-04 1.35994E-21
5.55063E-04 1.17026E-21
5.96931E-04 1.01250E-21
6.40321E-04 8.80403E-22
6.85233E-04 7.69122E-22
7.31665E-04 6.74836E-22
7.79618E-04 5.94520E-22
8.29092E-04 5.25762E-22
8.80086E-04 4.66620E-22
9.32601E-04 4.15523E-22
9.86636E-04 3.71194E-22
1.04219E-03 3.32583E-22
1.09927E-03 2.98829E-22
1.15786E-03 2.69217E-22
1.21797E-03 2.43151E-22
1.27961E-03 2.20134E-22
1.34276E-03 1.99749E-22
1.40743E-03 1.81643E-22
1.47362E-03 1.65517E-22
1.54133E-03 1.51118E-22
1.61056E-03 1.38228E-22
1.68131E-03 1.26663E-22
1.75357E-03 1.16263E-22
1.82735E-03 1.06889E-22
1.90265E-03 9.84243E-23
1.97947E-03 9.07643E-23
2.05780E-03 8.38196E-23
2.13765E-03 7.75120E-23
2.21902E-03 7.17728E-23
2.30190E-03 6.65421E-23
2.38630E-03 6.17671E-23
2.47222E-03 5.74013E-23
2.55965E-03 5.34036E-23
2.64859E-03 4.97376E-23
2.73905E-03 4.63712E-23
2.83103E-03 4.32756E-23
2.92452E-03 4.04255E-23
3.01952E-03 3.77980E-23
3.11604E-03 3.53728E-23
3.21407E-03 3.31318E-23
3.31362E-03 3.10585E-23
3.41468E-03 2.91383E-23
3.51725E-03 2.73581E-23
3.62133E-03 2.57058E-23
3.72692E-03 2.41709E-23
3.83403E-03 2.27436E-23
3.94265E-03 2.14151E-23
4.05278E-03 2.01774E-23
4.16442E-03 1.90234E-23
4.27757E-03 1.79464E-23
4.39223E-03 1.69405E-23
4.50840E-03 1.60002E-23
4.62608E-03 1.51206E-23
4.74527E-03 1.42971E-23
4.86597E-03 1.35256E-23
4.98817E-03 1.28022E-23
5.11188E-03 1.21236E-23
5.23711E-03 1.14864E-23
5.36383E-03 1.08878E-23
5.49207E-03 1.03251E-23
5.62181E-03 9.79585E-24
5.75306E-03 9.29766E-24
5.88581E-03 8.82848E-24
6.02007E-03 8.38636E-24
6.15583E-03 7.96951E-24
6.29310E-03 7.57626E-24
6.43187E-03 7.20509E-24
6.57214E-03 6.85458E-24
6.71392E-03 6.52341E-24
6.85720E-03 6.21035E-24
7.00198E-03 5.91427E-24
7.14827E-03 5.63413E-24
7.29605E-03 5.36894E-24
7.44534E-03 5.11779E-24
7.59612E-03 4.87984E-24
7.97965E-03 4.33764E-24
8.37255E-03 3.86220E-24
8.77480E-03 3.44429E-24
9.18641E-03 3.07613E-24
9.60736E-03 2.75110E-24
1.00376E-02 2.46358E-24
1.04773E-02 2.20876E-24
1.09262E-02 1.98252E-24
1.13844E-02 1.78132E-24
1.18520E-02 1.60210E-24
1.23288E-02 1.44223E-24
1.28150E-02 1.29942E-24
1.33104E-02 1.17167E-24
1.38150E-02 1.05726E-24
1.43290E-02 9.54666E-25
1.48521E-02 8.62574E-25
1.53845E-02 7.79821E-25
1.59262E-02 7.05387E-25
1.64770E-02 6.38373E-25
1.70371E-02 5.77988E-25
1.76063E-02 5.23531E-25
1.81848E-02 4.74384E-25
1.87724E-02 4.29998E-25
1.93692E-02 3.89884E-25
1.99751E-02 3.53609E-25
2.05901E-02 3.20787E-25
2.12143E-02 2.91074E-25
2.18476E-02 2.64161E-25
2.24900E-02 2.39774E-25
2.31415E-02 2.17667E-25
2.38021E-02 1.97619E-25
2.44717E-02 1.79433E-25
2.51504E-02 1.62929E-25
2.58382E-02 1.47949E-25
2.65349E-02 1.34349E-25
2.72407E-02 1.21998E-25
2.79555E-02 1.10781E-25
2.86793E-02 1.00591E-25
2.94120E-02 9.13334E-26
3.01537E-02 8.29221E-26
3.09043E-02 7.52793E-26
3.16639E-02 6.83344E-26
3.24324E-02 6.20237E-26
3.32098E-02 5.62893E-26
3.39961E-02 5.10789E-26
3.47912E-02 4.63447E-26
3.55952E-02 4.20437E-26
3.64081E-02 3.81366E-26
3.72297E-02 3.45879E-26
3.80602E-02 3.13651E-26
3.88995E-02 2.84389E-26
3.97476E-02 2.57824E-26
4.06044E-02 2.33714E-26
4.14700E-02 2.11835E-26
4.23443E-02 1.91988E-26
4.32273E-02 1.73987E-26
4.41190E-02 1.57667E-26
4.50194E-02 1.42873E-26
4.59284E-02 1.29469E-26
4.68461E-02 1.17327E-26
4.87074E-02 9.63788E-27
5.06030E-02 7.92259E-27
5.25328E-02 6.52011E-27
5.44967E-02 5.37506E-27
5.64946E-02 4.44156E-27
5.85262E-02 3.68154E-27
6.05914E-02 3.06351E-27
6.26901E-02 2.56143E-27
6.48222E-02 2.15380E-27
6.69873E-02 1.82288E-27
6.91854E-02 1.55411E-27
7.14163E-02 1.33554E-27
7.36799E-02 1.15736E-27
7.59760E-02 1.01161E-27
7.83043E-02 8.91796E-28
8.06647E-02 7.92661E-28
8.30571E-02 7.09970E-28
8.54812E-02 6.40321E-28
8.79369E-02 5.80999E-28
9.04240E-02 5.29850E-28
9.29422E-02 4.85174E-28
9.54915E-02 4.45639E-28
9.80716E-02 4.10213E-28
1.00682E-01 3.78098E-28
1.03323E-01 3.48689E-28
1.05995E-01 3.21527E-28
1.08696E-01 2.96269E-28
1.11427E-01 2.72664E-28
1.14188E-01 2.50526E-28
1.16978E-01 2.29724E-28
1.19797E-01 2.10162E-28
1.22645E-01 1.91770E-28
1.25522E-01 1.74498E-28
1.28428E-01 1.58308E-28
1.31361E-01 1.43168E-28
1.34323E-01 1.29050E-28
1.37313E-01 1.15926E-28
1.40330E-01 1.03770E-28
1.43375E-01 9.25522E-29
1.46447E-01 8.22397E-29
1.49545E-01 7.27984E-29
1.52671E-01 6.41909E-29
1.55823E-01 5.63777E-29
1.59001E-01 4.93172E-29
1.62205E-01 4.29662E-29
1.65435E-01 3.72805E-29
1.68690E-01 3.22151E-29
1.71970E-01 2.77251E-29
1.75276E-01 2.37658E-29
1.78606E-01 2.02936E-29
1.81961E-01 1.72656E-29
1.85340E-01 1.46406E-29
1.88743E-01 1.23791E-29
1.92169E-01 1.04435E-29
1.95619E-01 8.79837E-30
1.99092E-01 7.41049E-30
2.02589E-01 6.24891E-30
2.06107E-01 5.28505E-30
2.09649E-01 4.49265E-30
2.13212E-01 3.84779E-30
2.16797E-01 3.32877E-30
2.20404E-01 2.91610E-30
2.24032E-01 2.59235E-30
2.27680E-01 2.34207E-30
2.31350E-01 2.15168E-30
2.35040E-01 2.00931E-30
2.38751E-01 1.90473E-30
2.42481E-01 1.82913E-30
2.46231E-01 1.77508E-30
2.50000E-01 1.73633E-30
2.53788E-01 1.70776E-30
2.57595E-01 1.68516E-30
2.61421E-01 1.66522E-30
2.65264E-01 1.64534E-30
2.69126E-01 1.62359E-30
2.73005E-01 1.59859E-30
2.76901E-01 1.56941E-30
2.80814E-01 1.53552E-30
2.84744E-01 1.49671E-30
2.88691E-01 1.45302E-30
2.92653E-01 1.40472E-30
2.96632E-01 1.35219E-30
3.00625E-01 1.29596E-30
3.04634E-01 1.23661E-30
3.08658E-01 1.17478E-30
3.12697E-01 1.11113E-30
3.16749E-01 1.04629E-30
3.20816E-01 9.80913E-31
3.24896E-01 9.15587E-31
3.28990E-01 8.50868E-31
3.33097E-01 7.87264E-31
3.37216E-01 7.25224E-31
3.41348E-01 6.65141E-31
3.45492E-01 6.07349E-31
3.49647E-01 5.52124E-31
3.53814E-01 4.99685E-31
3.57992E-01 4.50197E-31
3.62181E-01 4.03774E-31
3.66381E-01 3.60485E-31
3.70590E-01 3.20355E-31
3.74810E-01 2.83372E-31
3.79039E-01 2.49489E-31
3.83277E-01 2.18631E-31
3.87524E-01 1.90699E-31
3.91780E-01 1.65572E-31
3.96044E-01 1.43115E-31
4.00316E-01 1.23178E-31
4.04596E-01 1.05603E-31
4.08882E-01 9.02275E-32
4.13176E-01 7.68830E-32
4.17476E-01 6.54023E-32
4.21783E-01 5.56194E-32
4.26095E-01 4.73715E-32
4.30413E-01 4.05011E-32
4.34737E-01 3.48570E-32
4.39065E-01 3.02951E-32
4.43398E-01 2.66799E-32
4.47736E-01 2.38842E-32
4.52077E-01 2.17904E-32
4.56422E-01 2.02898E-32
4.60770E-01 1.92835E-32
4.65122E-01 1.86815E-32
4.69476E-01 1.84034E-32
4.73832E-01 1.83773E-32
4.78190E-01 1.85397E-32
4.82550E-01 1.88355E-32
4.86912E-01 1.92168E-32
4.91274E-01 1.96430E-32
4.95637E-01 2.00799E-32
5.00000E-01 2.04994E-32
5.04363E-01 2.08788E-32
5.08726E-01 2.12002E-32
5.13088E-01 2.14503E-32
5.17450E-01 2.16196E-32
5.21810E-01 2.17018E-32
5.26168E-01 2.16940E-32
5.30524E-01 2.15954E-32
5.34878E-01 2.14074E-32
5.39230E-01 2.11334E-32
5.43578E-01 2.07779E-32
5.47923E-01 2.03466E-32
5.52264E-01 1.98461E-32
5.56602E-01 1.92837E-32
5.60935E-01 1.86667E-32
5.65263E-01 1.80030E-32
5.69587E-01 1.73003E-32
5.73905E-01 1.65662E-32
5.78217E-01 1.58081E-32
5.82524E-01 1.50332E-32
5.86824E-01 1.42481E-32
5.91118E-01 1.34592E-32
5.95404E-01 1.26722E-32
5.99684E-01 1.18924E-32
6.03956E-01 1.11245E-32
6.08220E-01 1.03728E-32
6.12476E-01 9.64093E-33
6.16723E-01 8.93202E-33
6.20961E-01 8.24875E-33
6.25190E-01 7.59330E-33
6.29410E-01 6.96739E-33
6.33619E-01 6.37232E-33
6.37819E-01 5.80900E-33
6.42008E-01 5.27797E-33
6.46186E-01 4.77944E-33
6.50353E-01 4.31335E-33
6.54508E-01 3.87933E-33
6.58652E-01 3.47684E-33
6.62784E-01 3.10509E-33
6.66903E-01 2.76316E-33
6.71010E-01 2.44996E-33
6.75104E-01 2.16430E-33
6.79184E-01 1.90491E-33
6.83251E-01 1.67043E-33
6.87303E-01 1.45946E-33
6.91342E-01 1.27059E-33
6.95366E-01 1.10237E-33
6.99375E-01 9.53378E-34
7.03368E-01 8.22189E-34
7.07347E-01 7.07415E-34
7.11309E-01 6.07702E-34
7.15256E-01 5.21740E-34
7.19186E-01 4.48271E-34
7.23099E-01 3.86091E-34
7.26995E-01 3.34059E-34
7.30874E-01 2.91095E-34
7.34736E-01 2.56184E-34
7.38579E-01 2.28378E-34
7.42405E-01 2.06794E-34
7.46212E-01 1.90615E-34
7.50000E-01 1.79088E-34
7.53769E-01 1.71525E-34
7.57519E-01 1.67297E-34
7.61249E-01 1.65835E-34
7.64960E-01 1.66626E-34
7.68650E-01 1.69210E-34
7.72320E-01 1.73178E-34
7.75968E-01 1.78168E-34
7.79596E-01 1.83863E-34
7.83203E-01 1.89987E-34
7.86788E-01 1.96303E-34
7.90351E-01 2.02607E-34
7.93893E-01 2.08729E-34
7.97411E-01 2.14528E-34
8.00908E-01 2.19890E-34
8.04381E-01 2.24722E-34
8.07831E-01 2.28957E-34
8.11257E-01 2.32542E-34
8.14660E-01 2.35444E-34
8.18039E-01 2.37644E-34
8.21394E-01 2.39135E-34
8.24724E-01 2.39921E-34
8.28030E-01 2.40015E-34
8.31310E-01 2.39439E-34
8.34565E-01 2.38219E-34
8.37795E-01 2.36388E-34
8.40999E-01 2.33983E-34
8.44177E-01 2.31042E-34
8.47329E-01 2.27608E-34
8.50455E-01 2.23723E-34
8.53553E-01 2.19430E-34
8.56625E-01 2.14774E-34
8.59670E-01 2.09796E-34
8.62687E-01 2.04540E-34
8.65677E-01 1.99046E-34
8.68639E-01 1.93353E-34
8.71572E-01 1.87499E-34
8.74478E-01 1.81520E-34
8.77355E-01 1.75449E-34
8.80203E-01 1.69318E-34
8.83022E-01 1.63157E-34
8.85812E-01 1.56991E-34
8.88573E-01 1.50846E-34
8.91304E-01 1.44745E-34
8.94005E-01 1.38708E-34
8.96677E-01 1.32752E-34
8.99318E-01 1.26896E-34
9.01928E-01 1.21151E-34
9.04508E-01 1.15532E-34
9.07058E-01 1.10048E-34
9.09576E-01 1.04709E-34
9.12063E-01 9.95217E-35
9.14519E-01 9.44927E-35
9.16943E-01 8.96264E-35
9.19335E-01 8.49263E-35
9.21696E-01 8.03945E-35
9.24024E-01 7.60325E-35
9.26320E-01 7.18405E-35
9.28584E-01 6.78182E-35
9.30815E-01 6.39642E-35
9.33013E-01 6.02765E-35
9.35178E-01 5.67530E-35
9.37310E-01 5.33904E-35
9.39409E-01 5.01854E-35
9.41474E-01 4.71342E-35
9.43505E-01 4.42327E-35
9.45503E-01 4.14766E-35
9.47467E-01 3.88614E-35
9.49397E-01 3.63823E-35
9.51293E-01 3.40344E-35
9.53154E-01 3.18132E-35
9.54981E-01 2.97134E-35
9.56773E-01 2.77301E-35
9.58530E-01 2.58587E-35
9.60252E-01 2.40941E-35
9.61940E-01 2.24315E-35
9.63592E-01 2.08663E-35
9.65209E-01 1.93938E-35
9.66790E-01 1.80095E-35
9.68336E-01 1.67090E-35
9.69846E-01 1.54879E-35
9.71321E-01 1.43423E-35
9.72759E-01 1.32682E-35
9.74162E-01 1.22617E-35
9.75528E-01 1.13191E-35
9.76858E-01 1.04369E-35
9.78152E-01 9.61170E-36
9.79410E-01 8.84035E-36
9.80631E-01 8.11970E-36
9.81815E-01 7.44680E-36
9.82963E-01 6.81890E-36
9.84074E-01 6.23333E-36
9.85148E-01 5.68763E-36
9.86185E-01 5.17946E-36
9.87185E-01 4.70648E-36
9.88148E-01 4.26664E-36
9.89074E-01 3.85789E-36
9.89962E-01 3.47854E-36
9.90814E-01 3.12666E-36
9.91627E-01 2.80069E-36
9.92404E-01 2.49906E-36
9.93143E-01 2.22037E-36
9.93844E-01 1.96326E-36
9.94508E-01 1.72650E-36
9.95134E-01 1.50900E-36
9.95722E-01 1.30957E-36
9.96273E-01 1.12736E-36
9.96786E-01 9.61365E-37
9.97261E-01 8.10844E-37
9.97698E-01 6.74990E-37
9.98097E-01 5.53138E-37
9.98459E-01 4.44682E-37
9.98782E-01 3.49080E-37
9.99067E-01 2.65821E-37
9.99315E-01 1.94520E-37
9.99524E-01 1.34775E-37
9.99695E-01 8.63075E-38
9.99829E-01 4.88661E-38
9.99924E-01 2.22611E-38
9.99981E-01 6.35186E-39
1.00000E+00 1.07470E-39
