 #
 # Subroutine ELSEPA. Elastic scattering of electrons and positrons
 #                    by neutral atoms and positive ions
 #
 # Projectile: electron
 # Kinetic energy = 1.75000E+08 eV = 6.43113E+06 a.u.
 #
 # WARNING: High-energy factorization with free-atom DF screening.
 #          Absorption, polarization and exchange corrections are
 #          switched off.
 #          Phase shifts are calculated for the bare nucleus.
 #          Scattering amplitudes are not evaluated.
 #
 # Element: Tb,  Z =  65,  atomic weight = 1.58925E+02 g/mol
 #
 # Nuclear model: Fermi distribution
 #                Average radius = 5.79582E-13 cm
 #                Skin thickness = 5.46000E-14 cm
 #
 # Number of electrons = 65
 #
 # Total elastic cross section = 7.14891E-18 cm**2 = 2.55292E-01 a0**2
 # 1st transport cross section = 2.65231E-25 cm**2 = 9.47156E-09 a0**2
 # 2nd transport cross section = 7.93405E-25 cm**2 = 2.83330E-08 a0**2
 #
 #
 # Differential cross section:                       MU=(1-COS(THETA))/2
 #
 #  THETA        MU          DCS          DCS        Sherman      error
 #  (deg)                 (cm**2/sr)   (a0**2/sr)    function
 #----------------------------------------------------------------------
0.00000E+00 2.51695E-09
7.61557E-13 2.48015E-09
1.18994E-12 2.45986E-09
1.71346E-12 2.43544E-09
2.33225E-12 2.40710E-09
3.04617E-12 2.37508E-09
3.85530E-12 2.33965E-09
4.75964E-12 2.30109E-09
5.75917E-12 2.25971E-09
6.85391E-12 2.21582E-09
8.04379E-12 2.16993E-09
9.32893E-12 2.12216E-09
1.07092E-11 2.07253E-09
1.21847E-11 2.02172E-09
1.37554E-11 1.97029E-09
1.54213E-11 1.91782E-09
1.71823E-11 1.86487E-09
1.90386E-11 1.81236E-09
2.09900E-11 1.75950E-09
2.30367E-11 1.70667E-09
2.51785E-11 1.65516E-09
2.74156E-11 1.60385E-09
2.97478E-11 1.55289E-09
3.21752E-11 1.50391E-09
3.46979E-11 1.45551E-09
3.73157E-11 1.40781E-09
4.00286E-11 1.36216E-09
4.28368E-11 1.31754E-09
4.57402E-11 1.27380E-09
4.87388E-11 1.23203E-09
5.18325E-11 1.19157E-09
5.50215E-11 1.15210E-09
5.83057E-11 1.11439E-09
6.16850E-11 1.07816E-09
6.51595E-11 1.04293E-09
6.87293E-11 1.00923E-09
7.23943E-11 9.77069E-10
7.61544E-11 9.45875E-10
1.18991E-10 6.97195E-10
1.71347E-10 5.32974E-10
2.33223E-10 4.20073E-10
3.04617E-10 3.38329E-10
3.85531E-10 2.76420E-10
4.75965E-10 2.28022E-10
5.75917E-10 1.89374E-10
6.85389E-10 1.58210E-10
8.04380E-10 1.31911E-10
9.32891E-10 1.10752E-10
1.07092E-09 9.45529E-11
1.21847E-09 8.11070E-11
1.37554E-09 6.93061E-11
1.54213E-09 5.99708E-11
1.71823E-09 5.22563E-11
1.90386E-09 4.53766E-11
2.09900E-09 3.97842E-11
2.30367E-09 3.51365E-11
2.51785E-09 3.09135E-11
2.74156E-09 2.74046E-11
2.97478E-09 2.44650E-11
3.21752E-09 2.17495E-11
3.46978E-09 1.94505E-11
3.73156E-09 1.74933E-11
4.00286E-09 1.56969E-11
4.28368E-09 1.41375E-11
4.57402E-09 1.27923E-11
4.87388E-09 1.15658E-11
5.18326E-09 1.04803E-11
5.50215E-09 9.53347E-12
5.83057E-09 8.67527E-12
6.16850E-09 7.90472E-12
6.51596E-09 7.22612E-12
6.87293E-09 6.61342E-12
7.23942E-09 6.05774E-12
7.61544E-09 5.56418E-12
1.18991E-08 2.58342E-12
1.71347E-08 1.37096E-12
2.33223E-08 8.01963E-13
3.04617E-08 5.02710E-13
3.85531E-08 3.30874E-13
4.75965E-08 2.26067E-13
5.75917E-08 1.59425E-13
6.85389E-08 1.15487E-13
8.04380E-08 8.55745E-14
9.32891E-08 6.48094E-14
1.07092E-07 4.99840E-14
1.21847E-07 3.91469E-14
1.37554E-07 3.11076E-14
1.54213E-07 2.50376E-14
1.71823E-07 2.03829E-14
1.90386E-07 1.67644E-14
2.09900E-07 1.39118E-14
2.30367E-07 1.16426E-14
2.51785E-07 9.81879E-15
2.74156E-07 8.33906E-15
2.97478E-07 7.12797E-15
3.21752E-07 6.12795E-15
3.46978E-07 5.29742E-15
3.73156E-07 4.60296E-15
4.00286E-07 4.01863E-15
4.28368E-07 3.52406E-15
4.57402E-07 3.10283E-15
4.87388E-07 2.74267E-15
5.18325E-07 2.43324E-15
5.50215E-07 2.16618E-15
5.83057E-07 1.93472E-15
6.16850E-07 1.73320E-15
6.51596E-07 1.55722E-15
6.87293E-07 1.40300E-15
7.23942E-07 1.26738E-15
7.61543E-07 1.14774E-15
1.18991E-06 4.77539E-16
1.71347E-06 2.32648E-16
2.33223E-06 1.26517E-16
3.04617E-06 7.45929E-17
3.85531E-06 4.67847E-17
4.75964E-06 3.08115E-17
5.75916E-06 2.11099E-17
6.85388E-06 1.49434E-17
8.04378E-06 1.08725E-17
9.32888E-06 8.09806E-18
1.07092E-05 6.15460E-18
1.21846E-05 4.76060E-18
1.37553E-05 3.73979E-18
1.54212E-05 2.97847E-18
1.71822E-05 2.40136E-18
1.90385E-05 1.95656E-18
2.09899E-05 1.61167E-18
2.30365E-05 1.33936E-18
2.51783E-05 1.12194E-18
2.74153E-05 9.46696E-19
2.97475E-05 8.04267E-19
3.21749E-05 6.87636E-19
3.46974E-05 5.91450E-19
3.73152E-05 5.11571E-19
4.00281E-05 4.44784E-19
4.28362E-05 3.88573E-19
4.57395E-05 3.40969E-19
4.87380E-05 3.00423E-19
5.18317E-05 2.65713E-19
5.50205E-05 2.35862E-19
5.83045E-05 2.10084E-19
6.16838E-05 1.87736E-19
6.51582E-05 1.68289E-19
6.87277E-05 1.51302E-19
7.23925E-05 1.36411E-19
7.61524E-05 1.23616E-19
9.21439E-05 8.45590E-20
1.09658E-04 5.97888E-20
1.28695E-04 4.34733E-20
1.49255E-04 3.23660E-20
1.71338E-04 2.45961E-20
1.94942E-04 1.90267E-20
2.20070E-04 1.49506E-20
2.46720E-04 1.19118E-20
2.74892E-04 9.60840E-21
3.04586E-04 7.83692E-21
3.35803E-04 6.45621E-21
3.68542E-04 5.36720E-21
4.02802E-04 4.49885E-21
4.38585E-04 3.79955E-21
4.75889E-04 3.23126E-21
5.14715E-04 2.76554E-21
5.55063E-04 2.38095E-21
5.96931E-04 2.06106E-21
6.40321E-04 1.79322E-21
6.85233E-04 1.56758E-21
7.31665E-04 1.37639E-21
7.79618E-04 1.21353E-21
8.29092E-04 1.07407E-21
8.80086E-04 9.54086E-22
9.32601E-04 8.50411E-22
9.86636E-04 7.60449E-22
1.04219E-03 6.82076E-22
1.09927E-03 6.13543E-22
1.15786E-03 5.53402E-22
1.21797E-03 5.00447E-22
1.27961E-03 4.53670E-22
1.34276E-03 4.12224E-22
1.40743E-03 3.75397E-22
1.47362E-03 3.42582E-22
1.54133E-03 3.13267E-22
1.61056E-03 2.87011E-22
1.68131E-03 2.63439E-22
1.75357E-03 2.42229E-22
1.82735E-03 2.23101E-22
1.90265E-03 2.05815E-22
1.97947E-03 1.90161E-22
2.05780E-03 1.75959E-22
2.13765E-03 1.63049E-22
2.21902E-03 1.51293E-22
2.30190E-03 1.40569E-22
2.38630E-03 1.30771E-22
2.47222E-03 1.21804E-22
2.55965E-03 1.13585E-22
2.64859E-03 1.06040E-22
2.73905E-03 9.91043E-23
2.83103E-03 9.27197E-23
2.92452E-03 8.68346E-23
3.01952E-03 8.14028E-23
3.11604E-03 7.63832E-23
3.21407E-03 7.17388E-23
3.31362E-03 6.74366E-23
3.41468E-03 6.34467E-23
3.51725E-03 5.97425E-23
3.62133E-03 5.62999E-23
3.72692E-03 5.30970E-23
3.83403E-03 5.01141E-23
3.94265E-03 4.73335E-23
4.05278E-03 4.47390E-23
4.16442E-03 4.23158E-23
4.27757E-03 4.00507E-23
4.39223E-03 3.79314E-23
4.50840E-03 3.59470E-23
4.62608E-03 3.40873E-23
4.74527E-03 3.23431E-23
4.86597E-03 3.07060E-23
4.98817E-03 2.91681E-23
5.11188E-03 2.77225E-23
5.23711E-03 2.63625E-23
5.36383E-03 2.50824E-23
5.49207E-03 2.38764E-23
5.62181E-03 2.27396E-23
5.75306E-03 2.16674E-23
5.88581E-03 2.06553E-23
6.02007E-03 1.96995E-23
6.15583E-03 1.87962E-23
6.29310E-03 1.79422E-23
6.43187E-03 1.71341E-23
6.57214E-03 1.63692E-23
6.71392E-03 1.56448E-23
6.85720E-03 1.49582E-23
7.00198E-03 1.43073E-23
7.14827E-03 1.36897E-23
7.29605E-03 1.31036E-23
7.44534E-03 1.25471E-23
7.59612E-03 1.20184E-23
7.97965E-03 1.08079E-23
8.37255E-03 9.73875E-24
8.77480E-03 8.79201E-24
9.18641E-03 7.95152E-24
9.60736E-03 7.20355E-24
1.00376E-02 6.53640E-24
1.04773E-02 5.94006E-24
1.09262E-02 5.40590E-24
1.13844E-02 4.92650E-24
1.18520E-02 4.49544E-24
1.23288E-02 4.10715E-24
1.28150E-02 3.75680E-24
1.33104E-02 3.44016E-24
1.38150E-02 3.15354E-24
1.43290E-02 2.89372E-24
1.48521E-02 2.65785E-24
1.53845E-02 2.44344E-24
1.59262E-02 2.24827E-24
1.64770E-02 2.07041E-24
1.70371E-02 1.90812E-24
1.76063E-02 1.75987E-24
1.81848E-02 1.62431E-24
1.87724E-02 1.50020E-24
1.93692E-02 1.38648E-24
1.99751E-02 1.28217E-24
2.05901E-02 1.18641E-24
2.12143E-02 1.09841E-24
2.18476E-02 1.01749E-24
2.24900E-02 9.43005E-25
2.31415E-02 8.74395E-25
2.38021E-02 8.11151E-25
2.44717E-02 7.52809E-25
2.51504E-02 6.98954E-25
2.58382E-02 6.49207E-25
2.65349E-02 6.03227E-25
2.72407E-02 5.60702E-25
2.79555E-02 5.21350E-25
2.86793E-02 4.84915E-25
2.94120E-02 4.51161E-25
3.01537E-02 4.19876E-25
3.09043E-02 3.90866E-25
3.16639E-02 3.63951E-25
3.24324E-02 3.38971E-25
3.32098E-02 3.15775E-25
3.39961E-02 2.94229E-25
3.47912E-02 2.74206E-25
3.55952E-02 2.55592E-25
3.64081E-02 2.38283E-25
3.72297E-02 2.22180E-25
3.80602E-02 2.07196E-25
3.88995E-02 1.93249E-25
3.97476E-02 1.80262E-25
4.06044E-02 1.68168E-25
4.14700E-02 1.56900E-25
4.23443E-02 1.46402E-25
4.32273E-02 1.36617E-25
4.41190E-02 1.27495E-25
4.50194E-02 1.18990E-25
4.59284E-02 1.11058E-25
4.68461E-02 1.03660E-25
4.87074E-02 9.03190E-26
5.06030E-02 7.87023E-26
5.25328E-02 6.85822E-26
5.44967E-02 5.97623E-26
5.64946E-02 5.20732E-26
5.85262E-02 4.53685E-26
6.05914E-02 3.95214E-26
6.26901E-02 3.44217E-26
6.48222E-02 2.99739E-26
6.69873E-02 2.60951E-26
6.91854E-02 2.27128E-26
7.14163E-02 1.97642E-26
7.36799E-02 1.71943E-26
7.59760E-02 1.49552E-26
7.83043E-02 1.30050E-26
8.06647E-02 1.13073E-26
8.30571E-02 9.83008E-27
8.54812E-02 8.54535E-27
8.79369E-02 7.42869E-27
9.04240E-02 6.45871E-27
9.29422E-02 5.61667E-27
9.54915E-02 4.88620E-27
9.80716E-02 4.25294E-27
1.00682E-01 3.70434E-27
1.03323E-01 3.22941E-27
1.05995E-01 2.81854E-27
1.08696E-01 2.46333E-27
1.11427E-01 2.15642E-27
1.14188E-01 1.89140E-27
1.16978E-01 1.66265E-27
1.19797E-01 1.46530E-27
1.22645E-01 1.29506E-27
1.25522E-01 1.14823E-27
1.28428E-01 1.02158E-27
1.31361E-01 9.12281E-28
1.34323E-01 8.17903E-28
1.37313E-01 7.36327E-28
1.40330E-01 6.65721E-28
1.43375E-01 6.04498E-28
1.46447E-01 5.51291E-28
1.49545E-01 5.04920E-28
1.52671E-01 4.64372E-28
1.55823E-01 4.28776E-28
1.59001E-01 3.97387E-28
1.62205E-01 3.69569E-28
1.65435E-01 3.44779E-28
1.68690E-01 3.22556E-28
1.71970E-01 3.02510E-28
1.75276E-01 2.84311E-28
1.78606E-01 2.67681E-28
1.81961E-01 2.52387E-28
1.85340E-01 2.38235E-28
1.88743E-01 2.25064E-28
1.92169E-01 2.12739E-28
1.95619E-01 2.01150E-28
1.99092E-01 1.90205E-28
2.02589E-01 1.79832E-28
2.06107E-01 1.69970E-28
2.09649E-01 1.60570E-28
2.13212E-01 1.51594E-28
2.16797E-01 1.43009E-28
2.20404E-01 1.34791E-28
2.24032E-01 1.26921E-28
2.27680E-01 1.19381E-28
2.31350E-01 1.12160E-28
2.35040E-01 1.05246E-28
2.38751E-01 9.86321E-29
2.42481E-01 9.23098E-29
2.46231E-01 8.62730E-29
2.50000E-01 8.05156E-29
2.53788E-01 7.50322E-29
2.57595E-01 6.98173E-29
2.61421E-01 6.48652E-29
2.65264E-01 6.01703E-29
2.69126E-01 5.57267E-29
2.73005E-01 5.15282E-29
2.76901E-01 4.75683E-29
2.80814E-01 4.38403E-29
2.84744E-01 4.03370E-29
2.88691E-01 3.70511E-29
2.92653E-01 3.39751E-29
2.96632E-01 3.11011E-29
3.00625E-01 2.84211E-29
3.04634E-01 2.59270E-29
3.08658E-01 2.36107E-29
3.12697E-01 2.14640E-29
3.16749E-01 1.94785E-29
3.20816E-01 1.76460E-29
3.24896E-01 1.59585E-29
3.28990E-01 1.44078E-29
3.33097E-01 1.29861E-29
3.37216E-01 1.16856E-29
3.41348E-01 1.04988E-29
3.45492E-01 9.41830E-30
3.49647E-01 8.43706E-30
3.53814E-01 7.54819E-30
3.57992E-01 6.74509E-30
3.62181E-01 6.02143E-30
3.66381E-01 5.37117E-30
3.70590E-01 4.78853E-30
3.74810E-01 4.26804E-30
3.79039E-01 3.80450E-30
3.83277E-01 3.39302E-30
3.87524E-01 3.02898E-30
3.91780E-01 2.70803E-30
3.96044E-01 2.42612E-30
4.00316E-01 2.17944E-30
4.04596E-01 1.96448E-30
4.08882E-01 1.77794E-30
4.13176E-01 1.61678E-30
4.17476E-01 1.47821E-30
4.21783E-01 1.35963E-30
4.26095E-01 1.25869E-30
4.30413E-01 1.17322E-30
4.34737E-01 1.10124E-30
4.39065E-01 1.04095E-30
4.43398E-01 9.90736E-31
4.47736E-01 9.49129E-31
4.52077E-01 9.14814E-31
4.56422E-01 8.86614E-31
4.60770E-01 8.63482E-31
4.65122E-01 8.44487E-31
4.69476E-01 8.28813E-31
4.73832E-01 8.15741E-31
4.78190E-01 8.04649E-31
4.82550E-01 7.94995E-31
4.86912E-01 7.86320E-31
4.91274E-01 7.78230E-31
4.95637E-01 7.70396E-31
5.00000E-01 7.62547E-31
5.04363E-01 7.54462E-31
5.08726E-01 7.45965E-31
5.13088E-01 7.36920E-31
5.17450E-01 7.27226E-31
5.21810E-01 7.16815E-31
5.26168E-01 7.05644E-31
5.30524E-01 6.93693E-31
5.34878E-01 6.80963E-31
5.39230E-01 6.67470E-31
5.43578E-01 6.53246E-31
5.47923E-01 6.38332E-31
5.52264E-01 6.22779E-31
5.56602E-01 6.06645E-31
5.60935E-01 5.89995E-31
5.65263E-01 5.72894E-31
5.69587E-01 5.55412E-31
5.73905E-01 5.37619E-31
5.78217E-01 5.19585E-31
5.82524E-01 5.01380E-31
5.86824E-01 4.83071E-31
5.91118E-01 4.64724E-31
5.95404E-01 4.46401E-31
5.99684E-01 4.28162E-31
6.03956E-01 4.10062E-31
6.08220E-01 3.92153E-31
6.12476E-01 3.74484E-31
6.16723E-01 3.57099E-31
6.20961E-01 3.40037E-31
6.25190E-01 3.23334E-31
6.29410E-01 3.07023E-31
6.33619E-01 2.91131E-31
6.37819E-01 2.75682E-31
6.42008E-01 2.60697E-31
6.46186E-01 2.46192E-31
6.50353E-01 2.32181E-31
6.54508E-01 2.18674E-31
6.58652E-01 2.05679E-31
6.62784E-01 1.93200E-31
6.66903E-01 1.81238E-31
6.71010E-01 1.69793E-31
6.75104E-01 1.58863E-31
6.79184E-01 1.48442E-31
6.83251E-01 1.38524E-31
6.87303E-01 1.29101E-31
6.91342E-01 1.20164E-31
6.95366E-01 1.11701E-31
6.99375E-01 1.03701E-31
7.03368E-01 9.61503E-32
7.07347E-01 8.90357E-32
7.11309E-01 8.23429E-32
7.15256E-01 7.60571E-32
7.19186E-01 7.01630E-32
7.23099E-01 6.46452E-32
7.26995E-01 5.94880E-32
7.30874E-01 5.46757E-32
7.34736E-01 5.01926E-32
7.38579E-01 4.60230E-32
7.42405E-01 4.21514E-32
7.46212E-01 3.85625E-32
7.50000E-01 3.52413E-32
7.53769E-01 3.21732E-32
7.57519E-01 2.93437E-32
7.61249E-01 2.67389E-32
7.64960E-01 2.43453E-32
7.68650E-01 2.21497E-32
7.72320E-01 2.01396E-32
7.75968E-01 1.83028E-32
7.79596E-01 1.66276E-32
7.83203E-01 1.51029E-32
7.86788E-01 1.37180E-32
7.90351E-01 1.24628E-32
7.93893E-01 1.13276E-32
7.97411E-01 1.03033E-32
8.00908E-01 9.38105E-33
8.04381E-01 8.55280E-33
8.07831E-01 7.81078E-33
8.11257E-01 7.14771E-33
8.14660E-01 6.55677E-33
8.18039E-01 6.03156E-33
8.21394E-01 5.56609E-33
8.24724E-01 5.15477E-33
8.28030E-01 4.79242E-33
8.31310E-01 4.47418E-33
8.34565E-01 4.19558E-33
8.37795E-01 3.95248E-33
8.40999E-01 3.74105E-33
8.44177E-01 3.55775E-33
8.47329E-01 3.39936E-33
8.50455E-01 3.26289E-33
8.53553E-01 3.14564E-33
8.56625E-01 3.04514E-33
8.59670E-01 2.95912E-33
8.62687E-01 2.88555E-33
8.65677E-01 2.82259E-33
8.68639E-01 2.76857E-33
8.71572E-01 2.72201E-33
8.74478E-01 2.68157E-33
8.77355E-01 2.64606E-33
8.80203E-01 2.61445E-33
8.83022E-01 2.58579E-33
8.85812E-01 2.55928E-33
8.88573E-01 2.53421E-33
8.91304E-01 2.50998E-33
8.94005E-01 2.48605E-33
8.96677E-01 2.46199E-33
8.99318E-01 2.43742E-33
9.01928E-01 2.41204E-33
9.04508E-01 2.38560E-33
9.07058E-01 2.35790E-33
9.09576E-01 2.32881E-33
9.12063E-01 2.29820E-33
9.14519E-01 2.26601E-33
9.16943E-01 2.23221E-33
9.19335E-01 2.19678E-33
9.21696E-01 2.15975E-33
9.24024E-01 2.12114E-33
9.26320E-01 2.08101E-33
9.28584E-01 2.03944E-33
9.30815E-01 1.99651E-33
9.33013E-01 1.95230E-33
9.35178E-01 1.90692E-33
9.37310E-01 1.86048E-33
9.39409E-01 1.81309E-33
9.41474E-01 1.76486E-33
9.43505E-01 1.71591E-33
9.45503E-01 1.66635E-33
9.47467E-01 1.61631E-33
9.49397E-01 1.56590E-33
9.51293E-01 1.51523E-33
9.53154E-01 1.46440E-33
9.54981E-01 1.41354E-33
9.56773E-01 1.36274E-33
9.58530E-01 1.31210E-33
9.60252E-01 1.26171E-33
9.61940E-01 1.21167E-33
9.63592E-01 1.16206E-33
9.65209E-01 1.11297E-33
9.66790E-01 1.06446E-33
9.68336E-01 1.01660E-33
9.69846E-01 9.69473E-34
9.71321E-01 9.23129E-34
9.72759E-01 8.77626E-34
9.74162E-01 8.33015E-34
9.75528E-01 7.89345E-34
9.76858E-01 7.46660E-34
9.78152E-01 7.04996E-34
9.79410E-01 6.64390E-34
9.80631E-01 6.24873E-34
9.81815E-01 5.86473E-34
9.82963E-01 5.49215E-34
9.84074E-01 5.13120E-34
9.85148E-01 4.78205E-34
9.86185E-01 4.44486E-34
9.87185E-01 4.11978E-34
9.88148E-01 3.80692E-34
9.89074E-01 3.50635E-34
9.89962E-01 3.21814E-34
9.90814E-01 2.94234E-34
9.91627E-01 2.67900E-34
9.92404E-01 2.42814E-34
9.93143E-01 2.18975E-34
9.93844E-01 1.96384E-34
9.94508E-01 1.75041E-34
9.95134E-01 1.54942E-34
9.95722E-01 1.36087E-34
9.96273E-01 1.18471E-34
9.96786E-01 1.02093E-34
9.97261E-01 8.69466E-35
9.97698E-01 7.30301E-35
9.98097E-01 6.03394E-35
9.98459E-01 4.88705E-35
9.98782E-01 3.86197E-35
9.99067E-01 2.95842E-35
9.99315E-01 2.17599E-35
9.99524E-01 1.51449E-35
9.99695E-01 9.73608E-36
9.99829E-01 5.53146E-36
9.99924E-01 2.52935E-36
9.99981E-01 7.28568E-37
1.00000E+00 1.28027E-37
