 #
 # Subroutine ELSEPA. Elastic scattering of electrons and positrons
 #                    by neutral atoms and positive ions
 #
 # Projectile: electron
 # Kinetic energy = 3.50000E+07 eV = 1.28623E+06 a.u.
 #
 # WARNING: High-energy factorization with free-atom DF screening.
 #          Absorption, polarization and exchange corrections are
 #          switched off.
 #          Phase shifts are calculated for the bare nucleus.
 #          Scattering amplitudes are not evaluated.
 #
 # Element: Tb,  Z =  65,  atomic weight = 1.58925E+02 g/mol
 #
 # Nuclear model: Fermi distribution
 #                Average radius = 5.79582E-13 cm
 #                Skin thickness = 5.46000E-14 cm
 #
 # Number of electrons = 65
 #
 # Total elastic cross section = 7.14817E-18 cm**2 = 2.55266E-01 a0**2
 # 1st transport cross section = 6.47187E-24 cm**2 = 2.31115E-07 a0**2
 # 2nd transport cross section = 1.87301E-23 cm**2 = 6.68866E-07 a0**2
 #
 #
 # Differential cross section:                       MU=(1-COS(THETA))/2
 #
 #  THETA        MU          DCS          DCS        Sherman      error
 #  (deg)                 (cm**2/sr)   (a0**2/sr)    function
 #----------------------------------------------------------------------
0.00000E+00 1.03037E-10
7.61557E-13 1.02974E-10
1.18994E-12 1.02939E-10
1.71346E-12 1.02896E-10
2.33225E-12 1.02846E-10
3.04617E-12 1.02787E-10
3.85530E-12 1.02721E-10
4.75964E-12 1.02648E-10
5.75917E-12 1.02566E-10
6.85391E-12 1.02477E-10
8.04379E-12 1.02381E-10
9.32893E-12 1.02277E-10
1.07092E-11 1.02165E-10
1.21847E-11 1.02046E-10
1.37554E-11 1.01920E-10
1.54213E-11 1.01786E-10
1.71823E-11 1.01645E-10
1.90386E-11 1.01496E-10
2.09900E-11 1.01340E-10
2.30367E-11 1.01178E-10
2.51785E-11 1.01008E-10
2.74156E-11 1.00831E-10
2.97478E-11 1.00647E-10
3.21752E-11 1.00456E-10
3.46979E-11 1.00258E-10
3.73157E-11 1.00054E-10
4.00286E-11 9.98427E-11
4.28368E-11 9.96250E-11
4.57402E-11 9.94007E-11
4.87388E-11 9.91699E-11
5.18325E-11 9.89328E-11
5.50215E-11 9.86892E-11
5.83057E-11 9.84396E-11
6.16850E-11 9.81838E-11
6.51595E-11 9.79219E-11
6.87293E-11 9.76541E-11
7.23943E-11 9.73805E-11
7.61544E-11 9.71010E-11
1.18991E-10 9.40107E-11
1.71347E-10 9.04538E-11
2.33223E-10 8.65523E-11
3.04617E-10 8.23789E-11
3.85531E-10 7.80603E-11
4.75965E-10 7.36952E-11
5.75917E-10 6.93312E-11
6.85389E-10 6.50784E-11
8.04380E-10 6.09693E-11
9.32891E-10 5.70196E-11
1.07092E-09 5.33130E-11
1.21847E-09 4.98203E-11
1.37554E-09 4.65416E-11
1.54213E-09 4.35334E-11
1.71823E-09 4.07336E-11
1.90386E-09 3.81461E-11
2.09900E-09 3.57846E-11
2.30367E-09 3.36023E-11
2.51785E-09 3.15998E-11
2.74156E-09 2.97683E-11
2.97478E-09 2.80787E-11
3.21752E-09 2.65287E-11
3.46978E-09 2.51026E-11
3.73156E-09 2.37845E-11
4.00286E-09 2.25695E-11
4.28368E-09 2.14438E-11
4.57402E-09 2.03994E-11
4.87388E-09 1.94286E-11
5.18326E-09 1.85236E-11
5.50215E-09 1.76799E-11
5.83057E-09 1.68878E-11
6.16850E-09 1.61461E-11
6.51596E-09 1.54504E-11
6.87293E-09 1.47923E-11
7.23942E-09 1.41736E-11
7.61544E-09 1.35893E-11
1.18991E-08 9.13266E-12
1.71347E-08 6.32105E-12
2.33223E-08 4.41512E-12
3.04617E-08 3.22237E-12
3.85531E-08 2.38612E-12
4.75965E-08 1.80079E-12
5.75917E-08 1.39153E-12
6.85389E-08 1.08659E-12
8.04380E-08 8.60626E-13
9.32891E-08 6.91797E-13
1.07092E-07 5.58881E-13
1.21847E-07 4.56435E-13
1.37554E-07 3.76502E-13
1.54213E-07 3.11707E-13
1.71823E-07 2.60487E-13
1.90386E-07 2.19276E-13
2.09900E-07 1.85556E-13
2.30367E-07 1.58213E-13
2.51785E-07 1.35726E-13
2.74156E-07 1.17086E-13
2.97478E-07 1.01637E-13
3.21752E-07 8.86868E-14
3.46978E-07 7.77759E-14
3.73156E-07 6.85565E-14
4.00286E-07 6.06850E-14
4.28368E-07 5.39540E-14
4.57402E-07 4.81711E-14
4.87388E-07 4.31220E-14
5.18325E-07 3.87389E-14
5.50215E-07 3.49199E-14
5.83057E-07 3.15584E-14
6.16850E-07 2.86060E-14
6.51596E-07 2.59998E-14
6.87293E-07 2.36796E-14
7.23942E-07 2.16190E-14
7.61543E-07 1.97781E-14
1.18991E-06 8.88069E-15
1.71347E-06 4.53378E-15
2.33223E-06 2.54309E-15
3.04617E-06 1.53642E-15
3.85531E-06 9.82435E-16
4.75964E-06 6.57723E-16
5.75916E-06 4.56857E-16
6.85388E-06 3.27187E-16
8.04378E-06 2.40463E-16
9.32888E-06 1.80612E-16
1.07092E-05 1.38271E-16
1.21846E-05 1.07626E-16
1.37553E-05 8.50020E-17
1.54212E-05 6.80174E-17
1.71822E-05 5.50622E-17
1.90385E-05 4.50250E-17
2.09899E-05 3.72081E-17
2.30365E-05 3.10093E-17
2.51783E-05 2.60432E-17
2.74153E-05 2.20272E-17
2.97475E-05 1.87536E-17
3.21749E-05 1.60662E-17
3.46974E-05 1.38444E-17
3.73152E-05 1.19954E-17
4.00281E-05 1.04464E-17
4.28362E-05 9.14006E-18
4.57395E-05 8.03191E-18
4.87380E-05 7.08648E-18
5.18317E-05 6.27586E-18
5.50205E-05 5.57771E-18
5.83045E-05 4.97392E-18
6.16838E-05 4.44980E-18
6.51582E-05 3.99312E-18
6.87277E-05 3.59374E-18
7.23925E-05 3.24322E-18
7.61524E-05 2.93475E-18
9.21439E-05 2.01327E-18
1.09658E-04 1.42682E-18
1.28695E-04 1.03940E-18
1.49255E-04 7.75006E-19
1.71338E-04 5.89662E-19
1.94942E-04 4.56575E-19
2.20070E-04 3.59033E-19
2.46720E-04 2.86222E-19
2.74892E-04 2.30979E-19
3.04586E-04 1.88458E-19
3.35803E-04 1.55294E-19
3.68542E-04 1.29124E-19
4.02802E-04 1.08247E-19
4.38585E-04 9.14300E-20
4.75889E-04 7.77603E-20
5.14715E-04 6.65562E-20
5.55063E-04 5.73029E-20
5.96931E-04 4.96061E-20
6.40321E-04 4.31617E-20
6.85233E-04 3.77329E-20
7.31665E-04 3.31333E-20
7.79618E-04 2.92154E-20
8.29092E-04 2.58613E-20
8.80086E-04 2.29762E-20
9.32601E-04 2.04836E-20
9.86636E-04 1.83210E-20
1.04219E-03 1.64373E-20
1.09927E-03 1.47904E-20
1.15786E-03 1.33453E-20
1.21797E-03 1.20731E-20
1.27961E-03 1.09495E-20
1.34276E-03 9.95408E-21
1.40743E-03 9.06972E-21
1.47362E-03 8.28181E-21
1.54133E-03 7.57798E-21
1.61056E-03 6.94768E-21
1.68131E-03 6.38186E-21
1.75357E-03 5.87275E-21
1.82735E-03 5.41364E-21
1.90265E-03 4.99875E-21
1.97947E-03 4.62305E-21
2.05780E-03 4.28217E-21
2.13765E-03 3.97230E-21
2.21902E-03 3.69011E-21
2.30190E-03 3.43268E-21
2.38630E-03 3.19742E-21
2.47222E-03 2.98210E-21
2.55965E-03 2.78472E-21
2.64859E-03 2.60349E-21
2.73905E-03 2.43685E-21
2.83103E-03 2.28342E-21
2.92452E-03 2.14195E-21
3.01952E-03 2.01135E-21
3.11604E-03 1.89061E-21
3.21407E-03 1.77886E-21
3.31362E-03 1.67530E-21
3.41468E-03 1.57921E-21
3.51725E-03 1.48997E-21
3.62133E-03 1.40699E-21
3.72692E-03 1.32975E-21
3.83403E-03 1.25777E-21
3.94265E-03 1.19064E-21
4.05278E-03 1.12796E-21
4.16442E-03 1.06938E-21
4.27757E-03 1.01459E-21
4.39223E-03 9.63282E-22
4.50840E-03 9.15208E-22
4.62608E-03 8.70119E-22
4.74527E-03 8.27797E-22
4.86597E-03 7.88036E-22
4.98817E-03 7.50654E-22
5.11188E-03 7.15482E-22
5.23711E-03 6.82364E-22
5.36383E-03 6.51156E-22
5.49207E-03 6.21727E-22
5.62181E-03 5.93956E-22
5.75306E-03 5.67733E-22
5.88581E-03 5.42954E-22
6.02007E-03 5.19524E-22
6.15583E-03 4.97356E-22
6.29310E-03 4.76368E-22
6.43187E-03 4.56486E-22
6.57214E-03 4.37641E-22
6.71392E-03 4.19766E-22
6.85720E-03 4.02804E-22
7.00198E-03 3.86697E-22
7.14827E-03 3.71396E-22
7.29605E-03 3.56852E-22
7.44534E-03 3.43018E-22
7.59612E-03 3.29855E-22
7.97965E-03 2.99633E-22
8.37255E-03 2.72825E-22
8.77480E-03 2.48976E-22
9.18641E-03 2.27702E-22
9.60736E-03 2.08672E-22
1.00376E-02 1.91609E-22
1.04773E-02 1.76271E-22
1.09262E-02 1.62452E-22
1.13844E-02 1.49974E-22
1.18520E-02 1.38682E-22
1.23288E-02 1.28444E-22
1.28150E-02 1.19142E-22
1.33104E-02 1.10675E-22
1.38150E-02 1.02955E-22
1.43290E-02 9.59019E-23
1.48521E-02 8.94486E-23
1.53845E-02 8.35341E-23
1.59262E-02 7.81050E-23
1.64770E-02 7.31139E-23
1.70371E-02 6.85188E-23
1.76063E-02 6.42823E-23
1.81848E-02 6.03712E-23
1.87724E-02 5.67557E-23
1.93692E-02 5.34091E-23
1.99751E-02 5.03070E-23
2.05901E-02 4.74287E-23
2.12143E-02 4.47549E-23
2.18476E-02 4.22683E-23
2.24900E-02 3.99533E-23
2.31415E-02 3.77957E-23
2.38021E-02 3.57829E-23
2.44717E-02 3.39031E-23
2.51504E-02 3.21459E-23
2.58382E-02 3.05018E-23
2.65349E-02 2.89621E-23
2.72407E-02 2.75188E-23
2.79555E-02 2.61648E-23
2.86793E-02 2.48934E-23
2.94120E-02 2.36986E-23
3.01537E-02 2.25750E-23
3.09043E-02 2.15174E-23
3.16639E-02 2.05212E-23
3.24324E-02 1.95821E-23
3.32098E-02 1.86963E-23
3.39961E-02 1.78602E-23
3.47912E-02 1.70703E-23
3.55952E-02 1.63236E-23
3.64081E-02 1.56174E-23
3.72297E-02 1.49490E-23
3.80602E-02 1.43159E-23
3.88995E-02 1.37160E-23
3.97476E-02 1.31471E-23
4.06044E-02 1.26074E-23
4.14700E-02 1.20950E-23
4.23443E-02 1.16084E-23
4.32273E-02 1.11459E-23
4.41190E-02 1.07061E-23
4.50194E-02 1.02877E-23
4.59284E-02 9.88943E-24
4.68461E-02 9.51016E-24
4.87074E-02 8.80433E-24
5.06030E-02 8.16236E-24
5.25328E-02 7.57740E-24
5.44967E-02 7.04347E-24
5.64946E-02 6.55528E-24
5.85262E-02 6.10821E-24
6.05914E-02 5.69815E-24
6.26901E-02 5.32146E-24
6.48222E-02 4.97495E-24
6.69873E-02 4.65574E-24
6.91854E-02 4.36129E-24
7.14163E-02 4.08933E-24
7.36799E-02 3.83783E-24
7.59760E-02 3.60497E-24
7.83043E-02 3.38911E-24
8.06647E-02 3.18879E-24
8.30571E-02 3.00268E-24
8.54812E-02 2.82960E-24
8.79369E-02 2.66848E-24
9.04240E-02 2.51832E-24
9.29422E-02 2.37827E-24
9.54915E-02 2.24750E-24
9.80716E-02 2.12531E-24
1.00682E-01 2.01102E-24
1.03323E-01 1.90404E-24
1.05995E-01 1.80382E-24
1.08696E-01 1.70984E-24
1.11427E-01 1.62167E-24
1.14188E-01 1.53887E-24
1.16978E-01 1.46106E-24
1.19797E-01 1.38789E-24
1.22645E-01 1.31904E-24
1.25522E-01 1.25420E-24
1.28428E-01 1.19311E-24
1.31361E-01 1.13551E-24
1.34323E-01 1.08116E-24
1.37313E-01 1.02985E-24
1.40330E-01 9.81392E-25
1.43375E-01 9.35590E-25
1.46447E-01 8.92277E-25
1.49545E-01 8.51297E-25
1.52671E-01 8.12503E-25
1.55823E-01 7.75759E-25
1.59001E-01 7.40940E-25
1.62205E-01 7.07929E-25
1.65435E-01 6.76616E-25
1.68690E-01 6.46901E-25
1.71970E-01 6.18690E-25
1.75276E-01 5.91894E-25
1.78606E-01 5.66431E-25
1.81961E-01 5.42225E-25
1.85340E-01 5.19204E-25
1.88743E-01 4.97302E-25
1.92169E-01 4.76455E-25
1.95619E-01 4.56606E-25
1.99092E-01 4.37699E-25
2.02589E-01 4.19683E-25
2.06107E-01 4.02511E-25
2.09649E-01 3.86136E-25
2.13212E-01 3.70516E-25
2.16797E-01 3.55612E-25
2.20404E-01 3.41386E-25
2.24032E-01 3.27802E-25
2.27680E-01 3.14829E-25
2.31350E-01 3.02434E-25
2.35040E-01 2.90588E-25
2.38751E-01 2.79263E-25
2.42481E-01 2.68434E-25
2.46231E-01 2.58076E-25
2.50000E-01 2.48165E-25
2.53788E-01 2.38680E-25
2.57595E-01 2.29601E-25
2.61421E-01 2.20906E-25
2.65264E-01 2.12579E-25
2.69126E-01 2.04601E-25
2.73005E-01 1.96956E-25
2.76901E-01 1.89628E-25
2.80814E-01 1.82603E-25
2.84744E-01 1.75866E-25
2.88691E-01 1.69405E-25
2.92653E-01 1.63206E-25
2.96632E-01 1.57258E-25
3.00625E-01 1.51549E-25
3.04634E-01 1.46068E-25
3.08658E-01 1.40806E-25
3.12697E-01 1.35752E-25
3.16749E-01 1.30897E-25
3.20816E-01 1.26234E-25
3.24896E-01 1.21752E-25
3.28990E-01 1.17445E-25
3.33097E-01 1.13304E-25
3.37216E-01 1.09323E-25
3.41348E-01 1.05495E-25
3.45492E-01 1.01814E-25
3.49647E-01 9.82719E-26
3.53814E-01 9.48645E-26
3.57992E-01 9.15856E-26
3.62181E-01 8.84300E-26
3.66381E-01 8.53925E-26
3.70590E-01 8.24682E-26
3.74810E-01 7.96526E-26
3.79039E-01 7.69410E-26
3.83277E-01 7.43294E-26
3.87524E-01 7.18137E-26
3.91780E-01 6.93900E-26
3.96044E-01 6.70546E-26
4.00316E-01 6.48040E-26
4.04596E-01 6.26348E-26
4.08882E-01 6.05438E-26
4.13176E-01 5.85280E-26
4.17476E-01 5.65843E-26
4.21783E-01 5.47099E-26
4.26095E-01 5.29022E-26
4.30413E-01 5.11585E-26
4.34737E-01 4.94765E-26
4.39065E-01 4.78536E-26
4.43398E-01 4.62878E-26
4.47736E-01 4.47767E-26
4.52077E-01 4.33183E-26
4.56422E-01 4.19106E-26
4.60770E-01 4.05517E-26
4.65122E-01 3.92397E-26
4.69476E-01 3.79730E-26
4.73832E-01 3.67498E-26
4.78190E-01 3.55685E-26
4.82550E-01 3.44275E-26
4.86912E-01 3.33254E-26
4.91274E-01 3.22607E-26
4.95637E-01 3.12321E-26
5.00000E-01 3.02382E-26
5.04363E-01 2.92778E-26
5.08726E-01 2.83497E-26
5.13088E-01 2.74527E-26
5.17450E-01 2.65856E-26
5.21810E-01 2.57474E-26
5.26168E-01 2.49371E-26
5.30524E-01 2.41537E-26
5.34878E-01 2.33961E-26
5.39230E-01 2.26636E-26
5.43578E-01 2.19551E-26
5.47923E-01 2.12700E-26
5.52264E-01 2.06072E-26
5.56602E-01 1.99661E-26
5.60935E-01 1.93459E-26
5.65263E-01 1.87459E-26
5.69587E-01 1.81653E-26
5.73905E-01 1.76035E-26
5.78217E-01 1.70599E-26
5.82524E-01 1.65337E-26
5.86824E-01 1.60245E-26
5.91118E-01 1.55316E-26
5.95404E-01 1.50545E-26
5.99684E-01 1.45925E-26
6.03956E-01 1.41454E-26
6.08220E-01 1.37124E-26
6.12476E-01 1.32931E-26
6.16723E-01 1.28871E-26
6.20961E-01 1.24940E-26
6.25190E-01 1.21132E-26
6.29410E-01 1.17444E-26
6.33619E-01 1.13872E-26
6.37819E-01 1.10411E-26
6.42008E-01 1.07059E-26
6.46186E-01 1.03811E-26
6.50353E-01 1.00664E-26
6.54508E-01 9.76153E-27
6.58652E-01 9.46608E-27
6.62784E-01 9.17976E-27
6.66903E-01 8.90228E-27
6.71010E-01 8.63335E-27
6.75104E-01 8.37268E-27
6.79184E-01 8.12002E-27
6.83251E-01 7.87509E-27
6.87303E-01 7.63764E-27
6.91342E-01 7.40744E-27
6.95366E-01 7.18425E-27
6.99375E-01 6.96783E-27
7.03368E-01 6.75798E-27
7.07347E-01 6.55449E-27
7.11309E-01 6.35714E-27
7.15256E-01 6.16574E-27
7.19186E-01 5.98010E-27
7.23099E-01 5.80004E-27
7.26995E-01 5.62537E-27
7.30874E-01 5.45594E-27
7.34736E-01 5.29157E-27
7.38579E-01 5.13209E-27
7.42405E-01 4.97737E-27
7.46212E-01 4.82724E-27
7.50000E-01 4.68157E-27
7.53769E-01 4.54020E-27
7.57519E-01 4.40302E-27
7.61249E-01 4.26988E-27
7.64960E-01 4.14066E-27
7.68650E-01 4.01524E-27
7.72320E-01 3.89350E-27
7.75968E-01 3.77533E-27
7.79596E-01 3.66061E-27
7.83203E-01 3.54924E-27
7.86788E-01 3.44112E-27
7.90351E-01 3.33615E-27
7.93893E-01 3.23422E-27
7.97411E-01 3.13525E-27
8.00908E-01 3.03915E-27
8.04381E-01 2.94582E-27
8.07831E-01 2.85519E-27
8.11257E-01 2.76717E-27
8.14660E-01 2.68169E-27
8.18039E-01 2.59866E-27
8.21394E-01 2.51801E-27
8.24724E-01 2.43967E-27
8.28030E-01 2.36358E-27
8.31310E-01 2.28966E-27
8.34565E-01 2.21785E-27
8.37795E-01 2.14808E-27
8.40999E-01 2.08031E-27
8.44177E-01 2.01445E-27
8.47329E-01 1.95047E-27
8.50455E-01 1.88831E-27
8.53553E-01 1.82790E-27
8.56625E-01 1.76921E-27
8.59670E-01 1.71217E-27
8.62687E-01 1.65675E-27
8.65677E-01 1.60289E-27
8.68639E-01 1.55055E-27
8.71572E-01 1.49968E-27
8.74478E-01 1.45025E-27
8.77355E-01 1.40221E-27
8.80203E-01 1.35552E-27
8.83022E-01 1.31014E-27
8.85812E-01 1.26604E-27
8.88573E-01 1.22318E-27
8.91304E-01 1.18153E-27
8.94005E-01 1.14104E-27
8.96677E-01 1.10170E-27
8.99318E-01 1.06346E-27
9.01928E-01 1.02629E-27
9.04508E-01 9.90176E-28
9.07058E-01 9.55075E-28
9.09576E-01 9.20964E-28
9.12063E-01 8.87814E-28
9.14519E-01 8.55601E-28
9.16943E-01 8.24298E-28
9.19335E-01 7.93881E-28
9.21696E-01 7.64327E-28
9.24024E-01 7.35613E-28
9.26320E-01 7.07716E-28
9.28584E-01 6.80616E-28
9.30815E-01 6.54290E-28
9.33013E-01 6.28719E-28
9.35178E-01 6.03884E-28
9.37310E-01 5.79765E-28
9.39409E-01 5.56345E-28
9.41474E-01 5.33606E-28
9.43505E-01 5.11531E-28
9.45503E-01 4.90102E-28
9.47467E-01 4.69306E-28
9.49397E-01 4.49124E-28
9.51293E-01 4.29544E-28
9.53154E-01 4.10550E-28
9.54981E-01 3.92129E-28
9.56773E-01 3.74267E-28
9.58530E-01 3.56951E-28
9.60252E-01 3.40169E-28
9.61940E-01 3.23907E-28
9.63592E-01 3.08156E-28
9.65209E-01 2.92902E-28
9.66790E-01 2.78136E-28
9.68336E-01 2.63847E-28
9.69846E-01 2.50024E-28
9.71321E-01 2.36658E-28
9.72759E-01 2.23739E-28
9.74162E-01 2.11258E-28
9.75528E-01 1.99207E-28
9.76858E-01 1.87577E-28
9.78152E-01 1.76360E-28
9.79410E-01 1.65548E-28
9.80631E-01 1.55133E-28
9.81815E-01 1.45108E-28
9.82963E-01 1.35467E-28
9.84074E-01 1.26203E-28
9.85148E-01 1.17309E-28
9.86185E-01 1.08779E-28
9.87185E-01 1.00607E-28
9.88148E-01 9.27886E-29
9.89074E-01 8.53174E-29
9.89962E-01 7.81886E-29
9.90814E-01 7.13974E-29
9.91627E-01 6.49392E-29
9.92404E-01 5.88096E-29
9.93143E-01 5.30044E-29
9.93844E-01 4.75199E-29
9.94508E-01 4.23522E-29
9.95134E-01 3.74980E-29
9.95722E-01 3.29540E-29
9.96273E-01 2.87171E-29
9.96786E-01 2.47845E-29
9.97261E-01 2.11536E-29
9.97698E-01 1.78219E-29
9.98097E-01 1.47873E-29
9.98459E-01 1.20478E-29
9.98782E-01 9.60148E-30
9.99067E-01 7.44676E-30
9.99315E-01 5.58221E-30
9.99524E-01 4.00660E-30
9.99695E-01 2.71888E-30
9.99829E-01 1.71821E-30
9.99924E-01 1.00391E-30
9.99981E-01 5.75520E-31
1.00000E+00 4.32754E-31
