 #
 # Subroutine ELSEPA. Elastic scattering of electrons and positrons
 #                    by neutral atoms and positive ions
 #
 # Projectile: electron
 # Kinetic energy = 1.25000E+07 eV = 4.59367E+05 a.u.
 #
 # WARNING: High-energy factorization with free-atom DF screening.
 #          Absorption, polarization and exchange corrections are
 #          switched off.
 #          Phase shifts are calculated for the bare nucleus.
 #          Scattering amplitudes are not evaluated.
 #
 # Element: Tb,  Z =  65,  atomic weight = 1.58925E+02 g/mol
 #
 # Nuclear model: Fermi distribution
 #                Average radius = 5.79582E-13 cm
 #                Skin thickness = 5.46000E-14 cm
 #
 # Number of electrons = 65
 #
 # Total elastic cross section = 7.16215E-18 cm**2 = 2.55765E-01 a0**2
 # 1st transport cross section = 4.53788E-23 cm**2 = 1.62050E-06 a0**2
 # 2nd transport cross section = 1.26935E-22 cm**2 = 4.53292E-06 a0**2
 #
 #
 # Differential cross section:                       MU=(1-COS(THETA))/2
 #
 #  THETA        MU          DCS          DCS        Sherman      error
 #  (deg)                 (cm**2/sr)   (a0**2/sr)    function
 #----------------------------------------------------------------------
0.00000E+00 1.38321E-11
7.61557E-13 1.38310E-11
1.18994E-12 1.38303E-11
1.71346E-12 1.38295E-11
2.33225E-12 1.38286E-11
3.04617E-12 1.38276E-11
3.85530E-12 1.38264E-11
4.75964E-12 1.38251E-11
5.75917E-12 1.38236E-11
6.85391E-12 1.38220E-11
8.04379E-12 1.38202E-11
9.32893E-12 1.38183E-11
1.07092E-11 1.38163E-11
1.21847E-11 1.38141E-11
1.37554E-11 1.38118E-11
1.54213E-11 1.38094E-11
1.71823E-11 1.38068E-11
1.90386E-11 1.38040E-11
2.09900E-11 1.38012E-11
2.30367E-11 1.37982E-11
2.51785E-11 1.37950E-11
2.74156E-11 1.37917E-11
2.97478E-11 1.37883E-11
3.21752E-11 1.37848E-11
3.46979E-11 1.37811E-11
3.73157E-11 1.37772E-11
4.00286E-11 1.37732E-11
4.28368E-11 1.37691E-11
4.57402E-11 1.37649E-11
4.87388E-11 1.37605E-11
5.18325E-11 1.37560E-11
5.50215E-11 1.37513E-11
5.83057E-11 1.37465E-11
6.16850E-11 1.37416E-11
6.51595E-11 1.37365E-11
6.87293E-11 1.37313E-11
7.23943E-11 1.37260E-11
7.61544E-11 1.37205E-11
1.18991E-10 1.36585E-11
1.71347E-10 1.35833E-11
2.33223E-10 1.34953E-11
3.04617E-10 1.33950E-11
3.85531E-10 1.32828E-11
4.75965E-10 1.31592E-11
5.75917E-10 1.30249E-11
6.85389E-10 1.28804E-11
8.04380E-10 1.27264E-11
9.32891E-10 1.25635E-11
1.07092E-09 1.23925E-11
1.21847E-09 1.22140E-11
1.37554E-09 1.20290E-11
1.54213E-09 1.18390E-11
1.71823E-09 1.16429E-11
1.90386E-09 1.14412E-11
2.09900E-09 1.12347E-11
2.30367E-09 1.10278E-11
2.51785E-09 1.08176E-11
2.74156E-09 1.06044E-11
2.97478E-09 1.03885E-11
3.21752E-09 1.01743E-11
3.46978E-09 9.96032E-12
3.73156E-09 9.74527E-12
4.00286E-09 9.52962E-12
4.28368E-09 9.31654E-12
4.57402E-09 9.10690E-12
4.87388E-09 8.89783E-12
5.18326E-09 8.68969E-12
5.50215E-09 8.48424E-12
5.83057E-09 8.28502E-12
6.16850E-09 8.08751E-12
6.51596E-09 7.89197E-12
6.87293E-09 7.69870E-12
7.23942E-09 7.51377E-12
7.61544E-09 7.33128E-12
1.18991E-08 5.72481E-12
1.71347E-08 4.51988E-12
2.33223E-08 3.63677E-12
3.04617E-08 2.98470E-12
3.85531E-08 2.49242E-12
4.75965E-08 2.10955E-12
5.75917E-08 1.80361E-12
6.85389E-08 1.55293E-12
8.04380E-08 1.34462E-12
9.32891E-08 1.16912E-12
1.07092E-07 1.02000E-12
1.21847E-07 8.92911E-13
1.37554E-07 7.82702E-13
1.54213E-07 6.82720E-13
1.71823E-07 6.01396E-13
1.90386E-07 5.34593E-13
2.09900E-07 4.79206E-13
2.30367E-07 4.24990E-13
2.51785E-07 3.78889E-13
2.74156E-07 3.40116E-13
2.97478E-07 3.07268E-13
3.21752E-07 2.76697E-13
3.46978E-07 2.49472E-13
3.73156E-07 2.26118E-13
4.00286E-07 2.05970E-13
4.28368E-07 1.87635E-13
4.57402E-07 1.70752E-13
4.87388E-07 1.56036E-13
5.18325E-07 1.43150E-13
5.50215E-07 1.31570E-13
5.83057E-07 1.20612E-13
6.16850E-07 1.10937E-13
6.51596E-07 1.02362E-13
6.87293E-07 9.47276E-14
7.23942E-07 8.73506E-14
7.61543E-07 8.07682E-14
1.18991E-06 3.96132E-14
1.71347E-06 2.13581E-14
2.33223E-06 1.25212E-14
3.04617E-06 7.87655E-15
3.85531E-06 5.23155E-15
4.75964E-06 3.62386E-15
5.75916E-06 2.59477E-15
6.85388E-06 1.90469E-15
8.04378E-06 1.42786E-15
9.32888E-06 1.09031E-15
1.07092E-05 8.46283E-16
1.21846E-05 6.66461E-16
1.37553E-05 5.31567E-16
1.54212E-05 4.28970E-16
1.71822E-05 3.50220E-16
1.90385E-05 2.88607E-16
2.09899E-05 2.40145E-16
2.30365E-05 2.01543E-16
2.51783E-05 1.70275E-16
2.74153E-05 1.44884E-16
2.97475E-05 1.24036E-16
3.21749E-05 1.06807E-16
3.46974E-05 9.25111E-17
3.73152E-05 8.05092E-17
4.00281E-05 7.04232E-17
4.28362E-05 6.18669E-17
4.57395E-05 5.45731E-17
4.87380E-05 4.83289E-17
5.18317E-05 4.29400E-17
5.50205E-05 3.82870E-17
5.83045E-05 3.42429E-17
6.16838E-05 3.07201E-17
6.51582E-05 2.76413E-17
6.87277E-05 2.49361E-17
7.23925E-05 2.25574E-17
7.61524E-05 2.04536E-17
9.21439E-05 1.41363E-17
1.09658E-04 1.00765E-17
1.28695E-04 7.37466E-18
1.49255E-04 5.51948E-18
1.71338E-04 4.21261E-18
1.94942E-04 3.27059E-18
2.20070E-04 2.57781E-18
2.46720E-04 2.05928E-18
2.74892E-04 1.66492E-18
3.04586E-04 1.36072E-18
3.35803E-04 1.12303E-18
3.68542E-04 9.35129E-19
4.02802E-04 7.85000E-19
4.38585E-04 6.63883E-19
4.75889E-04 5.65294E-19
5.14715E-04 4.84382E-19
5.55063E-04 4.17474E-19
5.96931E-04 3.61752E-19
6.40321E-04 3.15046E-19
6.85233E-04 2.75657E-19
7.31665E-04 2.42249E-19
7.79618E-04 2.13765E-19
8.29092E-04 1.89357E-19
8.80086E-04 1.68343E-19
9.32601E-04 1.50173E-19
9.86636E-04 1.34395E-19
1.04219E-03 1.20642E-19
1.09927E-03 1.08609E-19
1.15786E-03 9.80428E-20
1.21797E-03 8.87351E-20
1.27961E-03 8.05093E-20
1.34276E-03 7.32179E-20
1.40743E-03 6.67360E-20
1.47362E-03 6.09582E-20
1.54133E-03 5.57946E-20
1.61056E-03 5.11681E-20
1.68131E-03 4.70132E-20
1.75357E-03 4.32731E-20
1.82735E-03 3.98991E-20
1.90265E-03 3.68489E-20
1.97947E-03 3.40859E-20
2.05780E-03 3.15781E-20
2.13765E-03 2.92978E-20
2.21902E-03 2.72206E-20
2.30190E-03 2.53251E-20
2.38630E-03 2.35925E-20
2.47222E-03 2.20064E-20
2.55965E-03 2.05519E-20
2.64859E-03 1.92163E-20
2.73905E-03 1.79881E-20
2.83103E-03 1.68569E-20
2.92452E-03 1.58137E-20
3.01952E-03 1.48505E-20
3.11604E-03 1.39600E-20
3.21407E-03 1.31356E-20
3.31362E-03 1.23715E-20
3.41468E-03 1.16626E-20
3.51725E-03 1.10040E-20
3.62133E-03 1.03916E-20
3.72692E-03 9.82150E-21
3.83403E-03 9.29023E-21
3.94265E-03 8.79465E-21
4.05278E-03 8.33192E-21
4.16442E-03 7.89945E-21
4.27757E-03 7.49489E-21
4.39223E-03 7.11609E-21
4.50840E-03 6.76112E-21
4.62608E-03 6.42818E-21
4.74527E-03 6.11565E-21
4.86597E-03 5.82204E-21
4.98817E-03 5.54599E-21
5.11188E-03 5.28624E-21
5.23711E-03 5.04166E-21
5.36383E-03 4.81119E-21
5.49207E-03 4.59386E-21
5.62181E-03 4.38877E-21
5.75306E-03 4.19511E-21
5.88581E-03 4.01212E-21
6.02007E-03 3.83909E-21
6.15583E-03 3.67538E-21
6.29310E-03 3.52039E-21
6.43187E-03 3.37356E-21
6.57214E-03 3.23439E-21
6.71392E-03 3.10240E-21
6.85720E-03 2.97714E-21
7.00198E-03 2.85821E-21
7.14827E-03 2.74522E-21
7.29605E-03 2.63782E-21
7.44534E-03 2.53569E-21
7.59612E-03 2.43850E-21
7.97965E-03 2.21536E-21
8.37255E-03 2.01745E-21
8.77480E-03 1.84140E-21
9.18641E-03 1.68436E-21
9.60736E-03 1.54391E-21
1.00376E-02 1.41798E-21
1.04773E-02 1.30479E-21
1.09262E-02 1.20282E-21
1.13844E-02 1.11075E-21
1.18520E-02 1.02744E-21
1.23288E-02 9.51909E-22
1.28150E-02 8.83291E-22
1.33104E-02 8.20837E-22
1.38150E-02 7.63888E-22
1.43290E-02 7.11869E-22
1.48521E-02 6.64271E-22
1.53845E-02 6.20650E-22
1.59262E-02 5.80610E-22
1.64770E-02 5.43800E-22
1.70371E-02 5.09910E-22
1.76063E-02 4.78664E-22
1.81848E-02 4.49817E-22
1.87724E-02 4.23150E-22
1.93692E-02 3.98465E-22
1.99751E-02 3.75587E-22
2.05901E-02 3.54357E-22
2.12143E-02 3.34634E-22
2.18476E-02 3.16291E-22
2.24900E-02 2.99212E-22
2.31415E-02 2.83293E-22
2.38021E-02 2.68439E-22
2.44717E-02 2.54565E-22
2.51504E-02 2.41594E-22
2.58382E-02 2.29456E-22
2.65349E-02 2.18087E-22
2.72407E-02 2.07427E-22
2.79555E-02 1.97425E-22
2.86793E-02 1.88030E-22
2.94120E-02 1.79200E-22
3.01537E-02 1.70894E-22
3.09043E-02 1.63074E-22
3.16639E-02 1.55705E-22
3.24324E-02 1.48758E-22
3.32098E-02 1.42202E-22
3.39961E-02 1.36011E-22
3.47912E-02 1.30161E-22
3.55952E-02 1.24630E-22
3.64081E-02 1.19396E-22
3.72297E-02 1.14440E-22
3.80602E-02 1.09744E-22
3.88995E-02 1.05293E-22
3.97476E-02 1.01070E-22
4.06044E-02 9.70611E-23
4.14700E-02 9.32540E-23
4.23443E-02 8.96361E-23
4.32273E-02 8.61961E-23
4.41190E-02 8.29235E-23
4.50194E-02 7.98084E-23
4.59284E-02 7.68416E-23
4.68461E-02 7.40146E-23
4.87074E-02 6.87491E-23
5.06030E-02 6.39541E-23
5.25328E-02 5.95793E-23
5.44967E-02 5.55808E-23
5.64946E-02 5.19196E-23
5.85262E-02 4.85618E-23
6.05914E-02 4.54773E-23
6.26901E-02 4.26392E-23
6.48222E-02 4.00242E-23
6.69873E-02 3.76109E-23
6.91854E-02 3.53809E-23
7.14163E-02 3.33173E-23
7.36799E-02 3.14053E-23
7.59760E-02 2.96314E-23
7.83043E-02 2.79837E-23
8.06647E-02 2.64513E-23
8.30571E-02 2.50246E-23
8.54812E-02 2.36947E-23
8.79369E-02 2.24538E-23
9.04240E-02 2.12946E-23
9.29422E-02 2.02107E-23
9.54915E-02 1.91962E-23
9.80716E-02 1.82458E-23
1.00682E-01 1.73545E-23
1.03323E-01 1.65180E-23
1.05995E-01 1.57320E-23
1.08696E-01 1.49931E-23
1.11427E-01 1.42977E-23
1.14188E-01 1.36429E-23
1.16978E-01 1.30256E-23
1.19797E-01 1.24433E-23
1.22645E-01 1.18937E-23
1.25522E-01 1.13745E-23
1.28428E-01 1.08837E-23
1.31361E-01 1.04194E-23
1.34323E-01 9.97982E-24
1.37313E-01 9.56346E-24
1.40330E-01 9.16881E-24
1.43375E-01 8.79449E-24
1.46447E-01 8.43919E-24
1.49545E-01 8.10176E-24
1.52671E-01 7.78113E-24
1.55823E-01 7.47631E-24
1.59001E-01 7.18634E-24
1.62205E-01 6.91035E-24
1.65435E-01 6.64753E-24
1.68690E-01 6.39711E-24
1.71970E-01 6.15840E-24
1.75276E-01 5.93072E-24
1.78606E-01 5.71347E-24
1.81961E-01 5.50606E-24
1.85340E-01 5.30796E-24
1.88743E-01 5.11866E-24
1.92169E-01 4.93769E-24
1.95619E-01 4.76461E-24
1.99092E-01 4.59900E-24
2.02589E-01 4.44048E-24
2.06107E-01 4.28867E-24
2.09649E-01 4.14323E-24
2.13212E-01 4.00385E-24
2.16797E-01 3.87021E-24
2.20404E-01 3.74203E-24
2.24032E-01 3.61905E-24
2.27680E-01 3.50100E-24
2.31350E-01 3.38766E-24
2.35040E-01 3.27878E-24
2.38751E-01 3.17417E-24
2.42481E-01 3.07361E-24
2.46231E-01 2.97693E-24
2.50000E-01 2.88394E-24
2.53788E-01 2.79447E-24
2.57595E-01 2.70836E-24
2.61421E-01 2.62545E-24
2.65264E-01 2.54561E-24
2.69126E-01 2.46870E-24
2.73005E-01 2.39459E-24
2.76901E-01 2.32316E-24
2.80814E-01 2.25429E-24
2.84744E-01 2.18786E-24
2.88691E-01 2.12379E-24
2.92653E-01 2.06196E-24
2.96632E-01 2.00228E-24
3.00625E-01 1.94466E-24
3.04634E-01 1.88902E-24
3.08658E-01 1.83527E-24
3.12697E-01 1.78334E-24
3.16749E-01 1.73315E-24
3.20816E-01 1.68464E-24
3.24896E-01 1.63774E-24
3.28990E-01 1.59238E-24
3.33097E-01 1.54850E-24
3.37216E-01 1.50604E-24
3.41348E-01 1.46496E-24
3.45492E-01 1.42519E-24
3.49647E-01 1.38668E-24
3.53814E-01 1.34940E-24
3.57992E-01 1.31328E-24
3.62181E-01 1.27830E-24
3.66381E-01 1.24440E-24
3.70590E-01 1.21154E-24
3.74810E-01 1.17969E-24
3.79039E-01 1.14882E-24
3.83277E-01 1.11887E-24
3.87524E-01 1.08983E-24
3.91780E-01 1.06166E-24
3.96044E-01 1.03433E-24
4.00316E-01 1.00780E-24
4.04596E-01 9.82057E-25
4.08882E-01 9.57065E-25
4.13176E-01 9.32800E-25
4.17476E-01 9.09236E-25
4.21783E-01 8.86350E-25
4.26095E-01 8.64118E-25
4.30413E-01 8.42519E-25
4.34737E-01 8.21530E-25
4.39065E-01 8.01132E-25
4.43398E-01 7.81305E-25
4.47736E-01 7.62030E-25
4.52077E-01 7.43289E-25
4.56422E-01 7.25064E-25
4.60770E-01 7.07338E-25
4.65122E-01 6.90096E-25
4.69476E-01 6.73322E-25
4.73832E-01 6.57000E-25
4.78190E-01 6.41117E-25
4.82550E-01 6.25659E-25
4.86912E-01 6.10611E-25
4.91274E-01 5.95962E-25
4.95637E-01 5.81700E-25
5.00000E-01 5.67811E-25
5.04363E-01 5.54284E-25
5.08726E-01 5.41109E-25
5.13088E-01 5.28275E-25
5.17450E-01 5.15771E-25
5.21810E-01 5.03587E-25
5.26168E-01 4.91715E-25
5.30524E-01 4.80143E-25
5.34878E-01 4.68865E-25
5.39230E-01 4.57870E-25
5.43578E-01 4.47151E-25
5.47923E-01 4.36699E-25
5.52264E-01 4.26508E-25
5.56602E-01 4.16568E-25
5.60935E-01 4.06873E-25
5.65263E-01 3.97417E-25
5.69587E-01 3.88191E-25
5.73905E-01 3.79190E-25
5.78217E-01 3.70408E-25
5.82524E-01 3.61837E-25
5.86824E-01 3.53473E-25
5.91118E-01 3.45310E-25
5.95404E-01 3.37341E-25
5.99684E-01 3.29561E-25
6.03956E-01 3.21966E-25
6.08220E-01 3.14551E-25
6.12476E-01 3.07309E-25
6.16723E-01 3.00238E-25
6.20961E-01 2.93331E-25
6.25190E-01 2.86586E-25
6.29410E-01 2.79996E-25
6.33619E-01 2.73559E-25
6.37819E-01 2.67271E-25
6.42008E-01 2.61126E-25
6.46186E-01 2.55122E-25
6.50353E-01 2.49255E-25
6.54508E-01 2.43521E-25
6.58652E-01 2.37918E-25
6.62784E-01 2.32440E-25
6.66903E-01 2.27086E-25
6.71010E-01 2.21852E-25
6.75104E-01 2.16736E-25
6.79184E-01 2.11733E-25
6.83251E-01 2.06842E-25
6.87303E-01 2.02059E-25
6.91342E-01 1.97382E-25
6.95366E-01 1.92808E-25
6.99375E-01 1.88334E-25
7.03368E-01 1.83959E-25
7.07347E-01 1.79679E-25
7.11309E-01 1.75493E-25
7.15256E-01 1.71398E-25
7.19186E-01 1.67392E-25
7.23099E-01 1.63472E-25
7.26995E-01 1.59638E-25
7.30874E-01 1.55886E-25
7.34736E-01 1.52214E-25
7.38579E-01 1.48621E-25
7.42405E-01 1.45106E-25
7.46212E-01 1.41665E-25
7.50000E-01 1.38298E-25
7.53769E-01 1.35002E-25
7.57519E-01 1.31776E-25
7.61249E-01 1.28619E-25
7.64960E-01 1.25529E-25
7.68650E-01 1.22503E-25
7.72320E-01 1.19542E-25
7.75968E-01 1.16643E-25
7.79596E-01 1.13805E-25
7.83203E-01 1.11026E-25
7.86788E-01 1.08306E-25
7.90351E-01 1.05643E-25
7.93893E-01 1.03035E-25
7.97411E-01 1.00482E-25
8.00908E-01 9.79818E-26
8.04381E-01 9.55339E-26
8.07831E-01 9.31371E-26
8.11257E-01 9.07901E-26
8.14660E-01 8.84919E-26
8.18039E-01 8.62415E-26
8.21394E-01 8.40378E-26
8.24724E-01 8.18798E-26
8.28030E-01 7.97666E-26
8.31310E-01 7.76973E-26
8.34565E-01 7.56708E-26
8.37795E-01 7.36865E-26
8.40999E-01 7.17432E-26
8.44177E-01 6.98403E-26
8.47329E-01 6.79769E-26
8.50455E-01 6.61522E-26
8.53553E-01 6.43654E-26
8.56625E-01 6.26157E-26
8.59670E-01 6.09024E-26
8.62687E-01 5.92248E-26
8.65677E-01 5.75822E-26
8.68639E-01 5.59739E-26
8.71572E-01 5.43991E-26
8.74478E-01 5.28574E-26
8.77355E-01 5.13480E-26
8.80203E-01 4.98702E-26
8.83022E-01 4.84236E-26
8.85812E-01 4.70075E-26
8.88573E-01 4.56213E-26
8.91304E-01 4.42645E-26
8.94005E-01 4.29366E-26
8.96677E-01 4.16370E-26
8.99318E-01 4.03651E-26
9.01928E-01 3.91205E-26
9.04508E-01 3.79028E-26
9.07058E-01 3.67113E-26
9.09576E-01 3.55457E-26
9.12063E-01 3.44055E-26
9.14519E-01 3.32902E-26
9.16943E-01 3.21995E-26
9.19335E-01 3.11328E-26
9.21696E-01 3.00899E-26
9.24024E-01 2.90702E-26
9.26320E-01 2.80735E-26
9.28584E-01 2.70992E-26
9.30815E-01 2.61471E-26
9.33013E-01 2.52168E-26
9.35178E-01 2.43080E-26
9.37310E-01 2.34203E-26
9.39409E-01 2.25533E-26
9.41474E-01 2.17068E-26
9.43505E-01 2.08805E-26
9.45503E-01 2.00739E-26
9.47467E-01 1.92869E-26
9.49397E-01 1.85192E-26
9.51293E-01 1.77704E-26
9.53154E-01 1.70404E-26
9.54981E-01 1.63287E-26
9.56773E-01 1.56352E-26
9.58530E-01 1.49597E-26
9.60252E-01 1.43018E-26
9.61940E-01 1.36613E-26
9.63592E-01 1.30381E-26
9.65209E-01 1.24319E-26
9.66790E-01 1.18424E-26
9.68336E-01 1.12695E-26
9.69846E-01 1.07129E-26
9.71321E-01 1.01726E-26
9.72759E-01 9.64813E-27
9.74162E-01 9.13950E-27
9.75528E-01 8.64647E-27
9.76858E-01 8.16888E-27
9.78152E-01 7.70655E-27
9.79410E-01 7.25933E-27
9.80631E-01 6.82705E-27
9.81815E-01 6.40958E-27
9.82963E-01 6.00676E-27
9.84074E-01 5.61845E-27
9.85148E-01 5.24452E-27
9.86185E-01 4.88484E-27
9.87185E-01 4.53929E-27
9.88148E-01 4.20774E-27
9.89074E-01 3.89009E-27
9.89962E-01 3.58622E-27
9.90814E-01 3.29603E-27
9.91627E-01 3.01942E-27
9.92404E-01 2.75630E-27
9.93143E-01 2.50657E-27
9.93844E-01 2.27016E-27
9.94508E-01 2.04697E-27
9.95134E-01 1.83694E-27
9.95722E-01 1.64000E-27
9.96273E-01 1.45606E-27
9.96786E-01 1.28509E-27
9.97261E-01 1.12701E-27
9.97698E-01 9.81768E-28
9.98097E-01 8.49323E-28
9.98459E-01 7.29626E-28
9.98782E-01 6.22636E-28
9.99067E-01 5.28319E-28
9.99315E-01 4.46641E-28
9.99524E-01 3.77576E-28
9.99695E-01 3.21100E-28
9.99829E-01 2.77194E-28
9.99924E-01 2.45843E-28
9.99981E-01 2.27037E-28
1.00000E+00 2.20769E-28
