 #  Total cross section table (last run of 'elscata').
 #
 #  Z =  65,   projectile: electron
 #
 #   Energy         ECS         TCS1         TCS2         ABSCS      error
 #    (eV)        (cm**2)      (cm**2)      (cm**2)      (cm**2)
 #--------------------------------------------------------------------------
   1.00000E+02  1.32808E-15  7.45337E-17  1.10456E-16  1.20209E-15  1.7E-05
   1.25000E+02  1.14835E-15  7.13289E-17  1.01700E-16  1.01893E-15  8.3E-06
   1.50000E+02  1.01611E-15  7.43257E-17  1.05679E-16  8.87798E-16  1.2E-06
   1.75000E+02  9.15842E-16  7.89789E-17  1.12511E-16  7.88748E-16  1.2E-06
   2.00000E+02  8.37710E-16  8.33897E-17  1.18132E-16  7.10965E-16  2.4E-06
   2.50000E+02  7.25164E-16  8.95494E-17  1.22107E-16  5.95896E-16  1.2E-05
   3.00000E+02  6.48304E-16  9.20832E-17  1.18268E-16  5.14282E-16  1.1E-05
   3.50000E+02  5.92345E-16  9.20125E-17  1.10470E-16  4.53036E-16  6.3E-06
   4.00000E+02  5.49425E-16  9.02791E-17  1.01413E-16  4.05234E-16  5.7E-06
   4.50000E+02  5.15058E-16  8.75460E-17  9.25223E-17  3.66844E-16  4.9E-06
   5.00000E+02  4.86624E-16  8.42693E-17  8.44353E-17  3.35306E-16  2.3E-06
   6.00000E+02  4.41541E-16  7.71496E-17  7.12659E-17  2.86513E-16  2.2E-06
   7.00000E+02  4.06710E-16  7.01744E-17  6.16641E-17  2.50461E-16  4.5E-07
   8.00000E+02  3.78457E-16  6.37875E-17  5.46012E-17  2.22708E-16  4.6E-07
   9.00000E+02  3.54536E-16  5.81168E-17  4.93001E-17  2.00657E-16  2.5E-06
   1.00000E+03  3.33520E-16  5.31240E-17  4.52022E-17  1.82707E-16  9.0E-04
   1.25000E+03  2.91564E-16  4.31168E-17  3.80300E-17  1.49647E-16  1.1E-03
   1.50000E+03  2.61615E-16  3.57192E-17  3.31544E-17  1.27050E-16  1.1E-03
   1.75000E+03  2.39140E-16  3.02643E-17  2.95791E-17  1.10454E-16  1.3E-03
   2.00000E+03  2.21547E-16  2.61275E-17  2.67990E-17  9.76982E-17  8.5E-04
   2.50000E+03  1.95356E-16  2.02582E-17  2.25937E-17  7.94079E-17  1.2E-03
   3.00000E+03  1.76429E-16  1.63120E-17  1.94744E-17  6.69352E-17  2.1E-03
   3.50000E+03  1.61876E-16  1.34989E-17  1.70402E-17  5.78872E-17  1.4E-03
   4.00000E+03  1.50208E-16  1.14076E-17  1.50840E-17  5.10231E-17  4.4E-03
   4.50000E+03  1.40569E-16  9.80217E-18  1.34796E-17  4.56365E-17  6.2E-03
   5.00000E+03  1.32428E-16  8.53776E-18  1.21424E-17  4.12963E-17  4.5E-03
   6.00000E+03  1.19329E-16  6.68817E-18  1.00484E-17  3.47328E-17  7.0E-03
   7.00000E+03  1.09160E-16  5.41553E-18  8.49488E-18  3.00018E-17  7.7E-03
   8.00000E+03  1.00976E-16  4.49932E-18  7.30778E-18  2.64248E-17  7.5E-03
   9.00000E+03  9.42063E-17  3.81359E-18  6.37534E-18  2.36252E-17  5.3E-03
   1.00000E+04  8.84897E-17  3.28446E-18  5.62649E-18  2.13745E-17  8.2E-03
   1.25000E+04  7.65391E-17  2.38325E-18  4.28196E-18  1.72979E-17  3.5E-07
   1.50000E+04  6.85782E-17  1.82620E-18  3.39868E-18  1.45618E-17  1.0E-07
   1.75000E+04  6.23994E-17  1.45416E-18  2.78143E-18  1.25983E-17  1.0E-07
   2.00000E+04  5.74349E-17  1.19151E-18  2.33000E-18  1.11202E-17  1.2E-07
   2.50000E+04  4.98983E-17  8.51099E-19  1.72179E-18  9.04269E-18  6.8E-07
   3.00000E+04  4.44045E-17  6.44791E-19  1.33762E-18  7.65469E-18  1.0E-07
   3.50000E+04  4.01963E-17  5.09052E-19  1.07695E-18  6.65973E-18  1.0E-07
   4.00000E+04  3.68565E-17  4.14335E-19  8.90631E-19  5.91220E-18  2.3E-06
   4.50000E+04  3.41340E-17  3.45263E-19  7.52079E-19  5.33006E-18  1.0E-07
   5.00000E+04  3.18680E-17  2.93133E-19  6.45794E-19  4.86390E-18  2.6E-06
   6.00000E+04  2.83032E-17  2.20600E-19  4.95048E-19  4.16418E-18  1.5E-06
   7.00000E+04  2.56193E-17  1.73334E-19  3.94684E-19  3.66409E-18  7.1E-06
   8.00000E+04  2.35213E-17  1.40606E-19  3.24001E-19  3.28897E-18  2.5E-05
   9.00000E+04  2.18342E-17  1.16891E-19  2.72064E-19  2.99717E-18  7.0E-05
   1.00000E+05  2.04469E-17  9.90871E-20  2.32614E-19  2.76370E-18  1.7E-04
   1.25000E+05  1.78590E-17  6.98575E-20  1.66825E-19  2.34255E-18  9.1E-04
   1.50000E+05  1.60646E-17  5.25518E-20  1.27136E-19  2.05880E-18  3.2E-03
   1.75000E+05  1.47477E-17  4.13533E-20  1.01081E-19  1.85059E-18  8.3E-03
   2.00000E+05  1.37409E-17  3.36343E-20  8.29119E-20  1.68682E-18  1.6E-02
   2.50000E+05  1.23059E-17  2.38704E-20  5.96252E-20  1.51604E-18  6.3E-06
   3.00000E+05  1.13361E-17  1.80802E-20  4.56138E-20  1.38090E-18  7.7E-06
   3.50000E+05  1.06399E-17  1.43187E-20  3.64084E-20  1.28567E-18  1.0E-07
   4.00000E+05  1.01181E-17  1.17122E-20  2.99713E-20  1.21525E-18  2.2E-07
   4.50000E+05  9.71407E-18  9.81716E-21  2.52557E-20  1.16120E-18  6.9E-07
   5.00000E+05  9.39313E-18  8.38737E-21  2.16748E-20  1.11896E-18  1.0E-07
   6.00000E+05  8.91839E-18  6.39195E-21  1.66387E-20  1.05677E-18  1.0E-07
   7.00000E+05  8.58708E-18  5.08122E-21  1.33016E-20  1.01381E-18  1.0E-07
   8.00000E+05  8.34504E-18  4.16414E-21  1.09504E-20  9.82663E-19  1.0E-07
   9.00000E+05  8.16196E-18  3.49197E-21  9.21734E-21  9.59229E-19  1.0E-07
   1.00000E+06  8.01964E-18  2.98142E-21  7.89471E-21  9.41100E-19  1.0E-07
   1.25000E+06  7.79138E-18  2.14694E-21  5.71862E-21  0.00000E+00  1.0E-07
   1.50000E+06  7.66570E-18  1.62529E-21  4.35048E-21  0.00000E+00  1.0E-05
   1.75000E+06  7.55407E-18  1.27945E-21  3.43692E-21  0.00000E+00  1.0E-05
   2.00000E+06  7.47533E-18  1.03749E-21  2.79508E-21  0.00000E+00  1.0E-05
   2.50000E+06  7.37363E-18  7.26956E-22  1.96757E-21  0.00000E+00  1.0E-05
   3.00000E+06  7.31336E-18  5.40758E-22  1.46889E-21  0.00000E+00  1.0E-05
   3.50000E+06  7.27401E-18  4.19475E-22  1.14283E-21  0.00000E+00  1.0E-05
   4.00000E+06  7.24893E-18  3.35694E-22  9.16896E-22  0.00000E+00  1.0E-05
   4.50000E+06  7.22649E-18  2.75201E-22  7.53341E-22  0.00000E+00  1.0E-05
   5.00000E+06  7.22722E-18  2.30059E-22  6.31040E-22  0.00000E+00  1.0E-05
   6.00000E+06  7.19796E-18  1.68008E-22  4.62444E-22  0.00000E+00  1.0E-05
   7.00000E+06  7.18534E-18  1.28365E-22  3.54405E-22  0.00000E+00  1.0E-05
   8.00000E+06  7.17784E-18  1.01414E-22  2.80767E-22  0.00000E+00  1.0E-05
   9.00000E+06  7.17224E-18  8.22216E-23  2.28209E-22  0.00000E+00  1.0E-05
   1.00000E+07  7.16753E-18  6.80495E-23  1.89321E-22  0.00000E+00  1.0E-05
   1.25000E+07  7.16215E-18  4.53788E-23  1.26935E-22  0.00000E+00  1.0E-05
   1.50000E+07  7.15917E-18  3.24406E-23  9.11913E-23  0.00000E+00  1.0E-05
   1.75000E+07  7.15721E-18  2.43477E-23  6.87546E-23  0.00000E+00  1.0E-05
   2.00000E+07  7.15532E-18  1.89444E-23  5.37246E-23  0.00000E+00  1.0E-05
   2.50000E+07  7.15223E-18  1.23963E-23  3.54274E-23  0.00000E+00  1.0E-05
   3.00000E+07  7.15104E-18  8.72932E-24  2.51165E-23  0.00000E+00  1.0E-05
   3.50000E+07  7.14817E-18  6.47187E-24  1.87301E-23  0.00000E+00  1.0E-05
   4.00000E+07  7.14670E-18  4.98564E-24  1.45008E-23  0.00000E+00  1.0E-05
   4.50000E+07  7.14853E-18  3.95618E-24  1.15549E-23  0.00000E+00  1.0E-05
   5.00000E+07  7.14414E-18  3.21435E-24  9.42124E-24  0.00000E+00  1.0E-05
   6.00000E+07  7.14487E-18  2.24119E-24  6.60426E-24  0.00000E+00  1.0E-05
   7.00000E+07  7.14793E-18  1.65057E-24  4.88221E-24  0.00000E+00  1.0E-05
   8.00000E+07  7.14741E-18  1.26561E-24  3.75369E-24  0.00000E+00  1.0E-05
   9.00000E+07  7.14714E-18  1.00096E-24  2.97475E-24  0.00000E+00  1.0E-05
   1.00000E+08  7.14781E-18  8.11316E-25  2.41486E-24  0.00000E+00  1.0E-05
   1.25000E+08  7.14794E-18  5.19660E-25  1.55070E-24  0.00000E+00  1.0E-05
   1.50000E+08  7.14873E-18  3.60984E-25  1.07881E-24  0.00000E+00  1.0E-05
   1.75000E+08  7.14891E-18  2.65231E-25  7.93405E-25  0.00000E+00  1.0E-05
   2.00000E+08  7.14911E-18  2.03056E-25  6.07806E-25  0.00000E+00  1.0E-05
   2.50000E+08  7.14786E-18  1.29921E-25  3.89193E-25  0.00000E+00  2.8E-05
   3.00000E+08  7.14585E-18  9.01955E-26  2.70308E-25  0.00000E+00  7.9E-05
   3.50000E+08  7.14329E-18  6.62453E-26  1.98584E-25  0.00000E+00  7.4E-05
   4.00000E+08  7.14052E-18  5.07054E-26  1.52027E-25  0.00000E+00  1.0E+00
   4.50000E+08  7.13968E-18  4.00530E-26  1.20103E-25  0.00000E+00  1.0E+00
   5.00000E+08  7.13266E-18  3.24348E-26  9.72674E-26  0.00000E+00  1.0E+00
   6.00000E+08  7.12404E-18  2.25144E-26  6.75253E-26  0.00000E+00  1.0E+00
   7.00000E+08  7.11303E-18  1.65355E-26  4.95969E-26  0.00000E+00  1.0E+00
   8.00000E+08  7.09238E-18  1.26560E-26  3.79622E-26  0.00000E+00  1.0E+00
   9.00000E+08  7.06632E-18  9.99742E-27  2.99887E-26  0.00000E+00  1.0E+00
   1.00000E+09  7.03489E-18  8.09679E-27  2.42880E-26  0.00000E+00  1.0E+00
