 #
 # Subroutine ELSEPA. Elastic scattering of electrons and positrons
 #                    by neutral atoms and positive ions
 #
 # Projectile: electron
 # Kinetic energy = 4.00000E+07 eV = 1.46997E+06 a.u.
 #
 # WARNING: High-energy factorization with free-atom DF screening.
 #          Absorption, polarization and exchange corrections are
 #          switched off.
 #          Phase shifts are calculated for the bare nucleus.
 #          Scattering amplitudes are not evaluated.
 #
 # Element:  W,  Z =  74,  atomic weight = 1.83840E+02 g/mol
 #
 # Nuclear model: Fermi distribution
 #                Average radius = 6.08411E-13 cm
 #                Skin thickness = 5.46000E-14 cm
 #
 # Number of electrons = 74
 #
 # Total elastic cross section = 7.52313E-18 cm**2 = 2.68656E-01 a0**2
 # 1st transport cross section = 6.41166E-24 cm**2 = 2.28965E-07 a0**2
 # 2nd transport cross section = 1.86328E-23 cm**2 = 6.65388E-07 a0**2
 #
 #
 # Differential cross section:                       MU=(1-COS(THETA))/2
 #
 #  THETA        MU          DCS          DCS        Sherman      error
 #  (deg)                 (cm**2/sr)   (a0**2/sr)    function
 #----------------------------------------------------------------------
0.00000E+00 9.35464E-11
7.61557E-13 9.35067E-11
1.18994E-12 9.34845E-11
1.71346E-12 9.34574E-11
2.33225E-12 9.34254E-11
3.04617E-12 9.33886E-11
3.85530E-12 9.33468E-11
4.75964E-12 9.33002E-11
5.75917E-12 9.32487E-11
6.85391E-12 9.31925E-11
8.04379E-12 9.31314E-11
9.32893E-12 9.30654E-11
1.07092E-11 9.29947E-11
1.21847E-11 9.29193E-11
1.37554E-11 9.28390E-11
1.54213E-11 9.27541E-11
1.71823E-11 9.26644E-11
1.90386E-11 9.25701E-11
2.09900E-11 9.24711E-11
2.30367E-11 9.23675E-11
2.51785E-11 9.22593E-11
2.74156E-11 9.21464E-11
2.97478E-11 9.20291E-11
3.21752E-11 9.19072E-11
3.46979E-11 9.17809E-11
3.73157E-11 9.16500E-11
4.00286E-11 9.15148E-11
4.28368E-11 9.13752E-11
4.57402E-11 9.12312E-11
4.87388E-11 9.10829E-11
5.18325E-11 9.09303E-11
5.50215E-11 9.07735E-11
5.83057E-11 9.06125E-11
6.16850E-11 9.04473E-11
6.51595E-11 9.02780E-11
6.87293E-11 9.01047E-11
7.23943E-11 8.99272E-11
7.61544E-11 8.97458E-11
1.18991E-10 8.77224E-11
1.71347E-10 8.53444E-11
2.33223E-10 8.26836E-11
3.04617E-10 7.97849E-11
3.85531E-10 7.66948E-11
4.75965E-10 7.34842E-11
5.75917E-10 7.02062E-11
6.85389E-10 6.68906E-11
8.04380E-10 6.35802E-11
9.32891E-10 6.03240E-11
1.07092E-09 5.71503E-11
1.21847E-09 5.40609E-11
1.37554E-09 5.10866E-11
1.54213E-09 4.82466E-11
1.71823E-09 4.55474E-11
1.90386E-09 4.29739E-11
2.09900E-09 4.05456E-11
2.30367E-09 3.82624E-11
2.51785E-09 3.61186E-11
2.74156E-09 3.40971E-11
2.97478E-09 3.22072E-11
3.21752E-09 3.04417E-11
3.46978E-09 2.87904E-11
3.73156E-09 2.72414E-11
4.00286E-09 2.57965E-11
4.28368E-09 2.44486E-11
4.57402E-09 2.31867E-11
4.87388E-09 2.20040E-11
5.18326E-09 2.08995E-11
5.50215E-09 1.98674E-11
5.83057E-09 1.88978E-11
6.16850E-09 1.79879E-11
6.51596E-09 1.71357E-11
6.87293E-09 1.63369E-11
7.23942E-09 1.55829E-11
7.61544E-09 1.48738E-11
1.18991E-08 9.64384E-12
1.71347E-08 6.46259E-12
2.33223E-08 4.56840E-12
3.04617E-08 3.30478E-12
3.85531E-08 2.43670E-12
4.75965E-08 1.84290E-12
5.75917E-08 1.42234E-12
6.85389E-08 1.11199E-12
8.04380E-08 8.80334E-13
9.32891E-08 7.06367E-13
1.07092E-07 5.73118E-13
1.21847E-07 4.68016E-13
1.37554E-07 3.85364E-13
1.54213E-07 3.19982E-13
1.71823E-07 2.67676E-13
1.90386E-07 2.25047E-13
2.09900E-07 1.90534E-13
2.30367E-07 1.62383E-13
2.51785E-07 1.39229E-13
2.74156E-07 1.19977E-13
2.97478E-07 1.03992E-13
3.21752E-07 9.06351E-14
3.46978E-07 7.94065E-14
3.73156E-07 6.98219E-14
4.00286E-07 6.16753E-14
4.28368E-07 5.47174E-14
4.57402E-07 4.87375E-14
4.87388E-07 4.35707E-14
5.18325E-07 3.90907E-14
5.50215E-07 3.51872E-14
5.83057E-07 3.17624E-14
6.16850E-07 2.87471E-14
6.51596E-07 2.60862E-14
6.87293E-07 2.37294E-14
7.23942E-07 2.16293E-14
7.61543E-07 1.97574E-14
1.18991E-06 8.82324E-15
1.71347E-06 4.50315E-15
2.33223E-06 2.53080E-15
3.04617E-06 1.52905E-15
3.85531E-06 9.77532E-16
4.75964E-06 6.53829E-16
5.75916E-06 4.53791E-16
6.85388E-06 3.24801E-16
8.04378E-06 2.38596E-16
9.32888E-06 1.79191E-16
1.07092E-05 1.37183E-16
1.21846E-05 1.06794E-16
1.37553E-05 8.43690E-17
1.54212E-05 6.75280E-17
1.71822E-05 5.46828E-17
1.90385E-05 4.47228E-17
2.09899E-05 3.69700E-17
2.30365E-05 3.08199E-17
2.51783E-05 2.58886E-17
2.74153E-05 2.18988E-17
2.97475E-05 1.86456E-17
3.21749E-05 1.59743E-17
3.46974E-05 1.37657E-17
3.73152E-05 1.19277E-17
4.00281E-05 1.03877E-17
4.28362E-05 9.08907E-18
4.57395E-05 7.98721E-18
4.87380E-05 7.04707E-18
5.18317E-05 6.24088E-18
5.50205E-05 5.54649E-18
5.83045E-05 4.94599E-18
6.16838E-05 4.42472E-18
6.51582E-05 3.97054E-18
6.87277E-05 3.57337E-18
7.23925E-05 3.22478E-18
7.61524E-05 2.91754E-18
9.21439E-05 2.00132E-18
1.09658E-04 1.41831E-18
1.28695E-04 1.03319E-18
1.49255E-04 7.70387E-19
1.71338E-04 5.86165E-19
1.94942E-04 4.53892E-19
2.20070E-04 3.56942E-19
2.46720E-04 2.84573E-19
2.74892E-04 2.29664E-19
3.04586E-04 1.87397E-19
3.35803E-04 1.54431E-19
3.68542E-04 1.28415E-19
4.02802E-04 1.07661E-19
4.38585E-04 9.09410E-20
4.75889E-04 7.73497E-20
5.14715E-04 6.62096E-20
5.55063E-04 5.70084E-20
5.96931E-04 4.93548E-20
6.40321E-04 4.29462E-20
6.85233E-04 3.75472E-20
7.31665E-04 3.29727E-20
7.79618E-04 2.90759E-20
8.29092E-04 2.57398E-20
8.80086E-04 2.28700E-20
9.32601E-04 2.03905E-20
9.86636E-04 1.82392E-20
1.04219E-03 1.63653E-20
1.09927E-03 1.47268E-20
1.15786E-03 1.32891E-20
1.21797E-03 1.20233E-20
1.27961E-03 1.09053E-20
1.34276E-03 9.91482E-21
1.40743E-03 9.03479E-21
1.47362E-03 8.25069E-21
1.54133E-03 7.55025E-21
1.61056E-03 6.92294E-21
1.68131E-03 6.35978E-21
1.75357E-03 5.85304E-21
1.82735E-03 5.39603E-21
1.90265E-03 4.98303E-21
1.97947E-03 4.60902E-21
2.05780E-03 4.26965E-21
2.13765E-03 3.96113E-21
2.21902E-03 3.68016E-21
2.30190E-03 3.42382E-21
2.38630E-03 3.18956E-21
2.47222E-03 2.97513E-21
2.55965E-03 2.77854E-21
2.64859E-03 2.59804E-21
2.73905E-03 2.43206E-21
2.83103E-03 2.27923E-21
2.92452E-03 2.13830E-21
3.01952E-03 2.00818E-21
3.11604E-03 1.88788E-21
3.21407E-03 1.77653E-21
3.31362E-03 1.67333E-21
3.41468E-03 1.57758E-21
3.51725E-03 1.48864E-21
3.62133E-03 1.40593E-21
3.72692E-03 1.32893E-21
3.83403E-03 1.25718E-21
3.94265E-03 1.19025E-21
4.05278E-03 1.12775E-21
4.16442E-03 1.06934E-21
4.27757E-03 1.01470E-21
4.39223E-03 9.63534E-22
4.50840E-03 9.15584E-22
4.62608E-03 8.70608E-22
4.74527E-03 8.28386E-22
4.86597E-03 7.88718E-22
4.98817E-03 7.51420E-22
5.11188E-03 7.16321E-22
5.23711E-03 6.83270E-22
5.36383E-03 6.52122E-22
5.49207E-03 6.22746E-22
5.62181E-03 5.95023E-22
5.75306E-03 5.68842E-22
5.88581E-03 5.44101E-22
6.02007E-03 5.20703E-22
6.15583E-03 4.98563E-22
6.29310E-03 4.77601E-22
6.43187E-03 4.57740E-22
6.57214E-03 4.38912E-22
6.71392E-03 4.21053E-22
6.85720E-03 4.04104E-22
7.00198E-03 3.88007E-22
7.14827E-03 3.72713E-22
7.29605E-03 3.58174E-22
7.44534E-03 3.44345E-22
7.59612E-03 3.31184E-22
7.97965E-03 3.00960E-22
8.37255E-03 2.74142E-22
8.77480E-03 2.50278E-22
9.18641E-03 2.28982E-22
9.60736E-03 2.09928E-22
1.00376E-02 1.92837E-22
1.04773E-02 1.77469E-22
1.09262E-02 1.63618E-22
1.13844E-02 1.51108E-22
1.18520E-02 1.39783E-22
1.23288E-02 1.29511E-22
1.28150E-02 1.20175E-22
1.33104E-02 1.11675E-22
1.38150E-02 1.03921E-22
1.43290E-02 9.68357E-23
1.48521E-02 9.03505E-23
1.53845E-02 8.44051E-23
1.59262E-02 7.89460E-23
1.64770E-02 7.39231E-23
1.70371E-02 6.92972E-23
1.76063E-02 6.50308E-23
1.81848E-02 6.10906E-23
1.87724E-02 5.74468E-23
1.93692E-02 5.40730E-23
1.99751E-02 5.09451E-23
2.05901E-02 4.80419E-23
2.12143E-02 4.53441E-23
2.18476E-02 4.28343E-23
2.24900E-02 4.04968E-23
2.31415E-02 3.83176E-23
2.38021E-02 3.62839E-23
2.44717E-02 3.43840E-23
2.51504E-02 3.26074E-23
2.58382E-02 3.09446E-23
2.65349E-02 2.93868E-23
2.72407E-02 2.79262E-23
2.79555E-02 2.65554E-23
2.86793E-02 2.52679E-23
2.94120E-02 2.40576E-23
3.01537E-02 2.29190E-23
3.09043E-02 2.18470E-23
3.16639E-02 2.08370E-23
3.24324E-02 1.98846E-23
3.32098E-02 1.89859E-23
3.39961E-02 1.81374E-23
3.47912E-02 1.73356E-23
3.55952E-02 1.65775E-23
3.64081E-02 1.58602E-23
3.72297E-02 1.51811E-23
3.80602E-02 1.45378E-23
3.88995E-02 1.39281E-23
3.97476E-02 1.33497E-23
4.06044E-02 1.28009E-23
4.14700E-02 1.22797E-23
4.23443E-02 1.17846E-23
4.32273E-02 1.13140E-23
4.41190E-02 1.08663E-23
4.50194E-02 1.04404E-23
4.59284E-02 1.00349E-23
4.68461E-02 9.64860E-24
4.87074E-02 8.92955E-24
5.06030E-02 8.27532E-24
5.25328E-02 7.67901E-24
5.44967E-02 7.13456E-24
5.64946E-02 6.63662E-24
5.85262E-02 6.18050E-24
6.05914E-02 5.76206E-24
6.26901E-02 5.37762E-24
6.48222E-02 5.02391E-24
6.69873E-02 4.69804E-24
6.91854E-02 4.39743E-24
7.14163E-02 4.11976E-24
7.36799E-02 3.86297E-24
7.59760E-02 3.62522E-24
7.83043E-02 3.40484E-24
8.06647E-02 3.20034E-24
8.30571E-02 3.01038E-24
8.54812E-02 2.83374E-24
8.79369E-02 2.66932E-24
9.04240E-02 2.51614E-24
9.29422E-02 2.37330E-24
9.54915E-02 2.23997E-24
9.80716E-02 2.11542E-24
1.00682E-01 1.99897E-24
1.03323E-01 1.89001E-24
1.05995E-01 1.78797E-24
1.08696E-01 1.69234E-24
1.11427E-01 1.60265E-24
1.14188E-01 1.51848E-24
1.16978E-01 1.43943E-24
1.19797E-01 1.36513E-24
1.22645E-01 1.29526E-24
1.25522E-01 1.22951E-24
1.28428E-01 1.16760E-24
1.31361E-01 1.10927E-24
1.34323E-01 1.05428E-24
1.37313E-01 1.00240E-24
1.40330E-01 9.53448E-25
1.43375E-01 9.07220E-25
1.46447E-01 8.63544E-25
1.49545E-01 8.22259E-25
1.52671E-01 7.83214E-25
1.55823E-01 7.46270E-25
1.59001E-01 7.11299E-25
1.62205E-01 6.78178E-25
1.65435E-01 6.46797E-25
1.68690E-01 6.17052E-25
1.71970E-01 5.88844E-25
1.75276E-01 5.62084E-25
1.78606E-01 5.36688E-25
1.81961E-01 5.12576E-25
1.85340E-01 4.89674E-25
1.88743E-01 4.67915E-25
1.92169E-01 4.47233E-25
1.95619E-01 4.27569E-25
1.99092E-01 4.08865E-25
2.02589E-01 3.91069E-25
2.06107E-01 3.74131E-25
2.09649E-01 3.58006E-25
2.13212E-01 3.42648E-25
2.16797E-01 3.28017E-25
2.20404E-01 3.14075E-25
2.24032E-01 3.00785E-25
2.27680E-01 2.88114E-25
2.31350E-01 2.76028E-25
2.35040E-01 2.64499E-25
2.38751E-01 2.53496E-25
2.42481E-01 2.42995E-25
2.46231E-01 2.32968E-25
2.50000E-01 2.23394E-25
2.53788E-01 2.14248E-25
2.57595E-01 2.05509E-25
2.61421E-01 1.97159E-25
2.65264E-01 1.89177E-25
2.69126E-01 1.81545E-25
2.73005E-01 1.74248E-25
2.76901E-01 1.67268E-25
2.80814E-01 1.60590E-25
2.84744E-01 1.54201E-25
2.88691E-01 1.48086E-25
2.92653E-01 1.42232E-25
2.96632E-01 1.36628E-25
3.00625E-01 1.31262E-25
3.04634E-01 1.26122E-25
3.08658E-01 1.21198E-25
3.12697E-01 1.16481E-25
3.16749E-01 1.11961E-25
3.20816E-01 1.07629E-25
3.24896E-01 1.03476E-25
3.28990E-01 9.94953E-26
3.33097E-01 9.56779E-26
3.37216E-01 9.20171E-26
3.41348E-01 8.85058E-26
3.45492E-01 8.51374E-26
3.49647E-01 8.19057E-26
3.53814E-01 7.88048E-26
3.57992E-01 7.58288E-26
3.62181E-01 7.29725E-26
3.66381E-01 7.02305E-26
3.70590E-01 6.75981E-26
3.74810E-01 6.50704E-26
3.79039E-01 6.26431E-26
3.83277E-01 6.03119E-26
3.87524E-01 5.80727E-26
3.91780E-01 5.59215E-26
3.96044E-01 5.38548E-26
4.00316E-01 5.18690E-26
4.04596E-01 4.99607E-26
4.08882E-01 4.81266E-26
4.13176E-01 4.63637E-26
4.17476E-01 4.46691E-26
4.21783E-01 4.30400E-26
4.26095E-01 4.14735E-26
4.30413E-01 3.99673E-26
4.34737E-01 3.85188E-26
4.39065E-01 3.71257E-26
4.43398E-01 3.57858E-26
4.47736E-01 3.44968E-26
4.52077E-01 3.32568E-26
4.56422E-01 3.20637E-26
4.60770E-01 3.09158E-26
4.65122E-01 2.98111E-26
4.69476E-01 2.87480E-26
4.73832E-01 2.77248E-26
4.78190E-01 2.67399E-26
4.82550E-01 2.57919E-26
4.86912E-01 2.48792E-26
4.91274E-01 2.40005E-26
4.95637E-01 2.31545E-26
5.00000E-01 2.23398E-26
5.04363E-01 2.15552E-26
5.08726E-01 2.07996E-26
5.13088E-01 2.00719E-26
5.17450E-01 1.93709E-26
5.21810E-01 1.86957E-26
5.26168E-01 1.80451E-26
5.30524E-01 1.74184E-26
5.34878E-01 1.68145E-26
5.39230E-01 1.62327E-26
5.43578E-01 1.56719E-26
5.47923E-01 1.51316E-26
5.52264E-01 1.46107E-26
5.56602E-01 1.41087E-26
5.60935E-01 1.36249E-26
5.65263E-01 1.31584E-26
5.69587E-01 1.27087E-26
5.73905E-01 1.22752E-26
5.78217E-01 1.18571E-26
5.82524E-01 1.14540E-26
5.86824E-01 1.10653E-26
5.91118E-01 1.06905E-26
5.95404E-01 1.03289E-26
5.99684E-01 9.98019E-27
6.03956E-01 9.64382E-27
6.08220E-01 9.31934E-27
6.12476E-01 9.00630E-27
6.16723E-01 8.70429E-27
6.20961E-01 8.41289E-27
6.25190E-01 8.13172E-27
6.29410E-01 7.86039E-27
6.33619E-01 7.59854E-27
6.37819E-01 7.34582E-27
6.42008E-01 7.10190E-27
6.46186E-01 6.86646E-27
6.50353E-01 6.63918E-27
6.54508E-01 6.41977E-27
6.58652E-01 6.20794E-27
6.62784E-01 6.00341E-27
6.66903E-01 5.80591E-27
6.71010E-01 5.61520E-27
6.75104E-01 5.43102E-27
6.79184E-01 5.25314E-27
6.83251E-01 5.08133E-27
6.87303E-01 4.91537E-27
6.91342E-01 4.75505E-27
6.95366E-01 4.60017E-27
6.99375E-01 4.45052E-27
7.03368E-01 4.30593E-27
7.07347E-01 4.16621E-27
7.11309E-01 4.03119E-27
7.15256E-01 3.90069E-27
7.19186E-01 3.77457E-27
7.23099E-01 3.65265E-27
7.26995E-01 3.53479E-27
7.30874E-01 3.42085E-27
7.34736E-01 3.31069E-27
7.38579E-01 3.20417E-27
7.42405E-01 3.10117E-27
7.46212E-01 3.00156E-27
7.50000E-01 2.90522E-27
7.53769E-01 2.81203E-27
7.57519E-01 2.72189E-27
7.61249E-01 2.63469E-27
7.64960E-01 2.55032E-27
7.68650E-01 2.46868E-27
7.72320E-01 2.38969E-27
7.75968E-01 2.31325E-27
7.79596E-01 2.23926E-27
7.83203E-01 2.16765E-27
7.86788E-01 2.09833E-27
7.90351E-01 2.03122E-27
7.93893E-01 1.96625E-27
7.97411E-01 1.90334E-27
8.00908E-01 1.84242E-27
8.04381E-01 1.78342E-27
8.07831E-01 1.72628E-27
8.11257E-01 1.67093E-27
8.14660E-01 1.61732E-27
8.18039E-01 1.56538E-27
8.21394E-01 1.51506E-27
8.24724E-01 1.46629E-27
8.28030E-01 1.41904E-27
8.31310E-01 1.37325E-27
8.34565E-01 1.32886E-27
8.37795E-01 1.28584E-27
8.40999E-01 1.24413E-27
8.44177E-01 1.20370E-27
8.47329E-01 1.16449E-27
8.50455E-01 1.12648E-27
8.53553E-01 1.08962E-27
8.56625E-01 1.05387E-27
8.59670E-01 1.01919E-27
8.62687E-01 9.85556E-28
8.65677E-01 9.52930E-28
8.68639E-01 9.21277E-28
8.71572E-01 8.90568E-28
8.74478E-01 8.60771E-28
8.77355E-01 8.31857E-28
8.80203E-01 8.03799E-28
8.83022E-01 7.76568E-28
8.85812E-01 7.50140E-28
8.88573E-01 7.24488E-28
8.91304E-01 6.99588E-28
8.94005E-01 6.75417E-28
8.96677E-01 6.51952E-28
8.99318E-01 6.29172E-28
9.01928E-01 6.07056E-28
9.04508E-01 5.85582E-28
9.07058E-01 5.64733E-28
9.09576E-01 5.44488E-28
9.12063E-01 5.24831E-28
9.14519E-01 5.05743E-28
9.16943E-01 4.87207E-28
9.19335E-01 4.69208E-28
9.21696E-01 4.51730E-28
9.24024E-01 4.34758E-28
9.26320E-01 4.18277E-28
9.28584E-01 4.02273E-28
9.30815E-01 3.86734E-28
9.33013E-01 3.71645E-28
9.35178E-01 3.56995E-28
9.37310E-01 3.42772E-28
9.39409E-01 3.28963E-28
9.41474E-01 3.15558E-28
9.43505E-01 3.02546E-28
9.45503E-01 2.89917E-28
9.47467E-01 2.77661E-28
9.49397E-01 2.65767E-28
9.51293E-01 2.54228E-28
9.53154E-01 2.43034E-28
9.54981E-01 2.32176E-28
9.56773E-01 2.21647E-28
9.58530E-01 2.11437E-28
9.60252E-01 2.01541E-28
9.61940E-01 1.91950E-28
9.63592E-01 1.82658E-28
9.65209E-01 1.73657E-28
9.66790E-01 1.64942E-28
9.68336E-01 1.56505E-28
9.69846E-01 1.48341E-28
9.71321E-01 1.40444E-28
9.72759E-01 1.32809E-28
9.74162E-01 1.25430E-28
9.75528E-01 1.18303E-28
9.76858E-01 1.11421E-28
9.78152E-01 1.04782E-28
9.79410E-01 9.83791E-29
9.80631E-01 9.22093E-29
9.81815E-01 8.62682E-29
9.82963E-01 8.05519E-29
9.84074E-01 7.50566E-29
9.85148E-01 6.97787E-29
9.86185E-01 6.47147E-29
9.87185E-01 5.98615E-29
9.88148E-01 5.52158E-29
9.89074E-01 5.07747E-29
9.89962E-01 4.65354E-29
9.90814E-01 4.24952E-29
9.91627E-01 3.86516E-29
9.92404E-01 3.50021E-29
9.93143E-01 3.15445E-29
9.93844E-01 2.82767E-29
9.94508E-01 2.51966E-29
9.95134E-01 2.23023E-29
9.95722E-01 1.95920E-29
9.96273E-01 1.70642E-29
9.96786E-01 1.47173E-29
9.97261E-01 1.25497E-29
9.97698E-01 1.05604E-29
9.98097E-01 8.74797E-30
9.98459E-01 7.11140E-30
9.98782E-01 5.64972E-30
9.99067E-01 4.36204E-30
9.99315E-01 3.24759E-30
9.99524E-01 2.30571E-30
9.99695E-01 1.53584E-30
9.99829E-01 9.37530E-31
9.99924E-01 5.10417E-31
9.99981E-01 2.54250E-31
1.00000E+00 1.68878E-31
