 #
 # Subroutine ELSEPA. Elastic scattering of electrons and positrons
 #                    by neutral atoms and positive ions
 #
 # Projectile: electron
 # Kinetic energy = 3.50000E+06 eV = 1.28623E+05 a.u.
 #
 # WARNING: High-energy factorization with free-atom DF screening.
 #          Absorption, polarization and exchange corrections are
 #          switched off.
 #          Phase shifts are calculated for the bare nucleus.
 #          Scattering amplitudes are not evaluated.
 #
 # Element:  W,  Z =  74,  atomic weight = 1.83840E+02 g/mol
 #
 # Nuclear model: Fermi distribution
 #                Average radius = 6.08411E-13 cm
 #                Skin thickness = 5.46000E-14 cm
 #
 # Number of electrons = 74
 #
 # Total elastic cross section = 7.65844E-18 cm**2 = 2.73488E-01 a0**2
 # 1st transport cross section = 5.51805E-22 cm**2 = 1.97053E-05 a0**2
 # 2nd transport cross section = 1.48263E-21 cm**2 = 5.29459E-05 a0**2
 #
 #
 # Differential cross section:                       MU=(1-COS(THETA))/2
 #
 #  THETA        MU          DCS          DCS        Sherman      error
 #  (deg)                 (cm**2/sr)   (a0**2/sr)    function
 #----------------------------------------------------------------------
0.00000E+00 9.17036E-13
7.61557E-13 9.17033E-13
1.18994E-12 9.17031E-13
1.71346E-12 9.17028E-13
2.33225E-12 9.17025E-13
3.04617E-12 9.17022E-13
3.85530E-12 9.17018E-13
4.75964E-12 9.17013E-13
5.75917E-12 9.17009E-13
6.85391E-12 9.17003E-13
8.04379E-12 9.16998E-13
9.32893E-12 9.16991E-13
1.07092E-11 9.16985E-13
1.21847E-11 9.16977E-13
1.37554E-11 9.16970E-13
1.54213E-11 9.16962E-13
1.71823E-11 9.16953E-13
1.90386E-11 9.16944E-13
2.09900E-11 9.16935E-13
2.30367E-11 9.16925E-13
2.51785E-11 9.16914E-13
2.74156E-11 9.16903E-13
2.97478E-11 9.16892E-13
3.21752E-11 9.16880E-13
3.46979E-11 9.16868E-13
3.73157E-11 9.16855E-13
4.00286E-11 9.16842E-13
4.28368E-11 9.16828E-13
4.57402E-11 9.16814E-13
4.87388E-11 9.16800E-13
5.18325E-11 9.16785E-13
5.50215E-11 9.16769E-13
5.83057E-11 9.16753E-13
6.16850E-11 9.16737E-13
6.51595E-11 9.16720E-13
6.87293E-11 9.16703E-13
7.23943E-11 9.16685E-13
7.61544E-11 9.16666E-13
1.18991E-10 9.16458E-13
1.71347E-10 9.16203E-13
2.33223E-10 9.15902E-13
3.04617E-10 9.15555E-13
3.85531E-10 9.15162E-13
4.75965E-10 9.14722E-13
5.75917E-10 9.14237E-13
6.85389E-10 9.13706E-13
8.04380E-10 9.13130E-13
9.32891E-10 9.12508E-13
1.07092E-09 9.11841E-13
1.21847E-09 9.11128E-13
1.37554E-09 9.10371E-13
1.54213E-09 9.09569E-13
1.71823E-09 9.08722E-13
1.90386E-09 9.07831E-13
2.09900E-09 9.06895E-13
2.30367E-09 9.05916E-13
2.51785E-09 9.04894E-13
2.74156E-09 9.03827E-13
2.97478E-09 9.02718E-13
3.21752E-09 9.01566E-13
3.46978E-09 9.00371E-13
3.73156E-09 8.99134E-13
4.00286E-09 8.97855E-13
4.28368E-09 8.96535E-13
4.57402E-09 8.95173E-13
4.87388E-09 8.93770E-13
5.18326E-09 8.92326E-13
5.50215E-09 8.90842E-13
5.83057E-09 8.89318E-13
6.16850E-09 8.87755E-13
6.51596E-09 8.86152E-13
6.87293E-09 8.84510E-13
7.23942E-09 8.82830E-13
7.61544E-09 8.81113E-13
1.18991E-08 8.61932E-13
1.71347E-08 8.39361E-13
2.33223E-08 8.14077E-13
3.04617E-08 7.86393E-13
3.85531E-08 7.56903E-13
4.75965E-08 7.26207E-13
5.75917E-08 6.94776E-13
6.85389E-08 6.62786E-13
8.04380E-08 6.30909E-13
9.32891E-08 5.99484E-13
1.07092E-07 5.68646E-13
1.21847E-07 5.38600E-13
1.37554E-07 5.09681E-13
1.54213E-07 4.82003E-13
1.71823E-07 4.55446E-13
1.90386E-07 4.30229E-13
2.09900E-07 4.06405E-13
2.30367E-07 3.83924E-13
2.51785E-07 3.62652E-13
2.74156E-07 3.42705E-13
2.97478E-07 3.24025E-13
3.21752E-07 3.06473E-13
3.46978E-07 2.90011E-13
3.73156E-07 2.74635E-13
4.00286E-07 2.60275E-13
4.28368E-07 2.46770E-13
4.57402E-07 2.34150E-13
4.87388E-07 2.22362E-13
5.18325E-07 2.11321E-13
5.50215E-07 2.00938E-13
5.83057E-07 1.91225E-13
6.16850E-07 1.82131E-13
6.51596E-07 1.73566E-13
6.87293E-07 1.65513E-13
7.23942E-07 1.57955E-13
7.61543E-07 1.50856E-13
1.18991E-06 9.81440E-14
1.71347E-06 6.60446E-14
2.33223E-06 4.69133E-14
3.04617E-06 3.38468E-14
3.85531E-06 2.50603E-14
4.75964E-06 1.90160E-14
5.75916E-06 1.47048E-14
6.85388E-06 1.14849E-14
8.04378E-06 9.11765E-15
9.32888E-06 7.33471E-15
1.07092E-05 5.95119E-15
1.21846E-05 4.86574E-15
1.37553E-05 4.01567E-15
1.54212E-05 3.34093E-15
1.71822E-05 2.79331E-15
1.90385E-05 2.35069E-15
2.09899E-05 1.99427E-15
2.30365E-05 1.70169E-15
2.51783E-05 1.45891E-15
2.74153E-05 1.25807E-15
2.97475E-05 1.09084E-15
3.21749E-05 9.50459E-16
3.46974E-05 8.32516E-16
3.73152E-05 7.32655E-16
4.00281E-05 6.47431E-16
4.28362E-05 5.74421E-16
4.57395E-05 5.11741E-16
4.87380E-05 4.57640E-16
5.18317E-05 4.10669E-16
5.50205E-05 3.69632E-16
5.83045E-05 3.33714E-16
6.16838E-05 3.02154E-16
6.51582E-05 2.74242E-16
6.87277E-05 2.49500E-16
7.23925E-05 2.27529E-16
7.61524E-05 2.07948E-16
9.21439E-05 1.47822E-16
1.09658E-04 1.07992E-16
1.28695E-04 8.07075E-17
1.49255E-04 6.14619E-17
1.71338E-04 4.76457E-17
1.94942E-04 3.74861E-17
2.20070E-04 2.99080E-17
2.46720E-04 2.41571E-17
2.74892E-04 1.97143E-17
3.04586E-04 1.62504E-17
3.35803E-04 1.35182E-17
3.68542E-04 1.13378E-17
4.02802E-04 9.57753E-18
4.38585E-04 8.14787E-18
4.75889E-04 6.97651E-18
5.14715E-04 6.00807E-18
5.55063E-04 5.20212E-18
5.96931E-04 4.52767E-18
6.40321E-04 3.95962E-18
6.85233E-04 3.47762E-18
7.31665E-04 3.06717E-18
7.79618E-04 2.71585E-18
8.29092E-04 2.41356E-18
8.80086E-04 2.15214E-18
9.32601E-04 1.92536E-18
9.86636E-04 1.72783E-18
1.04219E-03 1.55497E-18
1.09927E-03 1.40324E-18
1.15786E-03 1.26966E-18
1.21797E-03 1.15168E-18
1.27961E-03 1.04702E-18
1.34276E-03 9.54047E-19
1.40743E-03 8.71209E-19
1.47362E-03 7.97178E-19
1.54133E-03 7.30839E-19
1.61056E-03 6.71288E-19
1.68131E-03 6.17705E-19
1.75357E-03 5.69355E-19
1.82735E-03 5.25655E-19
1.90265E-03 4.86087E-19
1.97947E-03 4.50184E-19
2.05780E-03 4.17530E-19
2.13765E-03 3.87798E-19
2.21902E-03 3.60678E-19
2.30190E-03 3.35891E-19
2.38630E-03 3.13201E-19
2.47222E-03 2.92404E-19
2.55965E-03 2.73315E-19
2.64859E-03 2.55758E-19
2.73905E-03 2.39596E-19
2.83103E-03 2.24698E-19
2.92452E-03 2.10946E-19
3.01952E-03 1.98231E-19
3.11604E-03 1.86467E-19
3.21407E-03 1.75568E-19
3.31362E-03 1.65457E-19
3.41468E-03 1.56067E-19
3.51725E-03 1.47339E-19
3.62133E-03 1.39217E-19
3.72692E-03 1.31649E-19
3.83403E-03 1.24592E-19
3.94265E-03 1.18005E-19
4.05278E-03 1.11851E-19
4.16442E-03 1.06095E-19
4.27757E-03 1.00708E-19
4.39223E-03 9.56613E-20
4.50840E-03 9.09290E-20
4.62608E-03 8.64881E-20
4.74527E-03 8.23176E-20
4.86597E-03 7.83977E-20
4.98817E-03 7.47100E-20
5.11188E-03 7.12387E-20
5.23711E-03 6.79687E-20
5.36383E-03 6.48859E-20
5.49207E-03 6.19775E-20
5.62181E-03 5.92319E-20
5.75306E-03 5.66384E-20
5.88581E-03 5.41865E-20
6.02007E-03 5.18672E-20
6.15583E-03 4.96722E-20
6.29310E-03 4.75934E-20
6.43187E-03 4.56232E-20
6.57214E-03 4.37551E-20
6.71392E-03 4.19829E-20
6.85720E-03 4.03004E-20
7.00198E-03 3.87024E-20
7.14827E-03 3.71838E-20
7.29605E-03 3.57400E-20
7.44534E-03 3.43662E-20
7.59612E-03 3.30587E-20
7.97965E-03 3.00554E-20
8.37255E-03 2.73896E-20
8.77480E-03 2.50167E-20
9.18641E-03 2.28987E-20
9.60736E-03 2.10032E-20
1.00376E-02 1.93027E-20
1.04773E-02 1.77734E-20
1.09262E-02 1.63948E-20
1.13844E-02 1.51494E-20
1.18520E-02 1.40220E-20
1.23288E-02 1.29993E-20
1.28150E-02 1.20697E-20
1.33104E-02 1.12233E-20
1.38150E-02 1.04511E-20
1.43290E-02 9.74538E-21
1.48521E-02 9.09936E-21
1.53845E-02 8.50710E-21
1.59262E-02 7.96326E-21
1.64770E-02 7.46302E-21
1.70371E-02 7.00231E-21
1.76063E-02 6.57741E-21
1.81848E-02 6.18496E-21
1.87724E-02 5.82199E-21
1.93692E-02 5.48591E-21
1.99751E-02 5.17432E-21
2.05901E-02 4.88505E-21
2.12143E-02 4.61623E-21
2.18476E-02 4.36613E-21
2.24900E-02 4.13319E-21
2.31415E-02 3.91597E-21
2.38021E-02 3.71322E-21
2.44717E-02 3.52380E-21
2.51504E-02 3.34664E-21
2.58382E-02 3.18079E-21
2.65349E-02 3.02539E-21
2.72407E-02 2.87965E-21
2.79555E-02 2.74283E-21
2.86793E-02 2.61430E-21
2.94120E-02 2.49345E-21
3.01537E-02 2.37972E-21
3.09043E-02 2.27261E-21
3.16639E-02 2.17166E-21
3.24324E-02 2.07644E-21
3.32098E-02 1.98655E-21
3.39961E-02 1.90164E-21
3.47912E-02 1.82138E-21
3.55952E-02 1.74545E-21
3.64081E-02 1.67358E-21
3.72297E-02 1.60551E-21
3.80602E-02 1.54099E-21
3.88995E-02 1.47980E-21
3.97476E-02 1.42173E-21
4.06044E-02 1.36658E-21
4.14700E-02 1.31419E-21
4.23443E-02 1.26438E-21
4.32273E-02 1.21700E-21
4.41190E-02 1.17191E-21
4.50194E-02 1.12897E-21
4.59284E-02 1.08806E-21
4.68461E-02 1.04906E-21
4.87074E-02 9.76374E-22
5.06030E-02 9.10124E-22
5.25328E-02 8.49626E-22
5.44967E-02 7.94279E-22
5.64946E-02 7.43554E-22
5.85262E-02 6.96988E-22
6.05914E-02 6.54168E-22
6.26901E-02 6.14729E-22
6.48222E-02 5.78351E-22
6.69873E-02 5.44744E-22
6.91854E-02 5.13654E-22
7.14163E-02 4.84851E-22
7.36799E-02 4.58133E-22
7.59760E-02 4.33316E-22
7.83043E-02 4.10236E-22
8.06647E-02 3.88745E-22
8.30571E-02 3.68710E-22
8.54812E-02 3.50011E-22
8.79369E-02 3.32539E-22
9.04240E-02 3.16196E-22
9.29422E-02 3.00894E-22
9.54915E-02 2.86551E-22
9.80716E-02 2.73095E-22
1.00682E-01 2.60457E-22
1.03323E-01 2.48578E-22
1.05995E-01 2.37401E-22
1.08696E-01 2.26875E-22
1.11427E-01 2.16955E-22
1.14188E-01 2.07598E-22
1.16978E-01 1.98763E-22
1.19797E-01 1.90417E-22
1.22645E-01 1.82524E-22
1.25522E-01 1.75056E-22
1.28428E-01 1.67984E-22
1.31361E-01 1.61282E-22
1.34323E-01 1.54926E-22
1.37313E-01 1.48895E-22
1.40330E-01 1.43168E-22
1.43375E-01 1.37726E-22
1.46447E-01 1.32551E-22
1.49545E-01 1.27628E-22
1.52671E-01 1.22941E-22
1.55823E-01 1.18477E-22
1.59001E-01 1.14222E-22
1.62205E-01 1.10164E-22
1.65435E-01 1.06292E-22
1.68690E-01 1.02596E-22
1.71970E-01 9.90648E-23
1.75276E-01 9.56901E-23
1.78606E-01 9.24635E-23
1.81961E-01 8.93767E-23
1.85340E-01 8.64221E-23
1.88743E-01 8.35929E-23
1.92169E-01 8.08824E-23
1.95619E-01 7.82845E-23
1.99092E-01 7.57934E-23
2.02589E-01 7.34036E-23
2.06107E-01 7.11100E-23
2.09649E-01 6.89079E-23
2.13212E-01 6.67926E-23
2.16797E-01 6.47601E-23
2.20404E-01 6.28061E-23
2.24032E-01 6.09270E-23
2.27680E-01 5.91193E-23
2.31350E-01 5.73795E-23
2.35040E-01 5.57045E-23
2.38751E-01 5.40914E-23
2.42481E-01 5.25371E-23
2.46231E-01 5.10392E-23
2.50000E-01 4.95950E-23
2.53788E-01 4.82022E-23
2.57595E-01 4.68585E-23
2.61421E-01 4.55617E-23
2.65264E-01 4.43099E-23
2.69126E-01 4.31010E-23
2.73005E-01 4.19333E-23
2.76901E-01 4.08050E-23
2.80814E-01 3.97144E-23
2.84744E-01 3.86601E-23
2.88691E-01 3.76404E-23
2.92653E-01 3.66541E-23
2.96632E-01 3.56996E-23
3.00625E-01 3.47758E-23
3.04634E-01 3.38815E-23
3.08658E-01 3.30154E-23
3.12697E-01 3.21764E-23
3.16749E-01 3.13636E-23
3.20816E-01 3.05758E-23
3.24896E-01 2.98122E-23
3.28990E-01 2.90718E-23
3.33097E-01 2.83538E-23
3.37216E-01 2.76572E-23
3.41348E-01 2.69814E-23
3.45492E-01 2.63255E-23
3.49647E-01 2.56888E-23
3.53814E-01 2.50706E-23
3.57992E-01 2.44703E-23
3.62181E-01 2.38872E-23
3.66381E-01 2.33207E-23
3.70590E-01 2.27702E-23
3.74810E-01 2.22351E-23
3.79039E-01 2.17150E-23
3.83277E-01 2.12093E-23
3.87524E-01 2.07175E-23
3.91780E-01 2.02391E-23
3.96044E-01 1.97738E-23
4.00316E-01 1.93209E-23
4.04596E-01 1.88802E-23
4.08882E-01 1.84512E-23
4.13176E-01 1.80336E-23
4.17476E-01 1.76270E-23
4.21783E-01 1.72309E-23
4.26095E-01 1.68452E-23
4.30413E-01 1.64694E-23
4.34737E-01 1.61032E-23
4.39065E-01 1.57464E-23
4.43398E-01 1.53985E-23
4.47736E-01 1.50595E-23
4.52077E-01 1.47289E-23
4.56422E-01 1.44066E-23
4.60770E-01 1.40922E-23
4.65122E-01 1.37856E-23
4.69476E-01 1.34864E-23
4.73832E-01 1.31946E-23
4.78190E-01 1.29098E-23
4.82550E-01 1.26318E-23
4.86912E-01 1.23605E-23
4.91274E-01 1.20956E-23
4.95637E-01 1.18370E-23
5.00000E-01 1.15845E-23
5.04363E-01 1.13379E-23
5.08726E-01 1.10971E-23
5.13088E-01 1.08618E-23
5.17450E-01 1.06319E-23
5.21810E-01 1.04073E-23
5.26168E-01 1.01879E-23
5.30524E-01 9.97336E-24
5.34878E-01 9.76372E-24
5.39230E-01 9.55879E-24
5.43578E-01 9.35844E-24
5.47923E-01 9.16255E-24
5.52264E-01 8.97099E-24
5.56602E-01 8.78367E-24
5.60935E-01 8.60045E-24
5.65263E-01 8.42123E-24
5.69587E-01 8.24591E-24
5.73905E-01 8.07438E-24
5.78217E-01 7.90655E-24
5.82524E-01 7.74232E-24
5.86824E-01 7.58161E-24
5.91118E-01 7.42431E-24
5.95404E-01 7.27034E-24
5.99684E-01 7.11963E-24
6.03956E-01 6.97208E-24
6.08220E-01 6.82762E-24
6.12476E-01 6.68616E-24
6.16723E-01 6.54764E-24
6.20961E-01 6.41198E-24
6.25190E-01 6.27912E-24
6.29410E-01 6.14898E-24
6.33619E-01 6.02150E-24
6.37819E-01 5.89662E-24
6.42008E-01 5.77428E-24
6.46186E-01 5.65441E-24
6.50353E-01 5.53696E-24
6.54508E-01 5.42187E-24
6.58652E-01 5.30907E-24
6.62784E-01 5.19852E-24
6.66903E-01 5.09017E-24
6.71010E-01 4.98396E-24
6.75104E-01 4.87985E-24
6.79184E-01 4.77779E-24
6.83251E-01 4.67774E-24
6.87303E-01 4.57965E-24
6.91342E-01 4.48347E-24
6.95366E-01 4.38916E-24
6.99375E-01 4.29668E-24
7.03368E-01 4.20599E-24
7.07347E-01 4.11705E-24
7.11309E-01 4.02982E-24
7.15256E-01 3.94427E-24
7.19186E-01 3.86035E-24
7.23099E-01 3.77804E-24
7.26995E-01 3.69730E-24
7.30874E-01 3.61809E-24
7.34736E-01 3.54038E-24
7.38579E-01 3.46415E-24
7.42405E-01 3.38936E-24
7.46212E-01 3.31598E-24
7.50000E-01 3.24398E-24
7.53769E-01 3.17334E-24
7.57519E-01 3.10402E-24
7.61249E-01 3.03600E-24
7.64960E-01 2.96925E-24
7.68650E-01 2.90374E-24
7.72320E-01 2.83946E-24
7.75968E-01 2.77638E-24
7.79596E-01 2.71447E-24
7.83203E-01 2.65371E-24
7.86788E-01 2.59408E-24
7.90351E-01 2.53555E-24
7.93893E-01 2.47812E-24
7.97411E-01 2.42174E-24
8.00908E-01 2.36641E-24
8.04381E-01 2.31210E-24
8.07831E-01 2.25880E-24
8.11257E-01 2.20648E-24
8.14660E-01 2.15514E-24
8.18039E-01 2.10474E-24
8.21394E-01 2.05527E-24
8.24724E-01 2.00672E-24
8.28030E-01 1.95906E-24
8.31310E-01 1.91229E-24
8.34565E-01 1.86639E-24
8.37795E-01 1.82133E-24
8.40999E-01 1.77711E-24
8.44177E-01 1.73371E-24
8.47329E-01 1.69112E-24
8.50455E-01 1.64933E-24
8.53553E-01 1.60831E-24
8.56625E-01 1.56806E-24
8.59670E-01 1.52856E-24
8.62687E-01 1.48980E-24
8.65677E-01 1.45177E-24
8.68639E-01 1.41445E-24
8.71572E-01 1.37784E-24
8.74478E-01 1.34192E-24
8.77355E-01 1.30668E-24
8.80203E-01 1.27211E-24
8.83022E-01 1.23820E-24
8.85812E-01 1.20494E-24
8.88573E-01 1.17232E-24
8.91304E-01 1.14033E-24
8.94005E-01 1.10896E-24
8.96677E-01 1.07820E-24
8.99318E-01 1.04804E-24
9.01928E-01 1.01847E-24
9.04508E-01 9.89477E-25
9.07058E-01 9.61064E-25
9.09576E-01 9.33216E-25
9.12063E-01 9.05926E-25
9.14519E-01 8.79186E-25
9.16943E-01 8.52987E-25
9.19335E-01 8.27322E-25
9.21696E-01 8.02185E-25
9.24024E-01 7.77567E-25
9.26320E-01 7.53461E-25
9.28584E-01 7.29862E-25
9.30815E-01 7.06761E-25
9.33013E-01 6.84152E-25
9.35178E-01 6.62030E-25
9.37310E-01 6.40388E-25
9.39409E-01 6.19219E-25
9.41474E-01 5.98518E-25
9.43505E-01 5.78280E-25
9.45503E-01 5.58498E-25
9.47467E-01 5.39167E-25
9.49397E-01 5.20282E-25
9.51293E-01 5.01837E-25
9.53154E-01 4.83828E-25
9.54981E-01 4.66250E-25
9.56773E-01 4.49098E-25
9.58530E-01 4.32367E-25
9.60252E-01 4.16053E-25
9.61940E-01 4.00151E-25
9.63592E-01 3.84658E-25
9.65209E-01 3.69568E-25
9.66790E-01 3.54879E-25
9.68336E-01 3.40585E-25
9.69846E-01 3.26684E-25
9.71321E-01 3.13172E-25
9.72759E-01 3.00045E-25
9.74162E-01 2.87299E-25
9.75528E-01 2.74932E-25
9.76858E-01 2.62939E-25
9.78152E-01 2.51319E-25
9.79410E-01 2.40068E-25
9.80631E-01 2.29182E-25
9.81815E-01 2.18660E-25
9.82963E-01 2.08498E-25
9.84074E-01 1.98694E-25
9.85148E-01 1.89245E-25
9.86185E-01 1.80149E-25
9.87185E-01 1.71404E-25
9.88148E-01 1.63007E-25
9.89074E-01 1.54956E-25
9.89962E-01 1.47249E-25
9.90814E-01 1.39885E-25
9.91627E-01 1.32860E-25
9.92404E-01 1.26174E-25
9.93143E-01 1.19825E-25
9.93844E-01 1.13811E-25
9.94508E-01 1.08131E-25
9.95134E-01 1.02783E-25
9.95722E-01 9.77653E-26
9.96273E-01 9.30775E-26
9.96786E-01 8.87182E-26
9.97261E-01 8.46861E-26
9.97698E-01 8.09803E-26
9.98097E-01 7.75998E-26
9.98459E-01 7.45439E-26
9.98782E-01 7.18117E-26
9.99067E-01 6.94025E-26
9.99315E-01 6.73158E-26
9.99524E-01 6.55510E-26
9.99695E-01 6.41076E-26
9.99829E-01 6.29854E-26
9.99924E-01 6.21840E-26
9.99981E-01 6.17033E-26
1.00000E+00 6.15430E-26
