 #
 # Subroutine ELSEPA. Elastic scattering of electrons and positrons
 #                    by neutral atoms and positive ions
 #
 # Projectile: electron
 # Kinetic energy = 3.00000E+06 eV = 1.10248E+05 a.u.
 #
 # WARNING: High-energy factorization with free-atom DF screening.
 #          Absorption, polarization and exchange corrections are
 #          switched off.
 #          Phase shifts are calculated for the bare nucleus.
 #          Scattering amplitudes are not evaluated.
 #
 # Element:  W,  Z =  74,  atomic weight = 1.83840E+02 g/mol
 #
 # Nuclear model: Fermi distribution
 #                Average radius = 6.08411E-13 cm
 #                Skin thickness = 5.46000E-14 cm
 #
 # Number of electrons = 74
 #
 # Total elastic cross section = 7.69972E-18 cm**2 = 2.74962E-01 a0**2
 # 1st transport cross section = 7.11782E-22 cm**2 = 2.54182E-05 a0**2
 # 2nd transport cross section = 1.90580E-21 cm**2 = 6.80572E-05 a0**2
 #
 #
 # Differential cross section:                       MU=(1-COS(THETA))/2
 #
 #  THETA        MU          DCS          DCS        Sherman      error
 #  (deg)                 (cm**2/sr)   (a0**2/sr)    function
 #----------------------------------------------------------------------
0.00000E+00 7.02656E-13
7.61557E-13 7.02654E-13
1.18994E-12 7.02653E-13
1.71346E-12 7.02651E-13
2.33225E-12 7.02650E-13
3.04617E-12 7.02648E-13
3.85530E-12 7.02645E-13
4.75964E-12 7.02643E-13
5.75917E-12 7.02640E-13
6.85391E-12 7.02637E-13
8.04379E-12 7.02634E-13
9.32893E-12 7.02630E-13
1.07092E-11 7.02626E-13
1.21847E-11 7.02622E-13
1.37554E-11 7.02618E-13
1.54213E-11 7.02613E-13
1.71823E-11 7.02608E-13
1.90386E-11 7.02603E-13
2.09900E-11 7.02597E-13
2.30367E-11 7.02591E-13
2.51785E-11 7.02585E-13
2.74156E-11 7.02579E-13
2.97478E-11 7.02572E-13
3.21752E-11 7.02565E-13
3.46979E-11 7.02558E-13
3.73157E-11 7.02551E-13
4.00286E-11 7.02543E-13
4.28368E-11 7.02535E-13
4.57402E-11 7.02527E-13
4.87388E-11 7.02519E-13
5.18325E-11 7.02510E-13
5.50215E-11 7.02501E-13
5.83057E-11 7.02491E-13
6.16850E-11 7.02482E-13
6.51595E-11 7.02472E-13
6.87293E-11 7.02462E-13
7.23943E-11 7.02451E-13
7.61544E-11 7.02441E-13
1.18991E-10 7.02319E-13
1.71347E-10 7.02170E-13
2.33223E-10 7.01995E-13
3.04617E-10 7.01792E-13
3.85531E-10 7.01562E-13
4.75965E-10 7.01306E-13
5.75917E-10 7.01022E-13
6.85389E-10 7.00712E-13
8.04380E-10 7.00375E-13
9.32891E-10 7.00011E-13
1.07092E-09 6.99620E-13
1.21847E-09 6.99203E-13
1.37554E-09 6.98760E-13
1.54213E-09 6.98290E-13
1.71823E-09 6.97794E-13
1.90386E-09 6.97272E-13
2.09900E-09 6.96723E-13
2.30367E-09 6.96149E-13
2.51785E-09 6.95548E-13
2.74156E-09 6.94922E-13
2.97478E-09 6.94271E-13
3.21752E-09 6.93593E-13
3.46978E-09 6.92891E-13
3.73156E-09 6.92163E-13
4.00286E-09 6.91410E-13
4.28368E-09 6.90632E-13
4.57402E-09 6.89829E-13
4.87388E-09 6.89001E-13
5.18326E-09 6.88149E-13
5.50215E-09 6.87273E-13
5.83057E-09 6.86372E-13
6.16850E-09 6.85447E-13
6.51596E-09 6.84499E-13
6.87293E-09 6.83527E-13
7.23942E-09 6.82531E-13
7.61544E-09 6.81512E-13
1.18991E-08 6.70081E-13
1.71347E-08 6.56544E-13
2.33223E-08 6.41072E-13
3.04617E-08 6.24083E-13
3.85531E-08 6.05645E-13
4.75965E-08 5.86153E-13
5.75917E-08 5.65919E-13
6.85389E-08 5.44949E-13
8.04380E-08 5.23748E-13
9.32891E-08 5.02422E-13
1.07092E-07 4.81074E-13
1.21847E-07 4.60076E-13
1.37554E-07 4.39360E-13
1.54213E-07 4.19142E-13
1.71823E-07 3.99614E-13
1.90386E-07 3.80587E-13
2.09900E-07 3.62354E-13
2.30367E-07 3.44907E-13
2.51785E-07 3.28130E-13
2.74156E-07 3.12215E-13
2.97478E-07 2.97053E-13
3.21752E-07 2.82630E-13
3.46978E-07 2.69022E-13
3.73156E-07 2.56078E-13
4.00286E-07 2.43856E-13
4.28368E-07 2.32355E-13
4.57402E-07 2.21413E-13
4.87388E-07 2.11132E-13
5.18325E-07 2.01435E-13
5.50215E-07 1.92248E-13
5.83057E-07 1.83616E-13
6.16850E-07 1.75448E-13
6.51596E-07 1.67731E-13
6.87293E-07 1.60474E-13
7.23942E-07 1.53577E-13
7.61543E-07 1.47074E-13
1.18991E-06 9.81567E-14
1.71347E-06 6.83740E-14
2.33223E-06 4.85505E-14
3.04617E-06 3.61460E-14
3.85531E-06 2.70651E-14
4.75964E-06 2.07833E-14
5.75916E-06 1.62799E-14
6.85388E-06 1.28315E-14
8.04378E-06 1.03034E-14
9.32888E-06 8.36147E-15
1.07092E-05 6.83764E-15
1.21846E-05 5.65895E-15
1.37553E-05 4.70733E-15
1.54212E-05 3.94446E-15
1.71822E-05 3.33267E-15
1.90385E-05 2.82139E-15
2.09899E-05 2.40850E-15
2.30365E-05 2.06697E-15
2.51783E-05 1.77946E-15
2.74153E-05 1.54068E-15
2.97475E-05 1.33933E-15
3.21749E-05 1.16928E-15
3.46974E-05 1.02601E-15
3.73152E-05 9.03636E-16
4.00281E-05 7.99364E-16
4.28362E-05 7.10123E-16
4.57395E-05 6.33027E-16
4.87380E-05 5.66287E-16
5.18317E-05 5.08022E-16
5.50205E-05 4.57133E-16
5.83045E-05 4.12699E-16
6.16838E-05 3.73655E-16
6.51582E-05 3.39257E-16
6.87277E-05 3.08901E-16
7.23925E-05 2.81888E-16
7.61524E-05 2.57848E-16
9.21439E-05 1.84098E-16
1.09658E-04 1.34983E-16
1.28695E-04 1.01278E-16
1.49255E-04 7.74708E-17
1.71338E-04 6.02596E-17
1.94942E-04 4.75317E-17
2.20070E-04 3.79972E-17
2.46720E-04 3.07431E-17
2.74892E-04 2.51564E-17
3.04586E-04 2.07611E-17
3.35803E-04 1.72950E-17
3.68542E-04 1.45260E-17
4.02802E-04 1.22841E-17
4.38585E-04 1.04630E-17
4.75889E-04 8.96654E-18
5.14715E-04 7.72802E-18
5.55063E-04 6.69815E-18
5.96931E-04 5.83313E-18
6.40321E-04 5.10414E-18
6.85233E-04 4.48653E-18
7.31665E-04 3.95876E-18
7.79618E-04 3.50715E-18
8.29092E-04 3.11840E-18
8.80086E-04 2.78193E-18
9.32601E-04 2.49008E-18
9.86636E-04 2.23550E-18
1.04219E-03 2.01274E-18
1.09927E-03 1.81730E-18
1.15786E-03 1.64490E-18
1.21797E-03 1.49262E-18
1.27961E-03 1.35768E-18
1.34276E-03 1.23757E-18
1.40743E-03 1.13058E-18
1.47362E-03 1.03492E-18
1.54133E-03 9.49170E-19
1.61056E-03 8.72192E-19
1.68131E-03 8.02843E-19
1.75357E-03 7.40278E-19
1.82735E-03 6.83736E-19
1.90265E-03 6.32460E-19
1.97947E-03 5.85937E-19
2.05780E-03 5.43632E-19
2.13765E-03 5.05067E-19
2.21902E-03 4.69889E-19
2.30190E-03 4.37723E-19
2.38630E-03 4.08267E-19
2.47222E-03 3.81267E-19
2.55965E-03 3.56457E-19
2.64859E-03 3.33645E-19
2.73905E-03 3.12640E-19
2.83103E-03 2.93258E-19
2.92452E-03 2.75368E-19
3.01952E-03 2.58826E-19
3.11604E-03 2.43510E-19
3.21407E-03 2.29320E-19
3.31362E-03 2.16150E-19
3.41468E-03 2.03917E-19
3.51725E-03 1.92545E-19
3.62133E-03 1.81955E-19
3.72692E-03 1.72089E-19
3.83403E-03 1.62887E-19
3.94265E-03 1.54294E-19
4.05278E-03 1.46265E-19
4.16442E-03 1.38755E-19
4.27757E-03 1.31723E-19
4.39223E-03 1.25136E-19
4.50840E-03 1.18957E-19
4.62608E-03 1.13158E-19
4.74527E-03 1.07712E-19
4.86597E-03 1.02590E-19
4.98817E-03 9.77729E-20
5.11188E-03 9.32375E-20
5.23711E-03 8.89638E-20
5.36383E-03 8.49350E-20
5.49207E-03 8.11334E-20
5.62181E-03 7.75441E-20
5.75306E-03 7.41534E-20
5.88581E-03 7.09473E-20
6.02007E-03 6.79147E-20
6.15583E-03 6.50442E-20
6.29310E-03 6.23250E-20
6.43187E-03 5.97482E-20
6.57214E-03 5.73046E-20
6.71392E-03 5.49860E-20
6.85720E-03 5.27850E-20
7.00198E-03 5.06941E-20
7.14827E-03 4.87070E-20
7.29605E-03 4.68177E-20
7.44534E-03 4.50200E-20
7.59612E-03 4.33089E-20
7.97965E-03 3.93780E-20
8.37255E-03 3.58885E-20
8.77480E-03 3.27822E-20
9.18641E-03 3.00090E-20
9.60736E-03 2.75272E-20
1.00376E-02 2.53002E-20
1.04773E-02 2.32974E-20
1.09262E-02 2.14919E-20
1.13844E-02 1.98607E-20
1.18520E-02 1.83839E-20
1.23288E-02 1.70441E-20
1.28150E-02 1.58263E-20
1.33104E-02 1.47173E-20
1.38150E-02 1.37056E-20
1.43290E-02 1.27809E-20
1.48521E-02 1.19345E-20
1.53845E-02 1.11583E-20
1.59262E-02 1.04456E-20
1.64770E-02 9.79001E-21
1.70371E-02 9.18619E-21
1.76063E-02 8.62923E-21
1.81848E-02 8.11481E-21
1.87724E-02 7.63902E-21
1.93692E-02 7.19839E-21
1.99751E-02 6.78992E-21
2.05901E-02 6.41067E-21
2.12143E-02 6.05822E-21
2.18476E-02 5.73031E-21
2.24900E-02 5.42482E-21
2.31415E-02 5.14000E-21
2.38021E-02 4.87414E-21
2.44717E-02 4.62570E-21
2.51504E-02 4.39337E-21
2.58382E-02 4.17584E-21
2.65349E-02 3.97202E-21
2.72407E-02 3.78086E-21
2.79555E-02 3.60139E-21
2.86793E-02 3.43279E-21
2.94120E-02 3.27425E-21
3.01537E-02 3.12505E-21
3.09043E-02 2.98453E-21
3.16639E-02 2.85207E-21
3.24324E-02 2.72713E-21
3.32098E-02 2.60920E-21
3.39961E-02 2.49778E-21
3.47912E-02 2.39246E-21
3.55952E-02 2.29283E-21
3.64081E-02 2.19852E-21
3.72297E-02 2.10918E-21
3.80602E-02 2.02450E-21
3.88995E-02 1.94419E-21
3.97476E-02 1.86798E-21
4.06044E-02 1.79559E-21
4.14700E-02 1.72682E-21
4.23443E-02 1.66144E-21
4.32273E-02 1.59925E-21
4.41190E-02 1.54006E-21
4.50194E-02 1.48369E-21
4.59284E-02 1.42998E-21
4.68461E-02 1.37878E-21
4.87074E-02 1.28334E-21
5.06030E-02 1.19636E-21
5.25328E-02 1.11692E-21
5.44967E-02 1.04424E-21
5.64946E-02 9.77628E-22
5.85262E-02 9.16472E-22
6.05914E-02 8.60232E-22
6.26901E-02 8.08433E-22
6.48222E-02 7.60648E-22
6.69873E-02 7.16502E-22
6.91854E-02 6.75660E-22
7.14163E-02 6.37823E-22
7.36799E-02 6.02721E-22
7.59760E-02 5.70115E-22
7.83043E-02 5.39790E-22
8.06647E-02 5.11551E-22
8.30571E-02 4.85225E-22
8.54812E-02 4.60652E-22
8.79369E-02 4.37691E-22
9.04240E-02 4.16213E-22
9.29422E-02 3.96102E-22
9.54915E-02 3.77250E-22
9.80716E-02 3.59563E-22
1.00682E-01 3.42951E-22
1.03323E-01 3.27335E-22
1.05995E-01 3.12642E-22
1.08696E-01 2.98805E-22
1.11427E-01 2.85763E-22
1.14188E-01 2.73459E-22
1.16978E-01 2.61844E-22
1.19797E-01 2.50868E-22
1.22645E-01 2.40490E-22
1.25522E-01 2.30669E-22
1.28428E-01 2.21368E-22
1.31361E-01 2.12554E-22
1.34323E-01 2.04195E-22
1.37313E-01 1.96263E-22
1.40330E-01 1.88730E-22
1.43375E-01 1.81571E-22
1.46447E-01 1.74764E-22
1.49545E-01 1.68288E-22
1.52671E-01 1.62122E-22
1.55823E-01 1.56248E-22
1.59001E-01 1.50650E-22
1.62205E-01 1.45310E-22
1.65435E-01 1.40215E-22
1.68690E-01 1.35351E-22
1.71970E-01 1.30704E-22
1.75276E-01 1.26263E-22
1.78606E-01 1.22016E-22
1.81961E-01 1.17953E-22
1.85340E-01 1.14064E-22
1.88743E-01 1.10340E-22
1.92169E-01 1.06772E-22
1.95619E-01 1.03352E-22
1.99092E-01 1.00072E-22
2.02589E-01 9.69252E-23
2.06107E-01 9.39052E-23
2.09649E-01 9.10054E-23
2.13212E-01 8.82199E-23
2.16797E-01 8.55430E-23
2.20404E-01 8.29696E-23
2.24032E-01 8.04947E-23
2.27680E-01 7.81135E-23
2.31350E-01 7.58217E-23
2.35040E-01 7.36152E-23
2.38751E-01 7.14899E-23
2.42481E-01 6.94421E-23
2.46231E-01 6.74684E-23
2.50000E-01 6.55655E-23
2.53788E-01 6.37301E-23
2.57595E-01 6.19593E-23
2.61421E-01 6.02502E-23
2.65264E-01 5.86003E-23
2.69126E-01 5.70069E-23
2.73005E-01 5.54676E-23
2.76901E-01 5.39802E-23
2.80814E-01 5.25425E-23
2.84744E-01 5.11524E-23
2.88691E-01 4.98079E-23
2.92653E-01 4.85072E-23
2.96632E-01 4.72486E-23
3.00625E-01 4.60303E-23
3.04634E-01 4.48508E-23
3.08658E-01 4.37084E-23
3.12697E-01 4.26018E-23
3.16749E-01 4.15296E-23
3.20816E-01 4.04903E-23
3.24896E-01 3.94829E-23
3.28990E-01 3.85060E-23
3.33097E-01 3.75585E-23
3.37216E-01 3.66393E-23
3.41348E-01 3.57474E-23
3.45492E-01 3.48817E-23
3.49647E-01 3.40414E-23
3.53814E-01 3.32254E-23
3.57992E-01 3.24329E-23
3.62181E-01 3.16631E-23
3.66381E-01 3.09152E-23
3.70590E-01 3.01883E-23
3.74810E-01 2.94818E-23
3.79039E-01 2.87950E-23
3.83277E-01 2.81271E-23
3.87524E-01 2.74776E-23
3.91780E-01 2.68457E-23
3.96044E-01 2.62310E-23
4.00316E-01 2.56328E-23
4.04596E-01 2.50506E-23
4.08882E-01 2.44838E-23
4.13176E-01 2.39320E-23
4.17476E-01 2.33946E-23
4.21783E-01 2.28712E-23
4.26095E-01 2.23614E-23
4.30413E-01 2.18647E-23
4.34737E-01 2.13807E-23
4.39065E-01 2.09090E-23
4.43398E-01 2.04492E-23
4.47736E-01 2.00009E-23
4.52077E-01 1.95638E-23
4.56422E-01 1.91376E-23
4.60770E-01 1.87219E-23
4.65122E-01 1.83163E-23
4.69476E-01 1.79207E-23
4.73832E-01 1.75346E-23
4.78190E-01 1.71579E-23
4.82550E-01 1.67902E-23
4.86912E-01 1.64312E-23
4.91274E-01 1.60808E-23
4.95637E-01 1.57386E-23
5.00000E-01 1.54045E-23
5.04363E-01 1.50781E-23
5.08726E-01 1.47593E-23
5.13088E-01 1.44479E-23
5.17450E-01 1.41436E-23
5.21810E-01 1.38463E-23
5.26168E-01 1.35557E-23
5.30524E-01 1.32718E-23
5.34878E-01 1.29942E-23
5.39230E-01 1.27228E-23
5.43578E-01 1.24574E-23
5.47923E-01 1.21980E-23
5.52264E-01 1.19443E-23
5.56602E-01 1.16961E-23
5.60935E-01 1.14534E-23
5.65263E-01 1.12160E-23
5.69587E-01 1.09837E-23
5.73905E-01 1.07564E-23
5.78217E-01 1.05340E-23
5.82524E-01 1.03164E-23
5.86824E-01 1.01034E-23
5.91118E-01 9.89490E-24
5.95404E-01 9.69081E-24
5.99684E-01 9.49101E-24
6.03956E-01 9.29539E-24
6.08220E-01 9.10385E-24
6.12476E-01 8.91629E-24
6.16723E-01 8.73261E-24
6.20961E-01 8.55271E-24
6.25190E-01 8.37651E-24
6.29410E-01 8.20390E-24
6.33619E-01 8.03481E-24
6.37819E-01 7.86916E-24
6.42008E-01 7.70685E-24
6.46186E-01 7.54781E-24
6.50353E-01 7.39196E-24
6.54508E-01 7.23923E-24
6.58652E-01 7.08955E-24
6.62784E-01 6.94284E-24
6.66903E-01 6.79903E-24
6.71010E-01 6.65807E-24
6.75104E-01 6.51987E-24
6.79184E-01 6.38439E-24
6.83251E-01 6.25156E-24
6.87303E-01 6.12132E-24
6.91342E-01 5.99360E-24
6.95366E-01 5.86837E-24
6.99375E-01 5.74556E-24
7.03368E-01 5.62511E-24
7.07347E-01 5.50698E-24
7.11309E-01 5.39111E-24
7.15256E-01 5.27747E-24
7.19186E-01 5.16599E-24
7.23099E-01 5.05663E-24
7.26995E-01 4.94935E-24
7.30874E-01 4.84410E-24
7.34736E-01 4.74084E-24
7.38579E-01 4.63953E-24
7.42405E-01 4.54013E-24
7.46212E-01 4.44260E-24
7.50000E-01 4.34689E-24
7.53769E-01 4.25298E-24
7.57519E-01 4.16082E-24
7.61249E-01 4.07039E-24
7.64960E-01 3.98164E-24
7.68650E-01 3.89454E-24
7.72320E-01 3.80906E-24
7.75968E-01 3.72517E-24
7.79596E-01 3.64283E-24
7.83203E-01 3.56202E-24
7.86788E-01 3.48271E-24
7.90351E-01 3.40486E-24
7.93893E-01 3.32845E-24
7.97411E-01 3.25345E-24
8.00908E-01 3.17983E-24
8.04381E-01 3.10757E-24
8.07831E-01 3.03665E-24
8.11257E-01 2.96703E-24
8.14660E-01 2.89869E-24
8.18039E-01 2.83161E-24
8.21394E-01 2.76577E-24
8.24724E-01 2.70114E-24
8.28030E-01 2.63771E-24
8.31310E-01 2.57544E-24
8.34565E-01 2.51433E-24
8.37795E-01 2.45435E-24
8.40999E-01 2.39547E-24
8.44177E-01 2.33769E-24
8.47329E-01 2.28097E-24
8.50455E-01 2.22531E-24
8.53553E-01 2.17069E-24
8.56625E-01 2.11708E-24
8.59670E-01 2.06447E-24
8.62687E-01 2.01284E-24
8.65677E-01 1.96218E-24
8.68639E-01 1.91247E-24
8.71572E-01 1.86369E-24
8.74478E-01 1.81584E-24
8.77355E-01 1.76888E-24
8.80203E-01 1.72282E-24
8.83022E-01 1.67764E-24
8.85812E-01 1.63332E-24
8.88573E-01 1.58985E-24
8.91304E-01 1.54721E-24
8.94005E-01 1.50540E-24
8.96677E-01 1.46440E-24
8.99318E-01 1.42419E-24
9.01928E-01 1.38478E-24
9.04508E-01 1.34614E-24
9.07058E-01 1.30826E-24
9.09576E-01 1.27113E-24
9.12063E-01 1.23475E-24
9.14519E-01 1.19909E-24
9.16943E-01 1.16416E-24
9.19335E-01 1.12994E-24
9.21696E-01 1.09642E-24
9.24024E-01 1.06359E-24
9.26320E-01 1.03144E-24
9.28584E-01 9.99969E-25
9.30815E-01 9.69159E-25
9.33013E-01 9.39004E-25
9.35178E-01 9.09496E-25
9.37310E-01 8.80627E-25
9.39409E-01 8.52389E-25
9.41474E-01 8.24775E-25
9.43505E-01 7.97775E-25
9.45503E-01 7.71384E-25
9.47467E-01 7.45594E-25
9.49397E-01 7.20397E-25
9.51293E-01 6.95788E-25
9.53154E-01 6.71759E-25
9.54981E-01 6.48303E-25
9.56773E-01 6.25416E-25
9.58530E-01 6.03089E-25
9.60252E-01 5.81319E-25
9.61940E-01 5.60097E-25
9.63592E-01 5.39420E-25
9.65209E-01 5.19282E-25
9.66790E-01 4.99677E-25
9.68336E-01 4.80600E-25
9.69846E-01 4.62046E-25
9.71321E-01 4.44010E-25
9.72759E-01 4.26487E-25
9.74162E-01 4.09474E-25
9.75528E-01 3.92965E-25
9.76858E-01 3.76957E-25
9.78152E-01 3.61444E-25
9.79410E-01 3.46424E-25
9.80631E-01 3.31892E-25
9.81815E-01 3.17844E-25
9.82963E-01 3.04277E-25
9.84074E-01 2.91188E-25
9.85148E-01 2.78573E-25
9.86185E-01 2.66429E-25
9.87185E-01 2.54752E-25
9.88148E-01 2.43540E-25
9.89074E-01 2.32791E-25
9.89962E-01 2.22500E-25
9.90814E-01 2.12666E-25
9.91627E-01 2.03287E-25
9.92404E-01 1.94359E-25
9.93143E-01 1.85881E-25
9.93844E-01 1.77850E-25
9.94508E-01 1.70264E-25
9.95134E-01 1.63122E-25
9.95722E-01 1.56422E-25
9.96273E-01 1.50162E-25
9.96786E-01 1.44340E-25
9.97261E-01 1.38956E-25
9.97698E-01 1.34007E-25
9.98097E-01 1.29492E-25
9.98459E-01 1.25411E-25
9.98782E-01 1.21762E-25
9.99067E-01 1.18545E-25
9.99315E-01 1.15758E-25
9.99524E-01 1.13401E-25
9.99695E-01 1.11474E-25
9.99829E-01 1.09975E-25
9.99924E-01 1.08905E-25
9.99981E-01 1.08263E-25
1.00000E+00 1.08049E-25
