 #
 # Subroutine ELSEPA. Elastic scattering of electrons and positrons
 #                    by neutral atoms and positive ions
 #
 # Projectile: electron
 # Kinetic energy = 4.50000E+06 eV = 1.65372E+05 a.u.
 #
 # WARNING: High-energy factorization with free-atom DF screening.
 #          Absorption, polarization and exchange corrections are
 #          switched off.
 #          Phase shifts are calculated for the bare nucleus.
 #          Scattering amplitudes are not evaluated.
 #
 # Element:  W,  Z =  74,  atomic weight = 1.83840E+02 g/mol
 #
 # Nuclear model: Fermi distribution
 #                Average radius = 6.08411E-13 cm
 #                Skin thickness = 5.46000E-14 cm
 #
 # Number of electrons = 74
 #
 # Total elastic cross section = 7.60751E-18 cm**2 = 2.71669E-01 a0**2
 # 1st transport cross section = 3.61577E-22 cm**2 = 1.29121E-05 a0**2
 # 2nd transport cross section = 9.77056E-22 cm**2 = 3.48913E-05 a0**2
 #
 #
 # Differential cross section:                       MU=(1-COS(THETA))/2
 #
 #  THETA        MU          DCS          DCS        Sherman      error
 #  (deg)                 (cm**2/sr)   (a0**2/sr)    function
 #----------------------------------------------------------------------
0.00000E+00 1.43130E-12
7.61557E-13 1.43129E-12
1.18994E-12 1.43128E-12
1.71346E-12 1.43128E-12
2.33225E-12 1.43127E-12
3.04617E-12 1.43126E-12
3.85530E-12 1.43125E-12
4.75964E-12 1.43124E-12
5.75917E-12 1.43123E-12
6.85391E-12 1.43122E-12
8.04379E-12 1.43120E-12
9.32893E-12 1.43119E-12
1.07092E-11 1.43117E-12
1.21847E-11 1.43115E-12
1.37554E-11 1.43113E-12
1.54213E-11 1.43111E-12
1.71823E-11 1.43109E-12
1.90386E-11 1.43107E-12
2.09900E-11 1.43105E-12
2.30367E-11 1.43102E-12
2.51785E-11 1.43100E-12
2.74156E-11 1.43097E-12
2.97478E-11 1.43094E-12
3.21752E-11 1.43091E-12
3.46979E-11 1.43088E-12
3.73157E-11 1.43085E-12
4.00286E-11 1.43082E-12
4.28368E-11 1.43079E-12
4.57402E-11 1.43075E-12
4.87388E-11 1.43072E-12
5.18325E-11 1.43068E-12
5.50215E-11 1.43064E-12
5.83057E-11 1.43060E-12
6.16850E-11 1.43056E-12
6.51595E-11 1.43052E-12
6.87293E-11 1.43048E-12
7.23943E-11 1.43043E-12
7.61544E-11 1.43039E-12
1.18991E-10 1.42988E-12
1.71347E-10 1.42925E-12
2.33223E-10 1.42851E-12
3.04617E-10 1.42766E-12
3.85531E-10 1.42670E-12
4.75965E-10 1.42563E-12
5.75917E-10 1.42444E-12
6.85389E-10 1.42314E-12
8.04380E-10 1.42173E-12
9.32891E-10 1.42022E-12
1.07092E-09 1.41859E-12
1.21847E-09 1.41685E-12
1.37554E-09 1.41501E-12
1.54213E-09 1.41305E-12
1.71823E-09 1.41100E-12
1.90386E-09 1.40883E-12
2.09900E-09 1.40656E-12
2.30367E-09 1.40419E-12
2.51785E-09 1.40171E-12
2.74156E-09 1.39913E-12
2.97478E-09 1.39645E-12
3.21752E-09 1.39367E-12
3.46978E-09 1.39079E-12
3.73156E-09 1.38781E-12
4.00286E-09 1.38474E-12
4.28368E-09 1.38157E-12
4.57402E-09 1.37831E-12
4.87388E-09 1.37495E-12
5.18326E-09 1.37150E-12
5.50215E-09 1.36796E-12
5.83057E-09 1.36432E-12
6.16850E-09 1.36061E-12
6.51596E-09 1.35680E-12
6.87293E-09 1.35291E-12
7.23942E-09 1.34893E-12
7.61544E-09 1.34487E-12
1.18991E-08 1.29994E-12
1.71347E-08 1.24849E-12
2.33223E-08 1.19206E-12
3.04617E-08 1.13223E-12
3.85531E-08 1.07048E-12
4.75965E-08 1.00814E-12
5.75917E-08 9.46315E-13
6.85389E-08 8.85789E-13
8.04380E-08 8.27426E-13
9.32891E-08 7.71742E-13
1.07092E-07 7.19072E-13
1.21847E-07 6.69607E-13
1.37554E-07 6.23418E-13
1.54213E-07 5.80483E-13
1.71823E-07 5.40715E-13
1.90386E-07 5.03975E-13
2.09900E-07 4.70099E-13
2.30367E-07 4.38891E-13
2.51785E-07 4.10122E-13
2.74156E-07 3.83656E-13
2.97478E-07 3.59304E-13
3.21752E-07 3.36886E-13
3.46978E-07 3.16233E-13
3.73156E-07 2.97187E-13
4.00286E-07 2.79605E-13
4.28368E-07 2.63353E-13
4.57402E-07 2.48313E-13
4.87388E-07 2.34374E-13
5.18325E-07 2.21432E-13
5.50215E-07 2.09386E-13
5.83057E-07 1.98177E-13
6.16850E-07 1.87734E-13
6.51596E-07 1.77991E-13
6.87293E-07 1.68890E-13
7.23942E-07 1.60377E-13
7.61543E-07 1.52407E-13
1.18991E-06 9.35555E-14
1.71347E-06 6.13195E-14
2.33223E-06 4.18125E-14
3.04617E-06 2.94731E-14
3.85531E-06 2.13690E-14
4.75964E-06 1.58625E-14
5.75916E-06 1.20039E-14
6.85388E-06 9.21710E-15
8.04378E-06 7.17872E-15
9.32888E-06 5.66120E-15
1.07092E-05 4.51501E-15
1.21846E-05 3.63871E-15
1.37553E-05 2.96156E-15
1.54212E-05 2.43318E-15
1.71822E-05 2.01707E-15
1.90385E-05 1.68551E-15
2.09899E-05 1.42161E-15
2.30365E-05 1.20838E-15
2.51783E-05 1.03284E-15
2.74153E-05 8.88526E-16
2.97475E-05 7.69118E-16
3.21749E-05 6.69642E-16
3.46974E-05 5.86186E-16
3.73152E-05 5.15659E-16
4.00281E-05 4.55626E-16
4.28362E-05 4.04179E-16
4.57395E-05 3.59822E-16
4.87380E-05 3.21386E-16
5.18317E-05 2.87932E-16
5.50205E-05 2.58703E-16
5.83045E-05 2.33104E-16
6.16838E-05 2.10613E-16
6.51582E-05 1.90786E-16
6.87277E-05 1.73249E-16
7.23925E-05 1.57684E-16
7.61524E-05 1.43823E-16
9.21439E-05 1.01463E-16
1.09658E-04 7.35580E-17
1.28695E-04 5.46282E-17
1.49255E-04 4.14112E-17
1.71338E-04 3.19648E-17
1.94942E-04 2.50661E-17
2.20070E-04 1.99336E-17
2.46720E-04 1.60515E-17
2.74892E-04 1.30712E-17
3.04586E-04 1.07527E-17
3.35803E-04 8.92706E-18
3.68542E-04 7.47363E-18
4.02802E-04 6.30455E-18
4.38585E-04 5.35600E-18
4.75889E-04 4.57980E-18
5.14715E-04 3.93962E-18
5.55063E-04 3.40777E-18
5.96931E-04 2.96292E-18
6.40321E-04 2.58851E-18
6.85233E-04 2.27152E-18
7.31665E-04 2.00169E-18
7.79618E-04 1.77082E-18
8.29092E-04 1.57233E-18
8.80086E-04 1.40089E-18
9.32601E-04 1.25222E-18
9.86636E-04 1.12279E-18
1.04219E-03 1.00967E-18
1.09927E-03 9.10462E-19
1.15786E-03 8.23159E-19
1.21797E-03 7.46088E-19
1.27961E-03 6.77842E-19
1.34276E-03 6.17233E-19
1.40743E-03 5.63262E-19
1.47362E-03 5.15069E-19
1.54133E-03 4.71929E-19
1.61056E-03 4.33222E-19
1.68131E-03 3.98412E-19
1.75357E-03 3.67040E-19
1.82735E-03 3.38703E-19
1.90265E-03 3.13058E-19
1.97947E-03 2.89802E-19
2.05780E-03 2.68674E-19
2.13765E-03 2.49444E-19
2.21902E-03 2.31910E-19
2.30190E-03 2.15896E-19
2.38630E-03 2.01246E-19
2.47222E-03 1.87824E-19
2.55965E-03 1.75508E-19
2.64859E-03 1.64190E-19
2.73905E-03 1.53774E-19
2.83103E-03 1.44176E-19
2.92452E-03 1.35320E-19
3.01952E-03 1.27137E-19
3.11604E-03 1.19568E-19
3.21407E-03 1.12557E-19
3.31362E-03 1.06055E-19
3.41468E-03 1.00019E-19
3.51725E-03 9.44099E-20
3.62133E-03 8.91910E-20
3.72692E-03 8.43303E-20
3.83403E-03 7.97988E-20
3.94265E-03 7.55700E-20
4.05278E-03 7.16197E-20
4.16442E-03 6.79263E-20
4.27757E-03 6.44699E-20
4.39223E-03 6.12324E-20
4.50840E-03 5.81972E-20
4.62608E-03 5.53494E-20
4.74527E-03 5.26752E-20
4.86597E-03 5.01620E-20
4.98817E-03 4.77983E-20
5.11188E-03 4.55735E-20
5.23711E-03 4.34779E-20
5.36383E-03 4.15026E-20
5.49207E-03 3.96392E-20
5.62181E-03 3.78804E-20
5.75306E-03 3.62190E-20
5.88581E-03 3.46486E-20
6.02007E-03 3.31633E-20
6.15583E-03 3.17576E-20
6.29310E-03 3.04264E-20
6.43187E-03 2.91650E-20
6.57214E-03 2.79690E-20
6.71392E-03 2.68344E-20
6.85720E-03 2.57574E-20
7.00198E-03 2.47346E-20
7.14827E-03 2.37626E-20
7.29605E-03 2.28385E-20
7.44534E-03 2.19594E-20
7.59612E-03 2.11228E-20
7.97965E-03 1.92011E-20
8.37255E-03 1.74956E-20
8.77480E-03 1.59778E-20
9.18641E-03 1.46231E-20
9.60736E-03 1.34110E-20
1.00376E-02 1.23236E-20
1.04773E-02 1.13458E-20
1.09262E-02 1.04645E-20
1.13844E-02 9.66850E-21
1.18520E-02 8.94794E-21
1.23288E-02 8.29438E-21
1.28150E-02 7.70041E-21
1.33104E-02 7.15960E-21
1.38150E-02 6.66629E-21
1.43290E-02 6.21551E-21
1.48521E-02 5.80291E-21
1.53845E-02 5.42466E-21
1.59262E-02 5.07734E-21
1.64770E-02 4.75795E-21
1.70371E-02 4.46380E-21
1.76063E-02 4.19253E-21
1.81848E-02 3.94202E-21
1.87724E-02 3.71035E-21
1.93692E-02 3.49585E-21
1.99751E-02 3.29700E-21
2.05901E-02 3.11242E-21
2.12143E-02 2.94090E-21
2.18476E-02 2.78133E-21
2.24900E-02 2.63271E-21
2.31415E-02 2.49415E-21
2.38021E-02 2.36483E-21
2.44717E-02 2.24402E-21
2.51504E-02 2.13103E-21
2.58382E-02 2.02527E-21
2.65349E-02 1.92618E-21
2.72407E-02 1.83325E-21
2.79555E-02 1.74603E-21
2.86793E-02 1.66408E-21
2.94120E-02 1.58704E-21
3.01537E-02 1.51455E-21
3.09043E-02 1.44627E-21
3.16639E-02 1.38193E-21
3.24324E-02 1.32124E-21
3.32098E-02 1.26396E-21
3.39961E-02 1.20986E-21
3.47912E-02 1.15871E-21
3.55952E-02 1.11034E-21
3.64081E-02 1.06455E-21
3.72297E-02 1.02118E-21
3.80602E-02 9.80074E-22
3.88995E-02 9.41094E-22
3.97476E-02 9.04103E-22
4.06044E-02 8.68980E-22
4.14700E-02 8.35610E-22
4.23443E-02 8.03888E-22
4.32273E-02 7.73714E-22
4.41190E-02 7.44998E-22
4.50194E-02 7.17654E-22
4.59284E-02 6.91603E-22
4.68461E-02 6.66771E-22
4.87074E-02 6.20490E-22
5.06030E-02 5.78313E-22
5.25328E-02 5.39801E-22
5.44967E-02 5.04571E-22
5.64946E-02 4.72286E-22
5.85262E-02 4.42649E-22
6.05914E-02 4.15399E-22
6.26901E-02 3.90303E-22
6.48222E-02 3.67156E-22
6.69873E-02 3.45775E-22
6.91854E-02 3.25996E-22
7.14163E-02 3.07674E-22
7.36799E-02 2.90680E-22
7.59760E-02 2.74895E-22
7.83043E-02 2.60216E-22
8.06647E-02 2.46549E-22
8.30571E-02 2.33809E-22
8.54812E-02 2.21919E-22
8.79369E-02 2.10810E-22
9.04240E-02 2.00421E-22
9.29422E-02 1.90693E-22
9.54915E-02 1.81576E-22
9.80716E-02 1.73023E-22
1.00682E-01 1.64991E-22
1.03323E-01 1.57442E-22
1.05995E-01 1.50339E-22
1.08696E-01 1.43651E-22
1.11427E-01 1.37348E-22
1.14188E-01 1.31403E-22
1.16978E-01 1.25792E-22
1.19797E-01 1.20490E-22
1.22645E-01 1.15477E-22
1.25522E-01 1.10734E-22
1.28428E-01 1.06243E-22
1.31361E-01 1.01987E-22
1.34323E-01 9.79518E-23
1.37313E-01 9.41228E-23
1.40330E-01 9.04871E-23
1.43375E-01 8.70327E-23
1.46447E-01 8.37485E-23
1.49545E-01 8.06242E-23
1.52671E-01 7.76501E-23
1.55823E-01 7.48175E-23
1.59001E-01 7.21179E-23
1.62205E-01 6.95437E-23
1.65435E-01 6.70876E-23
1.68690E-01 6.47431E-23
1.71970E-01 6.25038E-23
1.75276E-01 6.03640E-23
1.78606E-01 5.83181E-23
1.81961E-01 5.63611E-23
1.85340E-01 5.44882E-23
1.88743E-01 5.26949E-23
1.92169E-01 5.09770E-23
1.95619E-01 4.93307E-23
1.99092E-01 4.77522E-23
2.02589E-01 4.62381E-23
2.06107E-01 4.47852E-23
2.09649E-01 4.33903E-23
2.13212E-01 4.20506E-23
2.16797E-01 4.07635E-23
2.20404E-01 3.95263E-23
2.24032E-01 3.83366E-23
2.27680E-01 3.71922E-23
2.31350E-01 3.60910E-23
2.35040E-01 3.50309E-23
2.38751E-01 3.40101E-23
2.42481E-01 3.30267E-23
2.46231E-01 3.20791E-23
2.50000E-01 3.11655E-23
2.53788E-01 3.02846E-23
2.57595E-01 2.94349E-23
2.61421E-01 2.86149E-23
2.65264E-01 2.78234E-23
2.69126E-01 2.70593E-23
2.73005E-01 2.63212E-23
2.76901E-01 2.56081E-23
2.80814E-01 2.49190E-23
2.84744E-01 2.42529E-23
2.88691E-01 2.36088E-23
2.92653E-01 2.29857E-23
2.96632E-01 2.23830E-23
3.00625E-01 2.17997E-23
3.04634E-01 2.12350E-23
3.08658E-01 2.06883E-23
3.12697E-01 2.01587E-23
3.16749E-01 1.96458E-23
3.20816E-01 1.91487E-23
3.24896E-01 1.86670E-23
3.28990E-01 1.81999E-23
3.33097E-01 1.77470E-23
3.37216E-01 1.73077E-23
3.41348E-01 1.68816E-23
3.45492E-01 1.64681E-23
3.49647E-01 1.60668E-23
3.53814E-01 1.56772E-23
3.57992E-01 1.52989E-23
3.62181E-01 1.49315E-23
3.66381E-01 1.45746E-23
3.70590E-01 1.42279E-23
3.74810E-01 1.38909E-23
3.79039E-01 1.35634E-23
3.83277E-01 1.32450E-23
3.87524E-01 1.29355E-23
3.91780E-01 1.26344E-23
3.96044E-01 1.23415E-23
4.00316E-01 1.20566E-23
4.04596E-01 1.17794E-23
4.08882E-01 1.15096E-23
4.13176E-01 1.12470E-23
4.17476E-01 1.09913E-23
4.21783E-01 1.07423E-23
4.26095E-01 1.04998E-23
4.30413E-01 1.02636E-23
4.34737E-01 1.00335E-23
4.39065E-01 9.80933E-24
4.43398E-01 9.59086E-24
4.47736E-01 9.37792E-24
4.52077E-01 9.17033E-24
4.56422E-01 8.96794E-24
4.60770E-01 8.77059E-24
4.65122E-01 8.57812E-24
4.69476E-01 8.39040E-24
4.73832E-01 8.20727E-24
4.78190E-01 8.02860E-24
4.82550E-01 7.85425E-24
4.86912E-01 7.68410E-24
4.91274E-01 7.51802E-24
4.95637E-01 7.35589E-24
5.00000E-01 7.19761E-24
5.04363E-01 7.04306E-24
5.08726E-01 6.89213E-24
5.13088E-01 6.74472E-24
5.17450E-01 6.60073E-24
5.21810E-01 6.46007E-24
5.26168E-01 6.32263E-24
5.30524E-01 6.18834E-24
5.34878E-01 6.05710E-24
5.39230E-01 5.92883E-24
5.43578E-01 5.80345E-24
5.47923E-01 5.68089E-24
5.52264E-01 5.56106E-24
5.56602E-01 5.44389E-24
5.60935E-01 5.32931E-24
5.65263E-01 5.21725E-24
5.69587E-01 5.10764E-24
5.73905E-01 5.00043E-24
5.78217E-01 4.89554E-24
5.82524E-01 4.79293E-24
5.86824E-01 4.69252E-24
5.91118E-01 4.59426E-24
5.95404E-01 4.49810E-24
5.99684E-01 4.40399E-24
6.03956E-01 4.31187E-24
6.08220E-01 4.22169E-24
6.12476E-01 4.13340E-24
6.16723E-01 4.04696E-24
6.20961E-01 3.96232E-24
6.25190E-01 3.87944E-24
6.29410E-01 3.79827E-24
6.33619E-01 3.71878E-24
6.37819E-01 3.64092E-24
6.42008E-01 3.56465E-24
6.46186E-01 3.48993E-24
6.50353E-01 3.41673E-24
6.54508E-01 3.34501E-24
6.58652E-01 3.27474E-24
6.62784E-01 3.20588E-24
6.66903E-01 3.13840E-24
6.71010E-01 3.07227E-24
6.75104E-01 3.00745E-24
6.79184E-01 2.94392E-24
6.83251E-01 2.88165E-24
6.87303E-01 2.82060E-24
6.91342E-01 2.76076E-24
6.95366E-01 2.70209E-24
6.99375E-01 2.64457E-24
7.03368E-01 2.58817E-24
7.07347E-01 2.53286E-24
7.11309E-01 2.47863E-24
7.15256E-01 2.42545E-24
7.19186E-01 2.37330E-24
7.23099E-01 2.32215E-24
7.26995E-01 2.27198E-24
7.30874E-01 2.22278E-24
7.34736E-01 2.17451E-24
7.38579E-01 2.12717E-24
7.42405E-01 2.08073E-24
7.46212E-01 2.03517E-24
7.50000E-01 1.99048E-24
7.53769E-01 1.94663E-24
7.57519E-01 1.90362E-24
7.61249E-01 1.86141E-24
7.64960E-01 1.82000E-24
7.68650E-01 1.77937E-24
7.72320E-01 1.73951E-24
7.75968E-01 1.70039E-24
7.79596E-01 1.66200E-24
7.83203E-01 1.62434E-24
7.86788E-01 1.58738E-24
7.90351E-01 1.55111E-24
7.93893E-01 1.51552E-24
7.97411E-01 1.48059E-24
8.00908E-01 1.44632E-24
8.04381E-01 1.41268E-24
8.07831E-01 1.37967E-24
8.11257E-01 1.34728E-24
8.14660E-01 1.31549E-24
8.18039E-01 1.28429E-24
8.21394E-01 1.25367E-24
8.24724E-01 1.22362E-24
8.28030E-01 1.19413E-24
8.31310E-01 1.16520E-24
8.34565E-01 1.13680E-24
8.37795E-01 1.10893E-24
8.40999E-01 1.08159E-24
8.44177E-01 1.05475E-24
8.47329E-01 1.02842E-24
8.50455E-01 1.00258E-24
8.53553E-01 9.77223E-25
8.56625E-01 9.52345E-25
8.59670E-01 9.27936E-25
8.62687E-01 9.03986E-25
8.65677E-01 8.80490E-25
8.68639E-01 8.57438E-25
8.71572E-01 8.34824E-25
8.74478E-01 8.12641E-25
8.77355E-01 7.90880E-25
8.80203E-01 7.69537E-25
8.83022E-01 7.48602E-25
8.85812E-01 7.28072E-25
8.88573E-01 7.07937E-25
8.91304E-01 6.88194E-25
8.94005E-01 6.68834E-25
8.96677E-01 6.49853E-25
8.99318E-01 6.31245E-25
9.01928E-01 6.13004E-25
9.04508E-01 5.95124E-25
9.07058E-01 5.77599E-25
9.09576E-01 5.60426E-25
9.12063E-01 5.43598E-25
9.14519E-01 5.27111E-25
9.16943E-01 5.10960E-25
9.19335E-01 4.95140E-25
9.21696E-01 4.79646E-25
9.24024E-01 4.64473E-25
9.26320E-01 4.49618E-25
9.28584E-01 4.35076E-25
9.30815E-01 4.20843E-25
9.33013E-01 4.06915E-25
9.35178E-01 3.93287E-25
9.37310E-01 3.79956E-25
9.39409E-01 3.66918E-25
9.41474E-01 3.54169E-25
9.43505E-01 3.41706E-25
9.45503E-01 3.29525E-25
9.47467E-01 3.17623E-25
9.49397E-01 3.05997E-25
9.51293E-01 2.94642E-25
9.53154E-01 2.83557E-25
9.54981E-01 2.72737E-25
9.56773E-01 2.62181E-25
9.58530E-01 2.51885E-25
9.60252E-01 2.41846E-25
9.61940E-01 2.32061E-25
9.63592E-01 2.22528E-25
9.65209E-01 2.13245E-25
9.66790E-01 2.04208E-25
9.68336E-01 1.95415E-25
9.69846E-01 1.86864E-25
9.71321E-01 1.78553E-25
9.72759E-01 1.70479E-25
9.74162E-01 1.62641E-25
9.75528E-01 1.55035E-25
9.76858E-01 1.47661E-25
9.78152E-01 1.40516E-25
9.79410E-01 1.33597E-25
9.80631E-01 1.26905E-25
9.81815E-01 1.20436E-25
9.82963E-01 1.14189E-25
9.84074E-01 1.08162E-25
9.85148E-01 1.02353E-25
9.86185E-01 9.67624E-26
9.87185E-01 9.13870E-26
9.88148E-01 8.62260E-26
9.89074E-01 8.12778E-26
9.89962E-01 7.65414E-26
9.90814E-01 7.20153E-26
9.91627E-01 6.76986E-26
9.92404E-01 6.35899E-26
9.93143E-01 5.96884E-26
9.93844E-01 5.59929E-26
9.94508E-01 5.25025E-26
9.95134E-01 4.92163E-26
9.95722E-01 4.61335E-26
9.96273E-01 4.32532E-26
9.96786E-01 4.05748E-26
9.97261E-01 3.80976E-26
9.97698E-01 3.58208E-26
9.98097E-01 3.37440E-26
9.98459E-01 3.18665E-26
9.98782E-01 3.01880E-26
9.99067E-01 2.87079E-26
9.99315E-01 2.74260E-26
9.99524E-01 2.63418E-26
9.99695E-01 2.54552E-26
9.99829E-01 2.47658E-26
9.99924E-01 2.42735E-26
9.99981E-01 2.39781E-26
1.00000E+00 2.38797E-26
