 #
 # Subroutine ELSEPA. Elastic scattering of electrons and positrons
 #                    by neutral atoms and positive ions
 #
 # Projectile: electron
 # Kinetic energy = 1.00000E+08 eV = 3.67493E+06 a.u.
 #
 # WARNING: High-energy factorization with free-atom DF screening.
 #          Absorption, polarization and exchange corrections are
 #          switched off.
 #          Phase shifts are calculated for the bare nucleus.
 #          Scattering amplitudes are not evaluated.
 #
 # Element:  W,  Z =  74,  atomic weight = 1.83840E+02 g/mol
 #
 # Nuclear model: Fermi distribution
 #                Average radius = 6.08411E-13 cm
 #                Skin thickness = 5.46000E-14 cm
 #
 # Number of electrons = 74
 #
 # Total elastic cross section = 7.52209E-18 cm**2 = 2.68619E-01 a0**2
 # 1st transport cross section = 1.03907E-24 cm**2 = 3.71059E-08 a0**2
 # 2nd transport cross section = 3.09264E-24 cm**2 = 1.10440E-07 a0**2
 #
 #
 # Differential cross section:                       MU=(1-COS(THETA))/2
 #
 #  THETA        MU          DCS          DCS        Sherman      error
 #  (deg)                 (cm**2/sr)   (a0**2/sr)    function
 #----------------------------------------------------------------------
0.00000E+00 5.75849E-10
7.61557E-13 5.74355E-10
1.18994E-12 5.73520E-10
1.71346E-12 5.72502E-10
2.33225E-12 5.71304E-10
3.04617E-12 5.69927E-10
3.85530E-12 5.68373E-10
4.75964E-12 5.66645E-10
5.75917E-12 5.64745E-10
6.85391E-12 5.62677E-10
8.04379E-12 5.60444E-10
9.32893E-12 5.58049E-10
1.07092E-11 5.55496E-10
1.21847E-11 5.52789E-10
1.37554E-11 5.49931E-10
1.54213E-11 5.46928E-10
1.71823E-11 5.43784E-10
1.90386E-11 5.40502E-10
2.09900E-11 5.37088E-10
2.30367E-11 5.33542E-10
2.51785E-11 5.29852E-10
2.74156E-11 5.26055E-10
2.97478E-11 5.22160E-10
3.21752E-11 5.18173E-10
3.46979E-11 5.14099E-10
3.73157E-11 5.09883E-10
4.00286E-11 5.05567E-10
4.28368E-11 5.01182E-10
4.57402E-11 4.96734E-10
4.87388E-11 4.92229E-10
5.18325E-11 4.87649E-10
5.50215E-11 4.82941E-10
5.83057E-11 4.78195E-10
6.16850E-11 4.73415E-10
6.51595E-11 4.68608E-10
6.87293E-11 4.63778E-10
7.23943E-11 4.58835E-10
7.61544E-11 4.53854E-10
1.18991E-10 4.03470E-10
1.71347E-10 3.53994E-10
2.33223E-10 3.07955E-10
3.04617E-10 2.66835E-10
3.85531E-10 2.31042E-10
4.75965E-10 2.00382E-10
5.75917E-10 1.74352E-10
6.85389E-10 1.52329E-10
8.04380E-10 1.33669E-10
9.32891E-10 1.17847E-10
1.07092E-09 1.04372E-10
1.21847E-09 9.28385E-11
1.37554E-09 8.29110E-11
1.54213E-09 7.43155E-11
1.71823E-09 6.68241E-11
1.90386E-09 6.02739E-11
2.09900E-09 5.45199E-11
2.30367E-09 4.93741E-11
2.51785E-09 4.45616E-11
2.74156E-09 4.04582E-11
2.97478E-09 3.69383E-11
3.21752E-09 3.39016E-11
3.46978E-09 3.12676E-11
3.73156E-09 2.86553E-11
4.00286E-09 2.62572E-11
4.28368E-09 2.41624E-11
4.57402E-09 2.23242E-11
4.87388E-09 2.07044E-11
5.18326E-09 1.92187E-11
5.50215E-09 1.77509E-11
5.83057E-09 1.64494E-11
6.16850E-09 1.52912E-11
6.51596E-09 1.42570E-11
6.87293E-09 1.33306E-11
7.23942E-09 1.24191E-11
7.61544E-09 1.15800E-11
1.18991E-08 6.21872E-12
1.71347E-08 3.61219E-12
2.33223E-08 2.21388E-12
3.04617E-08 1.42055E-12
3.85531E-08 9.48811E-13
4.75965E-08 6.57133E-13
5.75917E-08 4.70344E-13
6.85389E-08 3.45818E-13
8.04380E-08 2.60697E-13
9.32891E-08 2.00704E-13
1.07092E-07 1.57187E-13
1.21847E-07 1.24891E-13
1.37554E-07 1.00498E-13
1.54213E-07 8.17985E-14
1.71823E-07 6.72530E-14
1.90386E-07 5.57950E-14
2.09900E-07 4.66652E-14
2.30367E-07 3.93131E-14
2.51785E-07 3.33349E-14
2.74156E-07 2.84932E-14
2.97478E-07 2.44607E-14
3.21752E-07 2.11398E-14
3.46978E-07 1.83493E-14
3.73156E-07 1.60114E-14
4.00286E-07 1.40311E-14
4.28368E-07 1.23486E-14
4.57402E-07 1.09116E-14
4.87388E-07 9.67566E-15
5.18325E-07 8.61236E-15
5.50215E-07 7.68848E-15
5.83057E-07 6.88812E-15
6.16850E-07 6.18640E-15
6.51596E-07 5.57406E-15
6.87293E-07 5.03401E-15
7.23942E-07 4.55893E-15
7.61543E-07 4.13804E-15
1.18991E-06 1.75644E-15
1.71347E-06 8.68054E-16
2.33223E-06 4.76839E-16
3.04617E-06 2.83069E-16
3.85531E-06 1.78389E-16
4.75964E-06 1.17890E-16
5.75916E-06 8.09863E-17
6.85388E-06 5.74553E-17
8.04378E-06 4.18832E-17
9.32888E-06 3.12486E-17
1.07092E-05 2.37862E-17
1.21846E-05 1.84253E-17
1.37553E-05 1.44938E-17
1.54212E-05 1.15576E-17
1.71822E-05 9.32905E-18
1.90385E-05 7.60866E-18
2.09899E-05 6.27448E-18
2.30365E-05 5.21952E-18
2.51783E-05 4.37609E-18
2.74153E-05 3.69543E-18
2.97475E-05 3.14164E-18
3.21749E-05 2.68779E-18
3.46974E-05 2.31325E-18
3.73152E-05 2.00202E-18
4.00281E-05 1.74163E-18
4.28362E-05 1.52233E-18
4.57395E-05 1.33648E-18
4.87380E-05 1.17808E-18
5.18317E-05 1.04240E-18
5.50205E-05 9.25641E-19
5.83045E-05 8.24764E-19
6.16838E-05 7.37272E-19
6.51582E-05 6.61105E-19
6.87277E-05 5.94550E-19
7.23925E-05 5.36181E-19
7.61524E-05 4.85045E-19
9.21439E-05 3.31979E-19
1.09658E-04 2.34821E-19
1.28695E-04 1.70783E-19
1.49255E-04 1.27169E-19
1.71338E-04 9.66488E-20
1.94942E-04 7.47682E-20
2.20070E-04 5.87522E-20
2.46720E-04 4.68106E-20
2.74892E-04 3.77594E-20
3.04586E-04 3.07981E-20
3.35803E-04 2.53727E-20
3.68542E-04 2.10938E-20
4.02802E-04 1.76822E-20
4.38585E-04 1.49350E-20
4.75889E-04 1.27026E-20
5.14715E-04 1.08734E-20
5.55063E-04 9.36293E-21
5.96931E-04 8.10670E-21
6.40321E-04 7.05498E-21
6.85233E-04 6.16900E-21
7.31665E-04 5.41835E-21
7.79618E-04 4.77891E-21
8.29092E-04 4.23144E-21
8.80086E-04 3.76049E-21
9.32601E-04 3.35354E-21
9.86636E-04 3.00042E-21
1.04219E-03 2.69278E-21
1.09927E-03 2.42375E-21
1.15786E-03 2.18765E-21
1.21797E-03 1.97974E-21
1.27961E-03 1.79607E-21
1.34276E-03 1.63331E-21
1.40743E-03 1.48867E-21
1.47362E-03 1.35976E-21
1.54133E-03 1.24458E-21
1.61056E-03 1.14140E-21
1.68131E-03 1.04874E-21
1.75357E-03 9.65349E-22
1.82735E-03 8.90120E-22
1.90265E-03 8.22115E-22
1.97947E-03 7.60513E-22
2.05780E-03 7.04603E-22
2.13765E-03 6.53762E-22
2.21902E-03 6.07446E-22
2.30190E-03 5.65180E-22
2.38630E-03 5.26545E-22
2.47222E-03 4.91172E-22
2.55965E-03 4.58736E-22
2.64859E-03 4.28937E-22
2.73905E-03 4.01524E-22
2.83103E-03 3.76274E-22
2.92452E-03 3.52986E-22
3.01952E-03 3.31479E-22
3.11604E-03 3.11590E-22
3.21407E-03 2.93175E-22
3.31362E-03 2.76105E-22
3.41468E-03 2.60262E-22
3.51725E-03 2.45543E-22
3.62133E-03 2.31852E-22
3.72692E-03 2.19104E-22
3.83403E-03 2.07222E-22
3.94265E-03 1.96135E-22
4.05278E-03 1.85781E-22
4.16442E-03 1.76103E-22
4.27757E-03 1.67046E-22
4.39223E-03 1.58565E-22
4.50840E-03 1.50615E-22
4.62608E-03 1.43158E-22
4.74527E-03 1.36156E-22
4.86597E-03 1.29576E-22
4.98817E-03 1.23389E-22
5.11188E-03 1.17566E-22
5.23711E-03 1.12081E-22
5.36383E-03 1.06913E-22
5.49207E-03 1.02037E-22
5.62181E-03 9.74362E-23
5.75306E-03 9.30906E-23
5.88581E-03 8.89836E-23
6.02007E-03 8.50996E-23
6.15583E-03 8.14243E-23
6.29310E-03 7.79442E-23
6.43187E-03 7.46471E-23
6.57214E-03 7.15214E-23
6.71392E-03 6.85566E-23
6.85720E-03 6.57427E-23
7.00198E-03 6.30707E-23
7.14827E-03 6.05320E-23
7.29605E-03 5.81187E-23
7.44534E-03 5.58234E-23
7.59612E-03 5.36392E-23
7.97965E-03 4.86240E-23
8.37255E-03 4.41755E-23
8.77480E-03 4.02185E-23
9.18641E-03 3.66892E-23
9.60736E-03 3.35331E-23
1.00376E-02 3.07041E-23
1.04773E-02 2.81621E-23
1.09262E-02 2.58731E-23
1.13844E-02 2.38074E-23
1.18520E-02 2.19394E-23
1.23288E-02 2.02469E-23
1.28150E-02 1.87106E-23
1.33104E-02 1.73135E-23
1.38150E-02 1.60408E-23
1.43290E-02 1.48796E-23
1.48521E-02 1.38183E-23
1.53845E-02 1.28470E-23
1.59262E-02 1.19566E-23
1.64770E-02 1.11393E-23
1.70371E-02 1.03880E-23
1.76063E-02 9.69651E-24
1.81848E-02 9.05928E-24
1.87724E-02 8.47132E-24
1.93692E-02 7.92818E-24
1.99751E-02 7.42587E-24
2.05901E-02 6.96082E-24
2.12143E-02 6.52980E-24
2.18476E-02 6.12992E-24
2.24900E-02 5.75855E-24
2.31415E-02 5.41334E-24
2.38021E-02 5.09215E-24
2.44717E-02 4.79303E-24
2.51504E-02 4.51422E-24
2.58382E-02 4.25414E-24
2.65349E-02 4.01132E-24
2.72407E-02 3.78444E-24
2.79555E-02 3.57229E-24
2.86793E-02 3.37377E-24
2.94120E-02 3.18786E-24
3.01537E-02 3.01365E-24
3.09043E-02 2.85029E-24
3.16639E-02 2.69700E-24
3.24324E-02 2.55307E-24
3.32098E-02 2.41785E-24
3.39961E-02 2.29072E-24
3.47912E-02 2.17114E-24
3.55952E-02 2.05860E-24
3.64081E-02 1.95262E-24
3.72297E-02 1.85276E-24
3.80602E-02 1.75863E-24
3.88995E-02 1.66985E-24
3.97476E-02 1.58607E-24
4.06044E-02 1.50698E-24
4.14700E-02 1.43228E-24
4.23443E-02 1.36168E-24
4.32273E-02 1.29495E-24
4.41190E-02 1.23183E-24
4.50194E-02 1.17212E-24
4.59284E-02 1.11559E-24
4.68461E-02 1.06206E-24
4.87074E-02 9.63311E-25
5.06030E-02 8.74565E-25
5.25328E-02 7.94700E-25
5.44967E-02 7.22732E-25
5.64946E-02 6.57800E-25
5.85262E-02 5.99144E-25
6.05914E-02 5.46099E-25
6.26901E-02 4.98076E-25
6.48222E-02 4.54555E-25
6.69873E-02 4.15077E-25
6.91854E-02 3.79234E-25
7.14163E-02 3.46661E-25
7.36799E-02 3.17038E-25
7.59760E-02 2.90075E-25
7.83043E-02 2.65517E-25
8.06647E-02 2.43132E-25
8.30571E-02 2.22716E-25
8.54812E-02 2.04083E-25
8.79369E-02 1.87068E-25
9.04240E-02 1.71522E-25
9.29422E-02 1.57310E-25
9.54915E-02 1.44312E-25
9.80716E-02 1.32419E-25
1.00682E-01 1.21532E-25
1.03323E-01 1.11562E-25
1.05995E-01 1.02428E-25
1.08696E-01 9.40573E-26
1.11427E-01 8.63836E-26
1.14188E-01 7.93467E-26
1.16978E-01 7.28920E-26
1.19797E-01 6.69697E-26
1.22645E-01 6.15346E-26
1.25522E-01 5.65457E-26
1.28428E-01 5.19652E-26
1.31361E-01 4.77592E-26
1.34323E-01 4.38963E-26
1.37313E-01 4.03480E-26
1.40330E-01 3.70884E-26
1.43375E-01 3.40935E-26
1.46447E-01 3.13417E-26
1.49545E-01 2.88130E-26
1.52671E-01 2.64893E-26
1.55823E-01 2.43536E-26
1.59001E-01 2.23909E-26
1.62205E-01 2.05870E-26
1.65435E-01 1.89291E-26
1.68690E-01 1.74053E-26
1.71970E-01 1.60048E-26
1.75276E-01 1.47177E-26
1.78606E-01 1.35349E-26
1.81961E-01 1.24479E-26
1.85340E-01 1.14490E-26
1.88743E-01 1.05311E-26
1.92169E-01 9.68773E-27
1.95619E-01 8.91290E-27
1.99092E-01 8.20108E-27
2.02589E-01 7.54721E-27
2.06107E-01 6.94661E-27
2.09649E-01 6.39500E-27
2.13212E-01 5.88843E-27
2.16797E-01 5.42327E-27
2.20404E-01 4.99617E-27
2.24032E-01 4.60405E-27
2.27680E-01 4.24409E-27
2.31350E-01 3.91367E-27
2.35040E-01 3.61040E-27
2.38751E-01 3.33206E-27
2.42481E-01 3.07663E-27
2.46231E-01 2.84224E-27
2.50000E-01 2.62715E-27
2.53788E-01 2.42980E-27
2.57595E-01 2.24872E-27
2.61421E-01 2.08256E-27
2.65264E-01 1.93010E-27
2.69126E-01 1.79021E-27
2.73005E-01 1.66183E-27
2.76901E-01 1.54402E-27
2.80814E-01 1.43588E-27
2.84744E-01 1.33660E-27
2.88691E-01 1.24546E-27
2.92653E-01 1.16175E-27
2.96632E-01 1.08485E-27
3.00625E-01 1.01418E-27
3.04634E-01 9.49224E-28
3.08658E-01 8.89483E-28
3.12697E-01 8.34516E-28
3.16749E-01 7.83914E-28
3.20816E-01 7.37303E-28
3.24896E-01 6.94338E-28
3.28990E-01 6.54707E-28
3.33097E-01 6.18121E-28
3.37216E-01 5.84316E-28
3.41348E-01 5.53052E-28
3.45492E-01 5.24109E-28
3.49647E-01 4.97284E-28
3.53814E-01 4.72394E-28
3.57992E-01 4.49270E-28
3.62181E-01 4.27760E-28
3.66381E-01 4.07724E-28
3.70590E-01 3.89032E-28
3.74810E-01 3.71571E-28
3.79039E-01 3.55233E-28
3.83277E-01 3.39921E-28
3.87524E-01 3.25549E-28
3.91780E-01 3.12037E-28
3.96044E-01 2.99311E-28
4.00316E-01 2.87306E-28
4.04596E-01 2.75962E-28
4.08882E-01 2.65226E-28
4.13176E-01 2.55046E-28
4.17476E-01 2.45380E-28
4.21783E-01 2.36186E-28
4.26095E-01 2.27428E-28
4.30413E-01 2.19073E-28
4.34737E-01 2.11090E-28
4.39065E-01 2.03453E-28
4.43398E-01 1.96137E-28
4.47736E-01 1.89119E-28
4.52077E-01 1.82381E-28
4.56422E-01 1.75903E-28
4.60770E-01 1.69669E-28
4.65122E-01 1.63664E-28
4.69476E-01 1.57876E-28
4.73832E-01 1.52291E-28
4.78190E-01 1.46899E-28
4.82550E-01 1.41690E-28
4.86912E-01 1.36655E-28
4.91274E-01 1.31785E-28
4.95637E-01 1.27074E-28
5.00000E-01 1.22514E-28
5.04363E-01 1.18099E-28
5.08726E-01 1.13824E-28
5.13088E-01 1.09683E-28
5.17450E-01 1.05672E-28
5.21810E-01 1.01786E-28
5.26168E-01 9.80208E-29
5.30524E-01 9.43730E-29
5.34878E-01 9.08389E-29
5.39230E-01 8.74152E-29
5.43578E-01 8.40988E-29
5.47923E-01 8.08866E-29
5.52264E-01 7.77760E-29
5.56602E-01 7.47643E-29
5.60935E-01 7.18488E-29
5.65263E-01 6.90272E-29
5.69587E-01 6.62972E-29
5.73905E-01 6.36563E-29
5.78217E-01 6.11025E-29
5.82524E-01 5.86335E-29
5.86824E-01 5.62473E-29
5.91118E-01 5.39419E-29
5.95404E-01 5.17152E-29
5.99684E-01 4.95653E-29
6.03956E-01 4.74902E-29
6.08220E-01 4.54881E-29
6.12476E-01 4.35571E-29
6.16723E-01 4.16953E-29
6.20961E-01 3.99009E-29
6.25190E-01 3.81721E-29
6.29410E-01 3.65072E-29
6.33619E-01 3.49043E-29
6.37819E-01 3.33619E-29
6.42008E-01 3.18782E-29
6.46186E-01 3.04514E-29
6.50353E-01 2.90800E-29
6.54508E-01 2.77623E-29
6.58652E-01 2.64967E-29
6.62784E-01 2.52817E-29
6.66903E-01 2.41156E-29
6.71010E-01 2.29970E-29
6.75104E-01 2.19242E-29
6.79184E-01 2.08959E-29
6.83251E-01 1.99106E-29
6.87303E-01 1.89669E-29
6.91342E-01 1.80633E-29
6.95366E-01 1.71985E-29
6.99375E-01 1.63711E-29
7.03368E-01 1.55798E-29
7.07347E-01 1.48233E-29
7.11309E-01 1.41004E-29
7.15256E-01 1.34099E-29
7.19186E-01 1.27505E-29
7.23099E-01 1.21211E-29
7.26995E-01 1.15204E-29
7.30874E-01 1.09476E-29
7.34736E-01 1.04013E-29
7.38579E-01 9.88062E-30
7.42405E-01 9.38451E-30
7.46212E-01 8.91197E-30
7.50000E-01 8.46204E-30
7.53769E-01 8.03377E-30
7.57519E-01 7.62628E-30
7.61249E-01 7.23867E-30
7.64960E-01 6.87010E-30
7.68650E-01 6.51975E-30
7.72320E-01 6.18682E-30
7.75968E-01 5.87055E-30
7.79596E-01 5.57019E-30
7.83203E-01 5.28503E-30
7.86788E-01 5.01438E-30
7.90351E-01 4.75756E-30
7.93893E-01 4.51395E-30
7.97411E-01 4.28292E-30
8.00908E-01 4.06389E-30
8.04381E-01 3.85627E-30
8.07831E-01 3.65952E-30
8.11257E-01 3.47312E-30
8.14660E-01 3.29655E-30
8.18039E-01 3.12933E-30
8.21394E-01 2.97101E-30
8.24724E-01 2.82112E-30
8.28030E-01 2.67924E-30
8.31310E-01 2.54497E-30
8.34565E-01 2.41790E-30
8.37795E-01 2.29768E-30
8.40999E-01 2.18393E-30
8.44177E-01 2.07633E-30
8.47329E-01 1.97453E-30
8.50455E-01 1.87824E-30
8.53553E-01 1.78715E-30
8.56625E-01 1.70098E-30
8.59670E-01 1.61946E-30
8.62687E-01 1.54234E-30
8.65677E-01 1.46936E-30
8.68639E-01 1.40031E-30
8.71572E-01 1.33495E-30
8.74478E-01 1.27309E-30
8.77355E-01 1.21451E-30
8.80203E-01 1.15903E-30
8.83022E-01 1.10647E-30
8.85812E-01 1.05667E-30
8.88573E-01 1.00946E-30
8.91304E-01 9.64687E-31
8.94005E-01 9.22210E-31
8.96677E-01 8.81894E-31
8.99318E-01 8.43609E-31
9.01928E-01 8.07235E-31
9.04508E-01 7.72656E-31
9.07058E-01 7.39765E-31
9.09576E-01 7.08460E-31
9.12063E-01 6.78645E-31
9.14519E-01 6.50231E-31
9.16943E-01 6.23133E-31
9.19335E-01 5.97271E-31
9.21696E-01 5.72570E-31
9.24024E-01 5.48960E-31
9.26320E-01 5.26376E-31
9.28584E-01 5.04755E-31
9.30815E-01 4.84041E-31
9.33013E-01 4.64180E-31
9.35178E-01 4.45120E-31
9.37310E-01 4.26816E-31
9.39409E-01 4.09223E-31
9.41474E-01 3.92300E-31
9.43505E-01 3.76010E-31
9.45503E-01 3.60318E-31
9.47467E-01 3.45189E-31
9.49397E-01 3.30595E-31
9.51293E-01 3.16507E-31
9.53154E-01 3.02898E-31
9.54981E-01 2.89745E-31
9.56773E-01 2.77026E-31
9.58530E-01 2.64721E-31
9.60252E-01 2.52809E-31
9.61940E-01 2.41275E-31
9.63592E-01 2.30102E-31
9.65209E-01 2.19275E-31
9.66790E-01 2.08783E-31
9.68336E-01 1.98612E-31
9.69846E-01 1.88752E-31
9.71321E-01 1.79193E-31
9.72759E-01 1.69925E-31
9.74162E-01 1.60941E-31
9.75528E-01 1.52234E-31
9.76858E-01 1.43798E-31
9.78152E-01 1.35625E-31
9.79410E-01 1.27712E-31
9.80631E-01 1.20053E-31
9.81815E-01 1.12645E-31
9.82963E-01 1.05485E-31
9.84074E-01 9.85687E-32
9.85148E-01 9.18941E-32
9.86185E-01 8.54591E-32
9.87185E-01 7.92617E-32
9.88148E-01 7.33004E-32
9.89074E-01 6.75739E-32
9.89962E-01 6.20813E-32
9.90814E-01 5.68219E-32
9.91627E-01 5.17950E-32
9.92404E-01 4.70001E-32
9.93143E-01 4.24373E-32
9.93844E-01 3.81062E-32
9.94508E-01 3.40069E-32
9.95134E-01 3.01395E-32
9.95722E-01 2.65041E-32
9.96273E-01 2.31011E-32
9.96786E-01 1.99307E-32
9.97261E-01 1.69932E-32
9.97698E-01 1.42891E-32
9.98097E-01 1.18185E-32
9.98459E-01 9.58193E-33
9.98782E-01 7.57969E-33
9.99067E-01 5.81213E-33
9.99315E-01 4.27957E-33
9.99524E-01 2.98227E-33
9.99695E-01 1.92050E-33
9.99829E-01 1.09445E-33
9.99924E-01 5.04294E-34
9.99981E-01 1.50152E-34
1.00000E+00 3.20951E-35
