 #
 # Subroutine ELSEPA. Elastic scattering of electrons and positrons
 #                    by neutral atoms and positive ions
 #
 # Projectile: electron
 # Kinetic energy = 4.00000E+08 eV = 1.46997E+07 a.u.
 #
 # WARNING: High-energy factorization with free-atom DF screening.
 #          Absorption, polarization and exchange corrections are
 #          switched off.
 #          Phase shifts are calculated for the bare nucleus.
 #          Scattering amplitudes are not evaluated.
 #
 # Element:  W,  Z =  74,  atomic weight = 1.83840E+02 g/mol
 #
 # Nuclear model: Fermi distribution
 #                Average radius = 6.08411E-13 cm
 #                Skin thickness = 5.46000E-14 cm
 #
 # Number of electrons = 74
 #
 # Total elastic cross section = 7.51935E-18 cm**2 = 2.68521E-01 a0**2
 # 1st transport cross section = 6.48257E-26 cm**2 = 2.31497E-09 a0**2
 # 2nd transport cross section = 1.94362E-25 cm**2 = 6.94081E-09 a0**2
 #
 #
 # Differential cross section:                       MU=(1-COS(THETA))/2
 #
 #  THETA        MU          DCS          DCS        Sherman      error
 #  (deg)                 (cm**2/sr)   (a0**2/sr)    function
 #----------------------------------------------------------------------
0.00000E+00 9.14345E-09
7.61557E-13 8.77995E-09
1.18994E-12 8.58621E-09
1.71346E-12 8.35836E-09
2.33225E-12 8.10323E-09
3.04617E-12 7.82444E-09
3.85530E-12 7.52737E-09
4.75964E-12 7.21838E-09
5.75917E-12 6.90251E-09
6.85391E-12 6.58142E-09
8.04379E-12 6.26141E-09
9.32893E-12 5.94620E-09
1.07092E-11 5.63796E-09
1.21847E-11 5.33717E-09
1.37554E-11 5.04791E-09
1.54213E-11 4.77131E-09
1.71823E-11 4.50694E-09
1.90386E-11 4.25537E-09
2.09900E-11 4.01789E-09
2.30367E-11 3.79430E-09
2.51785E-11 3.58294E-09
2.74156E-11 3.38454E-09
2.97478E-11 3.19885E-09
3.21752E-11 3.02510E-09
3.46979E-11 2.86165E-09
3.73157E-11 2.70906E-09
4.00286E-11 2.56661E-09
4.28368E-11 2.43325E-09
4.57402E-11 2.30816E-09
4.87388E-11 2.19136E-09
5.18325E-11 2.08222E-09
5.50215E-11 1.97966E-09
5.83057E-11 1.88350E-09
6.16850E-11 1.79349E-09
6.51595E-11 1.70916E-09
6.87293E-11 1.62948E-09
7.23943E-11 1.55471E-09
7.61544E-11 1.48450E-09
1.18991E-10 9.64439E-10
1.71347E-10 6.47915E-10
2.33223E-10 4.59349E-10
3.04617E-10 3.31695E-10
3.85531E-10 2.45179E-10
4.75965E-10 1.85795E-10
5.75917E-10 1.43629E-10
6.85389E-10 1.12146E-10
8.04380E-10 8.89285E-11
9.32891E-10 7.14621E-11
1.07092E-09 5.80047E-11
1.21847E-09 4.73740E-11
1.37554E-09 3.90597E-11
1.54213E-09 3.24691E-11
1.71823E-09 2.71516E-11
1.90386E-09 2.28444E-11
2.09900E-09 1.93558E-11
2.30367E-09 1.65052E-11
2.51785E-09 1.41457E-11
2.74156E-09 1.21950E-11
2.97478E-09 1.05734E-11
3.21752E-09 9.21564E-12
3.46978E-09 8.07151E-12
3.73156E-09 7.10036E-12
4.00286E-09 6.27237E-12
4.28368E-09 5.56415E-12
4.57402E-09 4.95528E-12
4.87388E-09 4.43015E-12
5.18326E-09 3.97495E-12
5.50215E-09 3.57753E-12
5.83057E-09 3.22932E-12
6.16850E-09 2.92328E-12
6.51596E-09 2.65322E-12
6.87293E-09 2.41311E-12
7.23942E-09 2.19984E-12
7.61544E-09 2.00985E-12
1.18991E-08 8.98078E-13
1.71347E-08 4.58650E-13
2.33223E-08 2.57781E-13
3.04617E-08 1.55792E-13
3.85531E-08 9.96156E-14
4.75965E-08 6.66338E-14
5.75917E-08 4.62480E-14
6.85389E-08 3.30986E-14
8.04380E-08 2.43107E-14
9.32891E-08 1.82573E-14
1.07092E-07 1.39767E-14
1.21847E-07 1.08801E-14
1.37554E-07 8.59492E-15
1.54213E-07 6.87853E-15
1.71823E-07 5.56946E-15
1.90386E-07 4.55712E-15
2.09900E-07 3.76438E-15
2.30367E-07 3.13653E-15
2.51785E-07 2.63412E-15
2.74156E-07 2.22825E-15
2.97478E-07 1.89755E-15
3.21752E-07 1.62595E-15
3.46978E-07 1.40122E-15
3.73156E-07 1.21399E-15
4.00286E-07 1.05701E-15
4.28368E-07 9.24585E-16
4.57402E-07 8.12268E-16
4.87388E-07 7.16502E-16
5.18325E-07 6.34445E-16
5.50215E-07 5.63809E-16
5.83057E-07 5.02736E-16
6.16850E-07 4.49716E-16
6.51596E-07 4.03508E-16
6.87293E-07 3.63087E-16
7.23942E-07 3.27606E-16
7.61543E-07 2.96356E-16
1.18991E-06 1.22382E-16
1.71347E-06 5.93481E-17
2.33223E-06 3.21609E-17
3.04617E-06 1.89063E-17
3.85531E-06 1.18285E-17
4.75964E-06 7.77358E-18
5.75916E-06 5.31643E-18
6.85388E-06 3.75775E-18
8.04378E-06 2.73062E-18
9.32888E-06 2.03163E-18
1.07092E-05 1.54266E-18
1.21846E-05 1.19233E-18
1.37553E-05 9.36045E-19
1.54212E-05 7.45067E-19
1.71822E-05 6.00410E-19
1.90385E-05 4.88952E-19
2.09899E-05 4.02661E-19
2.30365E-05 3.34541E-19
2.51783E-05 2.80160E-19
2.74153E-05 2.36334E-19
2.97475E-05 2.00724E-19
3.21749E-05 1.71576E-19
3.46974E-05 1.47546E-19
3.73152E-05 1.27599E-19
4.00281E-05 1.10927E-19
4.28362E-05 9.68972E-20
4.57395E-05 8.50175E-20
4.87380E-05 7.49003E-20
5.18317E-05 6.62400E-20
5.50205E-05 5.87931E-20
5.83045E-05 5.23628E-20
6.16838E-05 4.67891E-20
6.51582E-05 4.19395E-20
6.87277E-05 3.77040E-20
7.23925E-05 3.39913E-20
7.61524E-05 3.10468E-20
9.21439E-05 2.12574E-20
1.09658E-04 1.50437E-20
1.28695E-04 1.09471E-20
1.49255E-04 8.15574E-21
1.71338E-04 6.20110E-21
1.94942E-04 4.79838E-21
2.20070E-04 3.77081E-21
2.46720E-04 3.00403E-21
2.74892E-04 2.42238E-21
3.04586E-04 1.97467E-21
3.35803E-04 1.62549E-21
3.68542E-04 1.34990E-21
4.02802E-04 1.13005E-21
4.38585E-04 9.52920E-22
4.75889E-04 8.08929E-22
5.14715E-04 6.90908E-22
5.55063E-04 5.93435E-22
5.96931E-04 5.12367E-22
6.40321E-04 4.44503E-22
6.85233E-04 3.87350E-22
7.31665E-04 3.38945E-22
7.79618E-04 2.97735E-22
8.29092E-04 2.62478E-22
8.80086E-04 2.32176E-22
9.32601E-04 2.06020E-22
9.86636E-04 1.83351E-22
1.04219E-03 1.63630E-22
1.09927E-03 1.46412E-22
1.15786E-03 1.31328E-22
1.21797E-03 1.18071E-22
1.27961E-03 1.06385E-22
1.34276E-03 9.60544E-23
1.40743E-03 8.68966E-23
1.47362E-03 7.87576E-23
1.54133E-03 7.15065E-23
1.61056E-03 6.50311E-23
1.68131E-03 5.92358E-23
1.75357E-03 5.40381E-23
1.82735E-03 4.93669E-23
1.90265E-03 4.51609E-23
1.97947E-03 4.13667E-23
2.05780E-03 3.79381E-23
2.13765E-03 3.48345E-23
2.21902E-03 3.20207E-23
2.30190E-03 2.94656E-23
2.38630E-03 2.71421E-23
2.47222E-03 2.50263E-23
2.55965E-03 2.30968E-23
2.64859E-03 2.13351E-23
2.73905E-03 1.97245E-23
2.83103E-03 1.82503E-23
2.92452E-03 1.68994E-23
3.01952E-03 1.56602E-23
3.11604E-03 1.45221E-23
3.21407E-03 1.34759E-23
3.31362E-03 1.25133E-23
3.41468E-03 1.16267E-23
3.51725E-03 1.08093E-23
3.62133E-03 1.00551E-23
3.72692E-03 9.35870E-24
3.83403E-03 8.71507E-24
3.94265E-03 8.11977E-24
4.05278E-03 7.56876E-24
4.16442E-03 7.05838E-24
4.27757E-03 6.58531E-24
4.39223E-03 6.14652E-24
4.50840E-03 5.73928E-24
4.62608E-03 5.36108E-24
4.74527E-03 5.00964E-24
4.86597E-03 4.68288E-24
4.98817E-03 4.37890E-24
5.11188E-03 4.09596E-24
5.23711E-03 3.83247E-24
5.36383E-03 3.58698E-24
5.49207E-03 3.35814E-24
5.62181E-03 3.14473E-24
5.75306E-03 2.94563E-24
5.88581E-03 2.75979E-24
6.02007E-03 2.58626E-24
6.15583E-03 2.42417E-24
6.29310E-03 2.27270E-24
6.43187E-03 2.13111E-24
6.57214E-03 1.99871E-24
6.71392E-03 1.87486E-24
6.85720E-03 1.75897E-24
7.00198E-03 1.65050E-24
7.14827E-03 1.54894E-24
7.29605E-03 1.45383E-24
7.44534E-03 1.36473E-24
7.59612E-03 1.28125E-24
7.97965E-03 1.09472E-24
8.37255E-03 9.35884E-25
8.77480E-03 8.00469E-25
9.18641E-03 6.84899E-25
9.60736E-03 5.86177E-25
1.00376E-02 5.01782E-25
1.04773E-02 4.29589E-25
1.09262E-02 3.67802E-25
1.13844E-02 3.14902E-25
1.18520E-02 2.69598E-25
1.23288E-02 2.30793E-25
1.28150E-02 1.97552E-25
1.33104E-02 1.69078E-25
1.38150E-02 1.44691E-25
1.43290E-02 1.23809E-25
1.48521E-02 1.05932E-25
1.53845E-02 9.06347E-26
1.59262E-02 7.75494E-26
1.64770E-02 6.63618E-26
1.70371E-02 5.68019E-26
1.76063E-02 4.86375E-26
1.81848E-02 4.16690E-26
1.87724E-02 3.57249E-26
1.93692E-02 3.06578E-26
1.99751E-02 2.63409E-26
2.05901E-02 2.26651E-26
2.12143E-02 1.95369E-26
2.18476E-02 1.68757E-26
2.24900E-02 1.46126E-26
2.31415E-02 1.26882E-26
2.38021E-02 1.10519E-26
2.44717E-02 9.66005E-27
2.51504E-02 8.47552E-27
2.58382E-02 7.46651E-27
2.65349E-02 6.60590E-27
2.72407E-02 5.87057E-27
2.79555E-02 5.24089E-27
2.86793E-02 4.70015E-27
2.94120E-02 4.23423E-27
3.01537E-02 3.83116E-27
3.09043E-02 3.48086E-27
3.16639E-02 3.17484E-27
3.24324E-02 2.90598E-27
3.32098E-02 2.66831E-27
3.39961E-02 2.45686E-27
3.47912E-02 2.26749E-27
3.55952E-02 2.09676E-27
3.64081E-02 1.94184E-27
3.72297E-02 1.80040E-27
3.80602E-02 1.67051E-27
3.88995E-02 1.55060E-27
3.97476E-02 1.43940E-27
4.06044E-02 1.33587E-27
4.14700E-02 1.23916E-27
4.23443E-02 1.14859E-27
4.32273E-02 1.06360E-27
4.41190E-02 9.83751E-28
4.50194E-02 9.08661E-28
4.59284E-02 8.38034E-28
4.68461E-02 7.71616E-28
4.87074E-02 6.50581E-28
5.06030E-02 5.44149E-28
5.25328E-02 4.51166E-28
5.44967E-02 3.70596E-28
5.64946E-02 3.01441E-28
5.85262E-02 2.42708E-28
6.05914E-02 1.93396E-28
6.26901E-02 1.52501E-28
6.48222E-02 1.19033E-28
6.69873E-02 9.20284E-29
6.91854E-02 7.05689E-29
7.14163E-02 5.37947E-29
7.36799E-02 4.09160E-29
7.59760E-02 3.12205E-29
7.83043E-02 2.40778E-29
8.06647E-02 1.89395E-29
8.30571E-02 1.53381E-29
8.54812E-02 1.28826E-29
8.79369E-02 1.12529E-29
9.04240E-02 1.01927E-29
9.29422E-02 9.50247E-30
9.54915E-02 9.03143E-30
9.80716E-02 8.67008E-30
1.00682E-01 8.34289E-30
1.03323E-01 8.00164E-30
1.05995E-01 7.61935E-30
1.08696E-01 7.18497E-30
1.11427E-01 6.69885E-30
1.14188E-01 6.16898E-30
1.16978E-01 5.60789E-30
1.19797E-01 5.03025E-30
1.22645E-01 4.45111E-30
1.25522E-01 3.88454E-30
1.28428E-01 3.34282E-30
1.31361E-01 2.83594E-30
1.34323E-01 2.37133E-30
1.37313E-01 1.95394E-30
1.40330E-01 1.58634E-30
1.43375E-01 1.26902E-30
1.46447E-01 1.00071E-30
1.49545E-01 7.78717E-31
1.52671E-01 5.99315E-31
1.55823E-01 4.58067E-31
1.59001E-01 3.50135E-31
1.62205E-01 2.70545E-31
1.65435E-01 2.14408E-31
1.68690E-01 1.77092E-31
1.71970E-01 1.54344E-31
1.75276E-01 1.42381E-31
1.78606E-01 1.37935E-31
1.81961E-01 1.38269E-31
1.85340E-01 1.41168E-31
1.88743E-01 1.44913E-31
1.92169E-01 1.48233E-31
1.95619E-01 1.50256E-31
1.99092E-01 1.50448E-31
2.02589E-01 1.48558E-31
2.06107E-01 1.44555E-31
2.09649E-01 1.38576E-31
2.13212E-01 1.30877E-31
2.16797E-01 1.21787E-31
2.20404E-01 1.11675E-31
2.24032E-01 1.00917E-31
2.27680E-01 8.98738E-32
2.31350E-01 7.88749E-32
2.35040E-01 6.82057E-32
2.38751E-01 5.81011E-32
2.42481E-01 4.87428E-32
2.46231E-01 4.02598E-32
2.50000E-01 3.27315E-32
2.53788E-01 2.61927E-32
2.57595E-01 2.06391E-32
2.61421E-01 1.60348E-32
2.65264E-01 1.23184E-32
2.69126E-01 9.41017E-33
2.73005E-01 7.21826E-33
2.76901E-01 5.64414E-33
2.80814E-01 4.58763E-33
2.84744E-01 3.95087E-33
2.88691E-01 3.64151E-33
2.92653E-01 3.57509E-33
2.96632E-01 3.67667E-33
3.00625E-01 3.88172E-33
3.04634E-01 4.13654E-33
3.08658E-01 4.39808E-33
3.12697E-01 4.63340E-33
3.16749E-01 4.81889E-33
3.20816E-01 4.93924E-33
3.24896E-01 4.98628E-33
3.28990E-01 4.95780E-33
3.33097E-01 4.85638E-33
3.37216E-01 4.68820E-33
3.41348E-01 4.46203E-33
3.45492E-01 4.18829E-33
3.49647E-01 3.87821E-33
3.53814E-01 3.54316E-33
3.57992E-01 3.19409E-33
3.62181E-01 2.84113E-33
3.66381E-01 2.49326E-33
3.70590E-01 2.15815E-33
3.74810E-01 1.84204E-33
3.79039E-01 1.54971E-33
3.83277E-01 1.28454E-33
3.87524E-01 1.04862E-33
3.91780E-01 8.42829E-34
3.96044E-01 6.67048E-34
4.00316E-01 5.20282E-34
4.04596E-01 4.00853E-34
4.08882E-01 3.06562E-34
4.13176E-01 2.34845E-34
4.17476E-01 1.82917E-34
4.21783E-01 1.47904E-34
4.26095E-01 1.26946E-34
4.30413E-01 1.17287E-34
4.34737E-01 1.16347E-34
4.39065E-01 1.21774E-34
4.43398E-01 1.31479E-34
4.47736E-01 1.43653E-34
4.52077E-01 1.56778E-34
4.56422E-01 1.69624E-34
4.60770E-01 1.81230E-34
4.65122E-01 1.90892E-34
4.69476E-01 1.98133E-34
4.73832E-01 2.02679E-34
4.78190E-01 2.04427E-34
4.82550E-01 2.03417E-34
4.86912E-01 1.99802E-34
4.91274E-01 1.93824E-34
4.95637E-01 1.85783E-34
5.00000E-01 1.76020E-34
5.04363E-01 1.64892E-34
5.08726E-01 1.52761E-34
5.13088E-01 1.39978E-34
5.17450E-01 1.26868E-34
5.21810E-01 1.13731E-34
5.26168E-01 1.00828E-34
5.30524E-01 8.83830E-35
5.34878E-01 7.65787E-35
5.39230E-01 6.55586E-35
5.43578E-01 5.54276E-35
5.47923E-01 4.62548E-35
5.52264E-01 3.80768E-35
5.56602E-01 3.09011E-35
5.60935E-01 2.47108E-35
5.65263E-01 1.94684E-35
5.69587E-01 1.51200E-35
5.73905E-01 1.15989E-35
5.78217E-01 8.82998E-36
5.82524E-01 6.73230E-36
5.86824E-01 5.22250E-36
5.91118E-01 4.21717E-36
5.95404E-01 3.63499E-36
5.99684E-01 3.39854E-36
6.03956E-01 3.43550E-36
6.08220E-01 3.67972E-36
6.12476E-01 4.07183E-36
6.16723E-01 4.55961E-36
6.20961E-01 5.09809E-36
6.25190E-01 5.64946E-36
6.29410E-01 6.18278E-36
6.33619E-01 6.67361E-36
6.37819E-01 7.10345E-36
6.42008E-01 7.45922E-36
6.46186E-01 7.73258E-36
6.50353E-01 7.91937E-36
6.54508E-01 8.01893E-36
6.58652E-01 8.03349E-36
6.62784E-01 7.96760E-36
6.66903E-01 7.82761E-36
6.71010E-01 7.62113E-36
6.75104E-01 7.35664E-36
6.79184E-01 7.04311E-36
6.83251E-01 6.68964E-36
6.87303E-01 6.30517E-36
6.91342E-01 5.89836E-36
6.95366E-01 5.47730E-36
6.99375E-01 5.04943E-36
7.03368E-01 4.62149E-36
7.07347E-01 4.19938E-36
7.11309E-01 3.78822E-36
7.15256E-01 3.39228E-36
7.19186E-01 3.01507E-36
7.23099E-01 2.65927E-36
7.26995E-01 2.32693E-36
7.30874E-01 2.01940E-36
7.34736E-01 1.73744E-36
7.38579E-01 1.48133E-36
7.42405E-01 1.25085E-36
7.46212E-01 1.04543E-36
7.50000E-01 8.64169E-37
7.53769E-01 7.05920E-37
7.57519E-01 5.69321E-37
7.61249E-01 4.52909E-37
7.64960E-01 3.55079E-37
7.68650E-01 2.74207E-37
7.72320E-01 2.08631E-37
7.75968E-01 1.56714E-37
7.79596E-01 1.16872E-37
7.83203E-01 8.75597E-38
7.86788E-01 6.73253E-38
7.90351E-01 5.48094E-38
7.93893E-01 4.87418E-38
7.97411E-01 4.79665E-38
8.00908E-01 5.14344E-38
8.04381E-01 5.82012E-38
8.07831E-01 6.74311E-38
8.11257E-01 7.83897E-38
8.14660E-01 9.04420E-38
8.18039E-01 1.03044E-37
8.21394E-01 1.15742E-37
8.24724E-01 1.28154E-37
8.28030E-01 1.39978E-37
8.31310E-01 1.50969E-37
8.34565E-01 1.60949E-37
8.37795E-01 1.69786E-37
8.40999E-01 1.77394E-37
8.44177E-01 1.83723E-37
8.47329E-01 1.88759E-37
8.50455E-01 1.92517E-37
8.53553E-01 1.95030E-37
8.56625E-01 1.96348E-37
8.59670E-01 1.96539E-37
8.62687E-01 1.95685E-37
8.65677E-01 1.93862E-37
8.68639E-01 1.91169E-37
8.71572E-01 1.87689E-37
8.74478E-01 1.83521E-37
8.77355E-01 1.78751E-37
8.80203E-01 1.73471E-37
8.83022E-01 1.67764E-37
8.85812E-01 1.61716E-37
8.88573E-01 1.55395E-37
8.91304E-01 1.48872E-37
8.94005E-01 1.42218E-37
8.96677E-01 1.35487E-37
8.99318E-01 1.28740E-37
9.01928E-01 1.22013E-37
9.04508E-01 1.15353E-37
9.07058E-01 1.08801E-37
9.09576E-01 1.02384E-37
9.12063E-01 9.61288E-38
9.14519E-01 9.00622E-38
9.16943E-01 8.41988E-38
9.19335E-01 7.85578E-38
9.21696E-01 7.31448E-38
9.24024E-01 6.79741E-38
9.26320E-01 6.30438E-38
9.28584E-01 5.83630E-38
9.30815E-01 5.39264E-38
9.33013E-01 4.97394E-38
9.35178E-01 4.57928E-38
9.37310E-01 4.20816E-38
9.39409E-01 3.86053E-38
9.41474E-01 3.53545E-38
9.43505E-01 3.23205E-38
9.45503E-01 2.94943E-38
9.47467E-01 2.68721E-38
9.49397E-01 2.44387E-38
9.51293E-01 2.21910E-38
9.53154E-01 2.01118E-38
9.54981E-01 1.81998E-38
9.56773E-01 1.64397E-38
9.58530E-01 1.48246E-38
9.60252E-01 1.33479E-38
9.61940E-01 1.19951E-38
9.63592E-01 1.07632E-38
9.65209E-01 9.64038E-39
9.66790E-01 8.62078E-39
9.68336E-01 7.69674E-39
9.69846E-01 6.85861E-39
9.71321E-01 6.10282E-39
9.72759E-01 5.42119E-39
9.74162E-01 4.80565E-39
9.75528E-01 4.25349E-39
9.76858E-01 3.75847E-39
9.78152E-01 3.31506E-39
9.79410E-01 2.91861E-39
9.80631E-01 2.56586E-39
9.81815E-01 2.24944E-39
9.82963E-01 1.96893E-39
9.84074E-01 1.71953E-39
9.85148E-01 1.49928E-39
9.86185E-01 1.00000E-45
9.87185E-01 1.00000E-45
9.88148E-01 1.00000E-45
9.89074E-01 1.00000E-45
9.89962E-01 1.00000E-45
9.90814E-01 1.00000E-45
9.91627E-01 1.00000E-45
9.92404E-01 1.00000E-45
9.93143E-01 1.00000E-45
9.93844E-01 1.00000E-45
9.94508E-01 1.00000E-45
9.95134E-01 1.00000E-45
9.95722E-01 1.00000E-45
9.96273E-01 1.00000E-45
9.96786E-01 1.00000E-45
9.97261E-01 1.00000E-45
9.97698E-01 1.00000E-45
9.98097E-01 1.00000E-45
9.98459E-01 1.00000E-45
9.98782E-01 1.00000E-45
9.99067E-01 1.00000E-45
9.99315E-01 1.00000E-45
9.99524E-01 1.00000E-45
9.99695E-01 1.00000E-45
9.99829E-01 1.00000E-45
9.99924E-01 1.00000E-45
9.99981E-01 1.00000E-45
1.00000E+00 1.00000E-45
