 #
 # Subroutine ELSEPA. Elastic scattering of electrons and positrons
 #                    by neutral atoms and positive ions
 #
 # Projectile: electron
 # Kinetic energy = 1.25000E+08 eV = 4.59367E+06 a.u.
 #
 # WARNING: High-energy factorization with free-atom DF screening.
 #          Absorption, polarization and exchange corrections are
 #          switched off.
 #          Phase shifts are calculated for the bare nucleus.
 #          Scattering amplitudes are not evaluated.
 #
 # Element:  W,  Z =  74,  atomic weight = 1.83840E+02 g/mol
 #
 # Nuclear model: Fermi distribution
 #                Average radius = 6.08411E-13 cm
 #                Skin thickness = 5.46000E-14 cm
 #
 # Number of electrons = 74
 #
 # Total elastic cross section = 7.52100E-18 cm**2 = 2.68580E-01 a0**2
 # 1st transport cross section = 6.65216E-25 cm**2 = 2.37553E-08 a0**2
 # 2nd transport cross section = 1.98501E-24 cm**2 = 7.08860E-08 a0**2
 #
 #
 # Differential cross section:                       MU=(1-COS(THETA))/2
 #
 #  THETA        MU          DCS          DCS        Sherman      error
 #  (deg)                 (cm**2/sr)   (a0**2/sr)    function
 #----------------------------------------------------------------------
0.00000E+00 8.97935E-10
7.61557E-13 8.94310E-10
1.18994E-12 8.92287E-10
1.71346E-12 8.89825E-10
2.33225E-12 8.86930E-10
3.04617E-12 8.83611E-10
3.85530E-12 8.79874E-10
4.75964E-12 8.75730E-10
5.75917E-12 8.71188E-10
6.85391E-12 8.66260E-10
8.04379E-12 8.60956E-10
9.32893E-12 8.55290E-10
1.07092E-11 8.49274E-10
1.21847E-11 8.42923E-10
1.37554E-11 8.36250E-10
1.54213E-11 8.29239E-10
1.71823E-11 8.21928E-10
1.90386E-11 8.14372E-10
2.09900E-11 8.06591E-10
2.30367E-11 7.98579E-10
2.51785E-11 7.90232E-10
2.74156E-11 7.81713E-10
2.97478E-11 7.73041E-10
3.21752E-11 7.64236E-10
3.46979E-11 7.55154E-10
3.73157E-11 7.45924E-10
4.00286E-11 7.36611E-10
4.28368E-11 7.27234E-10
4.57402E-11 7.17714E-10
4.87388E-11 7.08018E-10
5.18325E-11 6.98305E-10
5.50215E-11 6.88589E-10
5.83057E-11 6.78878E-10
6.16850E-11 6.68944E-10
6.51595E-11 6.59049E-10
6.87293E-11 6.49205E-10
7.23943E-11 6.39421E-10
7.61544E-11 6.29541E-10
1.18991E-10 5.33774E-10
1.71347E-10 4.47598E-10
2.33223E-10 3.74002E-10
3.04617E-10 3.12907E-10
3.85531E-10 2.63117E-10
4.75965E-10 2.22740E-10
5.75917E-10 1.89898E-10
6.85389E-10 1.63045E-10
8.04380E-10 1.40942E-10
9.32891E-10 1.22588E-10
1.07092E-09 1.07181E-10
1.21847E-09 9.41791E-11
1.37554E-09 8.31248E-11
1.54213E-09 7.32562E-11
1.71823E-09 6.47424E-11
1.90386E-09 5.77272E-11
2.09900E-09 5.18949E-11
2.30367E-09 4.68764E-11
2.51785E-09 4.19357E-11
2.74156E-09 3.77696E-11
2.97478E-09 3.42316E-11
3.21752E-09 3.12069E-11
3.46978E-09 2.83014E-11
3.73156E-09 2.57175E-11
4.00286E-09 2.34844E-11
4.28368E-09 2.15441E-11
4.57402E-09 1.97705E-11
4.87388E-09 1.81070E-11
5.18326E-09 1.66482E-11
5.50215E-09 1.53635E-11
5.83057E-09 1.42249E-11
6.16850E-09 1.31149E-11
6.51596E-09 1.21298E-11
6.87293E-09 1.12525E-11
7.23942E-09 1.04686E-11
7.61544E-09 9.72609E-12
1.18991E-08 4.96730E-12
1.71347E-08 2.75981E-12
2.33223E-08 1.63753E-12
3.04617E-08 1.02830E-12
3.85531E-08 6.79720E-13
4.75965E-08 4.68484E-13
5.75917E-08 3.34724E-13
6.85389E-08 2.45976E-13
8.04380E-08 1.84896E-13
9.32891E-08 1.41700E-13
1.07092E-07 1.10426E-13
1.21847E-07 8.73182E-14
1.37554E-07 6.99271E-14
1.54213E-07 5.65976E-14
1.71823E-07 4.63434E-14
1.90386E-07 3.82831E-14
2.09900E-07 3.19299E-14
2.30367E-07 2.68080E-14
2.51785E-07 2.26906E-14
2.74156E-07 1.93268E-14
2.97478E-07 1.65660E-14
3.21752E-07 1.42822E-14
3.46978E-07 1.23755E-14
3.73156E-07 1.07811E-14
4.00286E-07 9.43077E-15
4.28368E-07 8.28826E-15
4.57402E-07 7.31248E-15
4.87388E-07 6.47667E-15
5.18325E-07 5.75737E-15
5.50215E-07 5.13461E-15
5.83057E-07 4.59483E-15
6.16850E-07 4.12324E-15
6.51596E-07 3.71133E-15
6.87293E-07 3.34937E-15
7.23942E-07 3.03062E-15
7.61543E-07 2.74905E-15
1.18991E-06 1.15963E-15
1.71347E-06 5.70174E-16
2.33223E-06 3.11829E-16
3.04617E-06 1.84496E-16
3.85531E-06 1.15989E-16
4.75964E-06 7.65248E-17
5.75916E-06 5.25080E-17
6.85388E-06 3.72190E-17
8.04378E-06 2.71133E-17
9.32888E-06 2.02176E-17
1.07092E-05 1.53820E-17
1.21846E-05 1.19099E-17
1.37553E-05 9.36477E-18
1.54212E-05 7.46471E-18
1.71822E-05 6.02309E-18
1.90385E-05 4.91065E-18
2.09899E-05 4.04821E-18
2.30365E-05 3.36651E-18
2.51783E-05 2.82166E-18
2.74153E-05 2.38210E-18
2.97475E-05 2.02458E-18
3.21749E-05 1.73167E-18
3.46974E-05 1.49001E-18
3.73152E-05 1.28925E-18
4.00281E-05 1.12133E-18
4.28362E-05 9.79947E-19
4.57395E-05 8.60153E-19
4.87380E-05 7.58077E-19
5.18317E-05 6.70655E-19
5.50205E-05 5.95446E-19
5.83045E-05 5.30478E-19
6.16838E-05 4.74140E-19
6.51582E-05 4.25103E-19
6.87277E-05 3.82261E-19
7.23925E-05 3.44695E-19
7.61524E-05 3.11935E-19
9.21439E-05 2.13446E-19
1.09658E-04 1.50954E-19
1.28695E-04 1.09777E-19
1.49255E-04 8.17392E-20
1.71338E-04 6.21215E-20
1.94942E-04 4.80589E-20
2.20070E-04 3.77661E-20
2.46720E-04 3.00921E-20
2.74892E-04 2.42755E-20
3.04586E-04 1.98019E-20
3.35803E-04 1.63153E-20
3.68542E-04 1.35653E-20
4.02802E-04 1.13725E-20
4.38585E-04 9.60669E-21
4.75889E-04 8.17166E-21
5.14715E-04 6.99569E-21
5.55063E-04 6.02452E-21
5.96931E-04 5.21674E-21
6.40321E-04 4.54038E-21
6.85233E-04 3.97055E-21
7.31665E-04 3.48771E-21
7.79618E-04 3.07635E-21
8.29092E-04 2.72412E-21
8.80086E-04 2.42108E-21
9.32601E-04 2.15919E-21
9.86636E-04 1.93191E-21
1.04219E-03 1.73388E-21
1.09927E-03 1.56069E-21
1.15786E-03 1.40867E-21
1.21797E-03 1.27480E-21
1.27961E-03 1.15652E-21
1.34276E-03 1.05169E-21
1.40743E-03 9.58525E-22
1.47362E-03 8.75490E-22
1.54133E-03 8.01290E-22
1.61056E-03 7.34820E-22
1.68131E-03 6.75120E-22
1.75357E-03 6.21365E-22
1.82735E-03 5.72870E-22
1.90265E-03 5.29029E-22
1.97947E-03 4.89313E-22
2.05780E-03 4.53264E-22
2.13765E-03 4.20481E-22
2.21902E-03 3.90614E-22
2.30190E-03 3.63358E-22
2.38630E-03 3.38440E-22
2.47222E-03 3.15625E-22
2.55965E-03 2.94702E-22
2.64859E-03 2.75485E-22
2.73905E-03 2.57810E-22
2.83103E-03 2.41529E-22
2.92452E-03 2.26512E-22
3.01952E-03 2.12644E-22
3.11604E-03 1.99820E-22
3.21407E-03 1.87946E-22
3.31362E-03 1.76939E-22
3.41468E-03 1.66725E-22
3.51725E-03 1.57235E-22
3.62133E-03 1.48408E-22
3.72692E-03 1.40190E-22
3.83403E-03 1.32530E-22
3.94265E-03 1.25384E-22
4.05278E-03 1.18711E-22
4.16442E-03 1.12473E-22
4.27757E-03 1.06637E-22
4.39223E-03 1.01172E-22
4.50840E-03 9.60498E-23
4.62608E-03 9.12454E-23
4.74527E-03 8.67352E-23
4.86597E-03 8.24977E-23
4.98817E-03 7.85133E-23
5.11188E-03 7.47642E-23
5.23711E-03 7.12338E-23
5.36383E-03 6.79069E-23
5.49207E-03 6.47697E-23
5.62181E-03 6.18093E-23
5.75306E-03 5.90138E-23
5.88581E-03 5.63725E-23
6.02007E-03 5.38751E-23
6.15583E-03 5.15123E-23
6.29310E-03 4.92757E-23
6.43187E-03 4.71571E-23
6.57214E-03 4.51491E-23
6.71392E-03 4.32450E-23
6.85720E-03 4.14384E-23
7.00198E-03 3.97232E-23
7.14827E-03 3.80942E-23
7.29605E-03 3.65460E-23
7.44534E-03 3.50740E-23
7.59612E-03 3.36737E-23
7.97965E-03 3.04602E-23
8.37255E-03 2.76124E-23
8.77480E-03 2.50814E-23
9.18641E-03 2.28262E-23
9.60736E-03 2.08117E-23
1.00376E-02 1.90078E-23
1.04773E-02 1.73889E-23
1.09262E-02 1.59328E-23
1.13844E-02 1.46204E-23
1.18520E-02 1.34353E-23
1.23288E-02 1.23630E-23
1.28150E-02 1.13910E-23
1.33104E-02 1.05084E-23
1.38150E-02 9.70571E-24
1.43290E-02 8.97446E-24
1.48521E-02 8.30730E-24
1.53845E-02 7.69771E-24
1.59262E-02 7.13994E-24
1.64770E-02 6.62889E-24
1.70371E-02 6.16003E-24
1.76063E-02 5.72935E-24
1.81848E-02 5.33326E-24
1.87724E-02 4.96856E-24
1.93692E-02 4.63238E-24
1.99751E-02 4.32216E-24
2.05901E-02 4.03561E-24
2.12143E-02 3.77063E-24
2.18476E-02 3.52539E-24
2.24900E-02 3.29819E-24
2.31415E-02 3.08752E-24
2.38021E-02 2.89201E-24
2.44717E-02 2.71041E-24
2.51504E-02 2.54160E-24
2.58382E-02 2.38456E-24
2.65349E-02 2.23834E-24
2.72407E-02 2.10212E-24
2.79555E-02 1.97511E-24
2.86793E-02 1.85662E-24
2.94120E-02 1.74599E-24
3.01537E-02 1.64264E-24
3.09043E-02 1.54604E-24
3.16639E-02 1.45568E-24
3.24324E-02 1.37112E-24
3.32098E-02 1.29193E-24
3.39961E-02 1.21775E-24
3.47912E-02 1.14820E-24
3.55952E-02 1.08298E-24
3.64081E-02 1.02178E-24
3.72297E-02 9.64333E-25
3.80602E-02 9.10375E-25
3.88995E-02 8.59676E-25
3.97476E-02 8.12017E-25
4.06044E-02 7.67198E-25
4.14700E-02 7.25033E-25
4.23443E-02 6.85349E-25
4.32273E-02 6.47986E-25
4.41190E-02 6.12795E-25
4.50194E-02 5.79639E-25
4.59284E-02 5.48389E-25
4.68461E-02 5.18925E-25
4.87074E-02 4.64921E-25
5.06030E-02 4.16828E-25
5.25328E-02 3.73948E-25
5.44967E-02 3.35677E-25
5.64946E-02 3.01485E-25
5.85262E-02 2.70909E-25
6.05914E-02 2.43544E-25
6.26901E-02 2.19031E-25
6.48222E-02 1.97058E-25
6.69873E-02 1.77348E-25
6.91854E-02 1.59657E-25
7.14163E-02 1.43768E-25
7.36799E-02 1.29491E-25
7.59760E-02 1.16655E-25
7.83043E-02 1.05110E-25
8.06647E-02 9.47226E-26
8.30571E-02 8.53725E-26
8.54812E-02 7.69537E-26
8.79369E-02 6.93714E-26
9.04240E-02 6.25406E-26
9.29422E-02 5.63856E-26
9.54915E-02 5.08386E-26
9.80716E-02 4.58387E-26
1.00682E-01 4.13314E-26
1.03323E-01 3.72679E-26
1.05995E-01 3.36042E-26
1.08696E-01 3.03010E-26
1.11427E-01 2.73226E-26
1.14188E-01 2.46373E-26
1.16978E-01 2.22162E-26
1.19797E-01 2.00336E-26
1.22645E-01 1.80660E-26
1.25522E-01 1.62925E-26
1.28428E-01 1.46942E-26
1.31361E-01 1.32538E-26
1.34323E-01 1.19561E-26
1.37313E-01 1.07870E-26
1.40330E-01 9.73404E-27
1.43375E-01 8.78581E-27
1.46447E-01 7.93207E-27
1.49545E-01 7.16355E-27
1.52671E-01 6.47189E-27
1.55823E-01 5.84951E-27
1.59001E-01 5.28960E-27
1.62205E-01 4.78597E-27
1.65435E-01 4.33304E-27
1.68690E-01 3.92579E-27
1.71970E-01 3.55965E-27
1.75276E-01 3.23053E-27
1.78606E-01 2.93469E-27
1.81961E-01 2.66880E-27
1.85340E-01 2.42983E-27
1.88743E-01 2.21505E-27
1.92169E-01 2.02199E-27
1.95619E-01 1.84844E-27
1.99092E-01 1.69239E-27
2.02589E-01 1.55204E-27
2.06107E-01 1.42576E-27
2.09649E-01 1.31209E-27
2.13212E-01 1.20972E-27
2.16797E-01 1.11746E-27
2.20404E-01 1.03425E-27
2.24032E-01 9.59125E-28
2.27680E-01 8.91233E-28
2.31350E-01 8.29805E-28
2.35040E-01 7.74149E-28
2.38751E-01 7.23647E-28
2.42481E-01 6.77746E-28
2.46231E-01 6.35951E-28
2.50000E-01 5.97820E-28
2.53788E-01 5.62958E-28
2.57595E-01 5.31013E-28
2.61421E-01 5.01670E-28
2.65264E-01 4.74651E-28
2.69126E-01 4.49707E-28
2.73005E-01 4.26617E-28
2.76901E-01 4.05186E-28
2.80814E-01 3.85238E-28
2.84744E-01 3.66622E-28
2.88691E-01 3.49199E-28
2.92653E-01 3.32851E-28
2.96632E-01 3.17471E-28
3.00625E-01 3.02965E-28
3.04634E-01 2.89252E-28
3.08658E-01 2.76257E-28
3.12697E-01 2.63918E-28
3.16749E-01 2.52178E-28
3.20816E-01 2.40989E-28
3.24896E-01 2.30306E-28
3.28990E-01 2.20092E-28
3.33097E-01 2.10314E-28
3.37216E-01 2.00943E-28
3.41348E-01 1.91953E-28
3.45492E-01 1.83321E-28
3.49647E-01 1.75027E-28
3.53814E-01 1.67055E-28
3.57992E-01 1.59388E-28
3.62181E-01 1.52013E-28
3.66381E-01 1.44917E-28
3.70590E-01 1.38089E-28
3.74810E-01 1.31520E-28
3.79039E-01 1.25200E-28
3.83277E-01 1.19121E-28
3.87524E-01 1.13275E-28
3.91780E-01 1.07656E-28
3.96044E-01 1.02256E-28
4.00316E-01 9.70690E-29
4.04596E-01 9.20896E-29
4.08882E-01 8.73117E-29
4.13176E-01 8.27298E-29
4.17476E-01 7.83384E-29
4.21783E-01 7.41322E-29
4.26095E-01 7.01062E-29
4.30413E-01 6.62552E-29
4.34737E-01 6.25742E-29
4.39065E-01 5.90582E-29
4.43398E-01 5.57023E-29
4.47736E-01 5.25017E-29
4.52077E-01 4.94515E-29
4.56422E-01 4.65469E-29
4.60770E-01 4.37831E-29
4.65122E-01 4.11555E-29
4.69476E-01 3.86593E-29
4.73832E-01 3.62900E-29
4.78190E-01 3.40429E-29
4.82550E-01 3.19135E-29
4.86912E-01 2.98974E-29
4.91274E-01 2.79901E-29
4.95637E-01 2.61873E-29
5.00000E-01 2.44848E-29
5.04363E-01 2.28783E-29
5.08726E-01 2.13639E-29
5.13088E-01 1.99374E-29
5.17450E-01 1.85949E-29
5.21810E-01 1.73327E-29
5.26168E-01 1.61470E-29
5.30524E-01 1.50342E-29
5.34878E-01 1.39906E-29
5.39230E-01 1.30131E-29
5.43578E-01 1.20981E-29
5.47923E-01 1.12425E-29
5.52264E-01 1.04431E-29
5.56602E-01 9.69707E-30
5.60935E-01 9.00142E-30
5.65263E-01 8.35337E-30
5.69587E-01 7.75024E-30
5.73905E-01 7.18948E-30
5.78217E-01 6.66861E-30
5.82524E-01 6.18527E-30
5.86824E-01 5.73719E-30
5.91118E-01 5.32222E-30
5.95404E-01 4.93829E-30
5.99684E-01 4.58344E-30
6.03956E-01 4.25578E-30
6.08220E-01 3.95355E-30
6.12476E-01 3.67504E-30
6.16723E-01 3.41865E-30
6.20961E-01 3.18285E-30
6.25190E-01 2.96621E-30
6.29410E-01 2.76737E-30
6.33619E-01 2.58503E-30
6.37819E-01 2.41798E-30
6.42008E-01 2.26508E-30
6.46186E-01 2.12525E-30
6.50353E-01 1.99749E-30
6.54508E-01 1.88084E-30
6.58652E-01 1.77441E-30
6.62784E-01 1.67738E-30
6.66903E-01 1.58895E-30
6.71010E-01 1.50842E-30
6.75104E-01 1.43509E-30
6.79184E-01 1.36834E-30
6.83251E-01 1.30758E-30
6.87303E-01 1.25226E-30
6.91342E-01 1.20189E-30
6.95366E-01 1.15599E-30
6.99375E-01 1.11413E-30
7.03368E-01 1.07591E-30
7.07347E-01 1.04097E-30
7.11309E-01 1.00897E-30
7.15256E-01 9.79594E-31
7.19186E-01 9.52565E-31
7.23099E-01 9.27621E-31
7.26995E-01 9.04525E-31
7.30874E-01 8.83063E-31
7.34736E-01 8.63038E-31
7.38579E-01 8.44274E-31
7.42405E-01 8.26611E-31
7.46212E-01 8.09904E-31
7.50000E-01 7.94024E-31
7.53769E-01 7.78856E-31
7.57519E-01 7.64296E-31
7.61249E-01 7.50252E-31
7.64960E-01 7.36644E-31
7.68650E-01 7.23400E-31
7.72320E-01 7.10458E-31
7.75968E-01 6.97764E-31
7.79596E-01 6.85272E-31
7.83203E-01 6.72940E-31
7.86788E-01 6.60736E-31
7.90351E-01 6.48631E-31
7.93893E-01 6.36602E-31
7.97411E-01 6.24630E-31
8.00908E-01 6.12700E-31
8.04381E-01 6.00801E-31
8.07831E-01 5.88925E-31
8.11257E-01 5.77066E-31
8.14660E-01 5.65222E-31
8.18039E-01 5.53392E-31
8.21394E-01 5.41577E-31
8.24724E-01 5.29779E-31
8.28030E-01 5.18003E-31
8.31310E-01 5.06254E-31
8.34565E-01 4.94538E-31
8.37795E-01 4.82862E-31
8.40999E-01 4.71233E-31
8.44177E-01 4.59658E-31
8.47329E-01 4.48147E-31
8.50455E-01 4.36707E-31
8.53553E-01 4.25346E-31
8.56625E-01 4.14074E-31
8.59670E-01 4.02897E-31
8.62687E-01 3.91825E-31
8.65677E-01 3.80866E-31
8.68639E-01 3.70026E-31
8.71572E-01 3.59313E-31
8.74478E-01 3.48734E-31
8.77355E-01 3.38296E-31
8.80203E-01 3.28005E-31
8.83022E-01 3.17867E-31
8.85812E-01 3.07887E-31
8.88573E-01 2.98070E-31
8.91304E-01 2.88420E-31
8.94005E-01 2.78942E-31
8.96677E-01 2.69639E-31
8.99318E-01 2.60514E-31
9.01928E-01 2.51571E-31
9.04508E-01 2.42810E-31
9.07058E-01 2.34235E-31
9.09576E-01 2.25847E-31
9.12063E-01 2.17647E-31
9.14519E-01 2.09635E-31
9.16943E-01 2.01813E-31
9.19335E-01 1.94180E-31
9.21696E-01 1.86737E-31
9.24024E-01 1.79482E-31
9.26320E-01 1.72414E-31
9.28584E-01 1.65534E-31
9.30815E-01 1.58839E-31
9.33013E-01 1.52329E-31
9.35178E-01 1.46000E-31
9.37310E-01 1.39852E-31
9.39409E-01 1.33882E-31
9.41474E-01 1.28088E-31
9.43505E-01 1.22468E-31
9.45503E-01 1.17019E-31
9.47467E-01 1.11739E-31
9.49397E-01 1.06624E-31
9.51293E-01 1.01672E-31
9.53154E-01 9.68803E-32
9.54981E-01 9.22453E-32
9.56773E-01 8.77643E-32
9.58530E-01 8.34342E-32
9.60252E-01 7.92518E-32
9.61940E-01 7.52142E-32
9.63592E-01 7.13180E-32
9.65209E-01 6.75602E-32
9.66790E-01 6.39376E-32
9.68336E-01 6.04472E-32
9.69846E-01 5.70859E-32
9.71321E-01 5.38505E-32
9.72759E-01 5.07380E-32
9.74162E-01 4.77456E-32
9.75528E-01 4.48701E-32
9.76858E-01 4.21086E-32
9.78152E-01 3.94585E-32
9.79410E-01 3.69168E-32
9.80631E-01 3.44808E-32
9.81815E-01 3.21479E-32
9.82963E-01 2.99155E-32
9.84074E-01 2.77810E-32
9.85148E-01 2.57421E-32
9.86185E-01 2.37962E-32
9.87185E-01 2.19412E-32
9.88148E-01 2.01748E-32
9.89074E-01 1.84948E-32
9.89962E-01 1.68992E-32
9.90814E-01 1.53861E-32
9.91627E-01 1.39535E-32
9.92404E-01 1.25996E-32
9.93143E-01 1.13226E-32
9.93844E-01 1.01210E-32
9.94508E-01 8.99323E-33
9.95134E-01 7.93772E-33
9.95722E-01 6.95313E-33
9.96273E-01 6.03814E-33
9.96786E-01 5.19154E-33
9.97261E-01 4.41219E-33
9.97698E-01 3.69905E-33
9.98097E-01 3.05114E-33
9.98459E-01 2.46759E-33
9.98782E-01 1.94759E-33
9.99067E-01 1.49045E-33
9.99315E-01 1.09553E-33
9.99524E-01 7.62277E-34
9.99695E-01 4.90248E-34
9.99829E-01 2.79057E-34
9.99924E-01 1.28417E-34
9.99981E-01 3.81162E-35
1.00000E+00 8.02917E-36
