 #
 # Subroutine ELSEPA. Elastic scattering of electrons and positrons
 #                    by neutral atoms and positive ions
 #
 # Projectile: electron
 # Kinetic energy = 3.00000E+08 eV = 1.10248E+07 a.u.
 #
 # WARNING: High-energy factorization with free-atom DF screening.
 #          Absorption, polarization and exchange corrections are
 #          switched off.
 #          Phase shifts are calculated for the bare nucleus.
 #          Scattering amplitudes are not evaluated.
 #
 # Element:  W,  Z =  74,  atomic weight = 1.83840E+02 g/mol
 #
 # Nuclear model: Fermi distribution
 #                Average radius = 6.08411E-13 cm
 #                Skin thickness = 5.46000E-14 cm
 #
 # Number of electrons = 74
 #
 # Total elastic cross section = 7.52203E-18 cm**2 = 2.68617E-01 a0**2
 # 1st transport cross section = 1.15342E-25 cm**2 = 4.11894E-09 a0**2
 # 2nd transport cross section = 3.45669E-25 cm**2 = 1.23441E-08 a0**2
 #
 #
 # Differential cross section:                       MU=(1-COS(THETA))/2
 #
 #  THETA        MU          DCS          DCS        Sherman      error
 #  (deg)                 (cm**2/sr)   (a0**2/sr)    function
 #----------------------------------------------------------------------
0.00000E+00 5.14757E-09
7.61557E-13 5.03059E-09
1.18994E-12 4.96681E-09
1.71346E-12 4.89070E-09
2.33225E-12 4.80327E-09
3.04617E-12 4.70523E-09
3.85530E-12 4.59892E-09
4.75964E-12 4.48409E-09
5.75917E-12 4.36379E-09
6.85391E-12 4.23710E-09
8.04379E-12 4.10741E-09
9.32893E-12 3.97415E-09
1.07092E-11 3.83967E-09
1.21847E-11 3.70429E-09
1.37554E-11 3.56903E-09
1.54213E-11 3.43519E-09
1.71823E-11 3.30242E-09
1.90386E-11 3.17297E-09
2.09900E-11 3.04518E-09
2.30367E-11 2.92186E-09
2.51785E-11 2.80105E-09
2.74156E-11 2.68497E-09
2.97478E-11 2.57242E-09
3.21752E-11 2.46437E-09
3.46979E-11 2.36052E-09
3.73157E-11 2.26082E-09
4.00286E-11 2.16571E-09
4.28368E-11 2.07432E-09
4.57402E-11 1.98769E-09
4.87388E-11 1.90432E-09
5.18325E-11 1.82551E-09
5.50215E-11 1.74993E-09
5.83057E-11 1.67836E-09
6.16850E-11 1.61004E-09
6.51595E-11 1.54514E-09
6.87293E-11 1.48345E-09
7.23943E-11 1.42465E-09
7.61544E-11 1.36895E-09
1.18991E-10 9.38644E-10
1.71347E-10 6.68630E-10
2.33223E-10 4.90792E-10
3.04617E-10 3.64415E-10
3.85531E-10 2.81509E-10
4.75965E-10 2.17769E-10
5.75917E-10 1.73356E-10
6.85389E-10 1.37880E-10
8.04380E-10 1.12060E-10
9.32891E-10 9.14881E-11
1.07092E-09 7.56937E-11
1.21847E-09 6.30617E-11
1.37554E-09 5.29445E-11
1.54213E-09 4.48066E-11
1.71823E-09 3.80650E-11
1.90386E-09 3.26144E-11
2.09900E-09 2.79789E-11
2.30367E-09 2.41963E-11
2.51785E-09 2.09496E-11
2.74156E-09 1.82538E-11
2.97478E-09 1.59441E-11
3.21752E-09 1.39903E-11
3.46978E-09 1.23172E-11
3.73156E-09 1.08811E-11
4.00286E-09 9.64979E-12
4.28368E-09 8.58070E-12
4.57402E-09 7.66126E-12
4.87388E-09 6.85545E-12
5.18326E-09 6.15797E-12
5.50215E-09 5.54453E-12
5.83057E-09 5.00897E-12
6.16850E-09 4.53742E-12
6.51596E-09 4.12024E-12
6.87293E-09 3.74954E-12
7.23942E-09 3.42034E-12
7.61544E-09 3.12787E-12
1.18991E-08 1.42185E-12
1.71347E-08 7.40000E-13
2.33223E-08 4.22256E-13
3.04617E-08 2.57816E-13
3.85531E-08 1.66070E-13
4.75965E-08 1.11758E-13
5.75917E-08 7.79537E-14
6.85389E-08 5.59939E-14
8.04380E-08 4.12623E-14
9.32891E-08 3.10732E-14
1.07092E-07 2.38443E-14
1.21847E-07 1.86048E-14
1.37554E-07 1.47282E-14
1.54213E-07 1.18118E-14
1.71823E-07 9.58380E-15
1.90386E-07 7.85637E-15
2.09900E-07 6.50148E-15
2.30367E-07 5.42631E-15
2.51785E-07 4.56409E-15
2.74156E-07 3.86648E-15
2.97478E-07 3.29694E-15
3.21752E-07 2.82835E-15
3.46978E-07 2.44008E-15
3.73156E-07 2.11601E-15
4.00286E-07 1.84396E-15
4.28368E-07 1.61421E-15
4.57402E-07 1.41908E-15
4.87388E-07 1.25255E-15
5.18325E-07 1.10971E-15
5.50215E-07 9.86645E-16
5.83057E-07 8.80174E-16
6.16850E-07 7.87666E-16
6.51596E-07 7.06997E-16
6.87293E-07 6.36395E-16
7.23942E-07 5.74382E-16
7.61543E-07 5.19745E-16
1.18991E-06 2.15100E-16
1.71347E-06 1.04480E-16
2.33223E-06 5.66954E-17
3.04617E-06 3.33676E-17
3.85531E-06 2.08961E-17
4.75964E-06 1.37437E-17
5.75916E-06 9.40556E-18
6.85388E-06 6.65161E-18
8.04378E-06 4.83564E-18
9.32888E-06 3.59915E-18
1.07092E-05 2.73376E-18
1.21846E-05 2.11350E-18
1.37553E-05 1.65958E-18
1.54212E-05 1.32124E-18
1.71822E-05 1.06489E-18
1.90385E-05 8.67331E-19
2.09899E-05 7.14354E-19
2.30365E-05 5.93568E-19
2.51783E-05 4.97129E-19
2.74153E-05 4.19398E-19
2.97475E-05 3.56232E-19
3.21749E-05 3.04521E-19
3.46974E-05 2.61888E-19
3.73152E-05 2.26496E-19
4.00281E-05 1.96910E-19
4.28362E-05 1.72013E-19
4.57395E-05 1.50930E-19
4.87380E-05 1.32974E-19
5.18317E-05 1.17603E-19
5.50205E-05 1.04385E-19
5.83045E-05 9.29708E-20
6.16838E-05 8.30766E-20
6.51582E-05 7.44674E-20
6.87277E-05 6.69483E-20
7.23925E-05 6.03571E-20
7.61524E-05 5.49192E-20
9.21439E-05 3.75922E-20
1.09658E-04 2.65985E-20
1.28695E-04 1.93533E-20
1.49255E-04 1.44183E-20
1.71338E-04 1.09639E-20
1.94942E-04 8.48629E-21
2.20070E-04 6.67182E-21
2.46720E-04 5.31820E-21
2.74892E-04 4.29161E-21
3.04586E-04 3.50146E-21
3.35803E-04 2.88510E-21
3.68542E-04 2.39865E-21
4.02802E-04 2.01054E-21
4.38585E-04 1.69782E-21
4.75889E-04 1.44353E-21
5.14715E-04 1.23505E-21
5.55063E-04 1.06280E-21
5.96931E-04 9.19465E-22
6.40321E-04 7.99411E-22
6.85233E-04 6.98236E-22
7.31665E-04 6.12487E-22
7.79618E-04 5.39420E-22
8.29092E-04 4.76851E-22
8.80086E-04 4.23019E-22
9.32601E-04 3.76500E-22
9.86636E-04 3.36136E-22
1.04219E-03 3.00974E-22
1.09927E-03 2.70231E-22
1.15786E-03 2.43258E-22
1.21797E-03 2.19515E-22
1.27961E-03 1.98550E-22
1.34276E-03 1.79982E-22
1.40743E-03 1.63492E-22
1.47362E-03 1.48807E-22
1.54133E-03 1.35697E-22
1.61056E-03 1.23963E-22
1.68131E-03 1.13438E-22
1.75357E-03 1.03976E-22
1.82735E-03 9.54505E-23
1.90265E-03 8.77545E-23
1.97947E-03 8.07934E-23
2.05780E-03 7.44854E-23
2.13765E-03 6.87589E-23
2.21902E-03 6.35515E-23
2.30190E-03 5.88084E-23
2.38630E-03 5.44814E-23
2.47222E-03 5.05279E-23
2.55965E-03 4.69106E-23
2.64859E-03 4.35961E-23
2.73905E-03 4.05550E-23
2.83103E-03 3.77611E-23
2.92452E-03 3.51912E-23
3.01952E-03 3.28244E-23
3.11604E-03 3.06421E-23
3.21407E-03 2.86278E-23
3.31362E-03 2.67663E-23
3.41468E-03 2.50445E-23
3.51725E-03 2.34501E-23
3.62133E-03 2.19722E-23
3.72692E-03 2.06012E-23
3.83403E-03 1.93281E-23
3.94265E-03 1.81448E-23
4.05278E-03 1.70441E-23
4.16442E-03 1.60193E-23
4.27757E-03 1.50645E-23
4.39223E-03 1.41743E-23
4.50840E-03 1.33435E-23
4.62608E-03 1.25677E-23
4.74527E-03 1.18427E-23
4.86597E-03 1.11648E-23
4.98817E-03 1.05304E-23
5.11188E-03 9.93637E-24
5.23711E-03 9.37982E-24
5.36383E-03 8.85805E-24
5.49207E-03 8.36860E-24
5.62181E-03 7.90921E-24
5.75306E-03 7.47780E-24
5.88581E-03 7.07243E-24
6.02007E-03 6.69135E-24
6.15583E-03 6.33292E-24
6.29310E-03 5.99561E-24
6.43187E-03 5.67805E-24
6.57214E-03 5.37893E-24
6.71392E-03 5.09705E-24
6.85720E-03 4.83131E-24
7.00198E-03 4.58067E-24
7.14827E-03 4.34418E-24
7.29605E-03 4.12095E-24
7.44534E-03 3.91016E-24
7.59612E-03 3.71104E-24
7.97965E-03 3.25970E-24
8.37255E-03 2.86705E-24
8.77480E-03 2.52475E-24
9.18641E-03 2.22579E-24
9.60736E-03 1.96422E-24
1.00376E-02 1.73500E-24
1.04773E-02 1.53381E-24
1.09262E-02 1.35698E-24
1.13844E-02 1.20137E-24
1.18520E-02 1.06426E-24
1.23288E-02 9.43313E-25
1.28150E-02 8.36525E-25
1.33104E-02 7.42146E-25
1.38150E-02 6.58666E-25
1.43290E-02 5.84767E-25
1.48521E-02 5.19304E-25
1.53845E-02 4.61278E-25
1.59262E-02 4.09815E-25
1.64770E-02 3.64149E-25
1.70371E-02 3.23610E-25
1.76063E-02 2.87609E-25
1.81848E-02 2.55628E-25
1.87724E-02 2.27208E-25
1.93692E-02 2.01950E-25
1.99751E-02 1.79496E-25
2.05901E-02 1.59534E-25
2.12143E-02 1.41785E-25
2.18476E-02 1.26004E-25
2.24900E-02 1.11972E-25
2.31415E-02 9.94966E-26
2.38021E-02 8.84057E-26
2.44717E-02 7.85468E-26
2.51504E-02 6.97847E-26
2.58382E-02 6.19987E-26
2.65349E-02 5.50816E-26
2.72407E-02 4.89380E-26
2.79555E-02 4.34828E-26
2.86793E-02 3.86405E-26
2.94120E-02 3.43434E-26
3.01537E-02 3.05314E-26
3.09043E-02 2.71510E-26
3.16639E-02 2.41542E-26
3.24324E-02 2.14986E-26
3.32098E-02 1.91460E-26
3.39961E-02 1.70627E-26
3.47912E-02 1.52183E-26
3.55952E-02 1.35861E-26
3.64081E-02 1.21419E-26
3.72297E-02 1.08644E-26
3.80602E-02 9.73460E-27
3.88995E-02 8.73552E-27
3.97476E-02 7.85208E-27
4.06044E-02 7.07086E-27
4.14700E-02 6.37994E-27
4.23443E-02 5.76871E-27
4.32273E-02 5.22777E-27
4.41190E-02 4.74877E-27
4.50194E-02 4.32431E-27
4.59284E-02 3.94783E-27
4.68461E-02 3.61354E-27
4.87074E-02 3.05160E-27
5.06030E-02 2.60425E-27
5.25328E-02 2.24493E-27
5.44967E-02 1.95311E-27
5.64946E-02 1.71301E-27
5.85262E-02 1.51260E-27
6.05914E-02 1.34276E-27
6.26901E-02 1.19662E-27
6.48222E-02 1.06906E-27
6.69873E-02 9.56271E-28
6.91854E-02 8.55467E-28
7.14163E-02 7.64608E-28
7.36799E-02 6.82208E-28
7.59760E-02 6.07188E-28
7.83043E-02 5.38757E-28
8.06647E-02 4.76322E-28
8.30571E-02 4.19430E-28
8.54812E-02 3.67711E-28
8.79369E-02 3.20855E-28
9.04240E-02 2.78579E-28
9.29422E-02 2.40616E-28
9.54915E-02 2.06707E-28
9.80716E-02 1.76592E-28
1.00682E-01 1.50009E-28
1.03323E-01 1.26695E-28
1.05995E-01 1.06388E-28
1.08696E-01 8.88254E-29
1.11427E-01 7.37506E-29
1.14188E-01 6.09128E-29
1.16978E-01 5.00709E-29
1.19797E-01 4.09946E-29
1.22645E-01 3.34672E-29
1.25522E-01 2.72859E-29
1.28428E-01 2.22636E-29
1.31361E-01 1.82293E-29
1.34323E-01 1.50279E-29
1.37313E-01 1.25205E-29
1.40330E-01 1.05840E-29
1.43375E-01 9.11040E-30
1.46447E-01 8.00593E-30
1.49545E-01 7.19023E-30
1.52671E-01 6.59528E-30
1.55823E-01 6.16431E-30
1.59001E-01 5.85065E-30
1.62205E-01 5.61663E-30
1.65435E-01 5.43251E-30
1.68690E-01 5.27535E-30
1.71970E-01 5.12811E-30
1.75276E-01 4.97864E-30
1.78606E-01 4.81888E-30
1.81961E-01 4.64410E-30
1.85340E-01 4.45217E-30
1.88743E-01 4.24299E-30
1.92169E-01 4.01796E-30
1.95619E-01 3.77954E-30
1.99092E-01 3.53087E-30
2.02589E-01 3.27546E-30
2.06107E-01 3.01694E-30
2.09649E-01 2.75888E-30
2.13212E-01 2.50463E-30
2.16797E-01 2.25721E-30
2.20404E-01 2.01925E-30
2.24032E-01 1.79297E-30
2.27680E-01 1.58011E-30
2.31350E-01 1.38200E-30
2.35040E-01 1.19951E-30
2.38751E-01 1.03315E-30
2.42481E-01 8.83041E-31
2.46231E-01 7.49009E-31
2.50000E-01 6.30607E-31
2.53788E-01 5.27165E-31
2.57595E-01 4.37840E-31
2.61421E-01 3.61652E-31
2.65264E-01 2.97531E-31
2.69126E-01 2.44349E-31
2.73005E-01 2.00956E-31
2.76901E-01 1.66204E-31
2.80814E-01 1.38972E-31
2.84744E-01 1.18188E-31
2.88691E-01 1.02840E-31
2.92653E-01 9.19893E-32
2.96632E-01 8.47781E-32
3.00625E-01 8.04345E-32
3.04634E-01 7.82742E-32
3.08658E-01 7.77000E-32
3.12697E-01 7.81999E-32
3.16749E-01 7.93434E-32
3.20816E-01 8.07760E-32
3.24896E-01 8.22141E-32
3.28990E-01 8.34377E-32
3.33097E-01 8.42842E-32
3.37216E-01 8.46414E-32
3.41348E-01 8.44402E-32
3.45492E-01 8.36483E-32
3.49647E-01 8.22638E-32
3.53814E-01 8.03093E-32
3.57992E-01 7.78260E-32
3.62181E-01 7.48697E-32
3.66381E-01 7.15054E-32
3.70590E-01 6.78044E-32
3.74810E-01 6.38404E-32
3.79039E-01 5.96871E-32
3.83277E-01 5.54159E-32
3.87524E-01 5.10944E-32
3.91780E-01 4.67845E-32
3.96044E-01 4.25419E-32
4.00316E-01 3.84155E-32
4.04596E-01 3.44469E-32
4.08882E-01 3.06703E-32
4.13176E-01 2.71130E-32
4.17476E-01 2.37951E-32
4.21783E-01 2.07306E-32
4.26095E-01 1.79273E-32
4.30413E-01 1.53881E-32
4.34737E-01 1.31107E-32
4.39065E-01 1.10892E-32
4.43398E-01 9.31410E-33
4.47736E-01 7.77325E-33
4.52077E-01 6.45231E-33
4.56422E-01 5.33535E-33
4.60770E-01 4.40537E-33
4.65122E-01 3.64477E-33
4.69476E-01 3.03573E-33
4.73832E-01 2.56060E-33
4.78190E-01 2.20216E-33
4.82550E-01 1.94389E-33
4.86912E-01 1.77019E-33
4.91274E-01 1.66648E-33
4.95637E-01 1.61934E-33
5.00000E-01 1.61659E-33
5.04363E-01 1.64728E-33
5.08726E-01 1.70176E-33
5.13088E-01 1.77160E-33
5.17450E-01 1.84959E-33
5.21810E-01 1.92967E-33
5.26168E-01 2.00685E-33
5.30524E-01 2.07715E-33
5.34878E-01 2.13749E-33
5.39230E-01 2.18563E-33
5.43578E-01 2.22004E-33
5.47923E-01 2.23984E-33
5.52264E-01 2.24470E-33
5.56602E-01 2.23475E-33
5.60935E-01 2.21051E-33
5.65263E-01 2.17279E-33
5.69587E-01 2.12266E-33
5.73905E-01 2.06135E-33
5.78217E-01 1.99022E-33
5.82524E-01 1.91069E-33
5.86824E-01 1.82421E-33
5.91118E-01 1.73223E-33
5.95404E-01 1.63615E-33
5.99684E-01 1.53731E-33
6.03956E-01 1.43697E-33
6.08220E-01 1.33629E-33
6.12476E-01 1.23632E-33
6.16723E-01 1.13801E-33
6.20961E-01 1.04217E-33
6.25190E-01 9.49514E-34
6.29410E-01 8.60620E-34
6.33619E-01 7.75967E-34
6.37819E-01 6.95928E-34
6.42008E-01 6.20774E-34
6.46186E-01 5.50683E-34
6.50353E-01 4.85754E-34
6.54508E-01 4.26009E-34
6.58652E-01 3.71404E-34
6.62784E-01 3.21839E-34
6.66903E-01 2.77165E-34
6.71010E-01 2.37193E-34
6.75104E-01 2.01702E-34
6.79184E-01 1.70445E-34
6.83251E-01 1.43156E-34
6.87303E-01 1.19556E-34
6.91342E-01 9.93611E-35
6.95366E-01 8.22824E-35
6.99375E-01 6.80339E-35
7.03368E-01 5.63349E-35
7.07347E-01 4.69129E-35
7.11309E-01 3.95063E-35
7.15256E-01 3.38663E-35
7.19186E-01 2.97584E-35
7.23099E-01 2.69635E-35
7.26995E-01 2.52787E-35
7.30874E-01 2.45176E-35
7.34736E-01 2.45103E-35
7.38579E-01 2.51037E-35
7.42405E-01 2.61604E-35
7.46212E-01 2.75589E-35
7.50000E-01 2.91924E-35
7.53769E-01 3.09684E-35
7.57519E-01 3.28074E-35
7.61249E-01 3.46423E-35
7.64960E-01 3.64176E-35
7.68650E-01 3.80877E-35
7.72320E-01 3.96168E-35
7.75968E-01 4.09775E-35
7.79596E-01 4.21496E-35
7.83203E-01 4.31199E-35
7.86788E-01 4.38808E-35
7.90351E-01 4.44294E-35
7.93893E-01 4.47675E-35
7.97411E-01 4.49001E-35
8.00908E-01 4.48351E-35
8.04381E-01 4.45828E-35
8.07831E-01 4.41551E-35
8.11257E-01 4.35656E-35
8.14660E-01 4.28284E-35
8.18039E-01 4.19584E-35
8.21394E-01 4.09705E-35
8.24724E-01 3.98799E-35
8.28030E-01 3.87013E-35
8.31310E-01 3.74491E-35
8.34565E-01 3.61370E-35
8.37795E-01 3.47782E-35
8.40999E-01 3.33849E-35
8.44177E-01 3.19684E-35
8.47329E-01 3.05395E-35
8.50455E-01 2.91078E-35
8.53553E-01 2.76819E-35
8.56625E-01 2.62695E-35
8.59670E-01 2.48777E-35
8.62687E-01 2.35125E-35
8.65677E-01 2.21790E-35
8.68639E-01 2.08817E-35
8.71572E-01 1.96243E-35
8.74478E-01 1.84098E-35
8.77355E-01 1.72404E-35
8.80203E-01 1.61181E-35
8.83022E-01 1.50440E-35
8.85812E-01 1.40190E-35
8.88573E-01 1.30433E-35
8.91304E-01 1.21168E-35
8.94005E-01 1.12393E-35
8.96677E-01 1.04100E-35
8.99318E-01 9.62806E-36
9.01928E-01 8.89221E-36
9.04508E-01 8.20120E-36
9.07058E-01 7.55360E-36
9.09576E-01 6.94782E-36
9.12063E-01 6.38216E-36
9.14519E-01 5.85498E-36
9.16943E-01 5.36444E-36
9.19335E-01 4.90884E-36
9.21696E-01 4.48629E-36
9.24024E-01 4.09511E-36
9.26320E-01 3.73345E-36
9.28584E-01 3.39967E-36
9.30815E-01 3.09200E-36
9.33013E-01 2.80889E-36
9.35178E-01 2.54869E-36
9.37310E-01 2.30987E-36
9.39409E-01 2.09105E-36
9.41474E-01 1.89077E-36
9.43505E-01 1.70772E-36
9.45503E-01 1.54062E-36
9.47467E-01 1.38833E-36
9.49397E-01 1.24965E-36
9.51293E-01 1.12360E-36
9.53154E-01 1.00909E-36
9.54981E-01 9.05272E-37
9.56773E-01 8.11208E-37
9.58530E-01 7.26107E-37
9.60252E-01 6.49239E-37
9.61940E-01 5.79835E-37
9.63592E-01 5.17298E-37
9.65209E-01 4.60986E-37
9.66790E-01 4.10360E-37
9.68336E-01 3.64902E-37
9.69846E-01 3.24109E-37
9.71321E-01 2.87575E-37
9.72759E-01 2.54884E-37
9.74162E-01 2.25643E-37
9.75528E-01 1.99548E-37
9.76858E-01 1.76282E-37
9.78152E-01 1.55555E-37
9.79410E-01 1.37113E-37
9.80631E-01 1.20732E-37
9.81815E-01 1.06164E-37
9.82963E-01 9.32529E-38
9.84074E-01 8.18077E-38
9.85148E-01 7.16830E-38
9.86185E-01 6.27225E-38
9.87185E-01 5.48002E-38
9.88148E-01 4.78112E-38
9.89074E-01 4.16454E-38
9.89962E-01 3.62077E-38
9.90814E-01 3.14115E-38
9.91627E-01 2.71910E-38
9.92404E-01 2.34783E-38
9.93143E-01 2.02077E-38
9.93844E-01 1.73363E-38
9.94508E-01 1.48103E-38
9.95134E-01 1.25960E-38
9.95722E-01 1.06566E-38
9.96273E-01 8.95311E-39
9.96786E-01 7.46258E-39
9.97261E-01 6.16578E-39
9.97698E-01 5.03239E-39
9.98097E-01 4.05085E-39
9.98459E-01 3.20430E-39
9.98782E-01 2.48169E-39
9.99067E-01 1.86562E-39
9.99315E-01 1.34879E-39
9.99524E-01 9.25800E-40
9.99695E-01 5.86119E-40
9.99829E-01 3.28455E-40
9.99924E-01 1.46443E-40
9.99981E-01 3.83583E-41
1.00000E+00 2.78568E-42
