 #
 # Subroutine ELSEPA. Elastic scattering of electrons and positrons
 #                    by neutral atoms and positive ions
 #
 # Projectile: electron
 # Kinetic energy = 6.00000E+08 eV = 2.20496E+07 a.u.
 #
 # WARNING: High-energy factorization with free-atom DF screening.
 #          Absorption, polarization and exchange corrections are
 #          switched off.
 #          Phase shifts are calculated for the bare nucleus.
 #          Scattering amplitudes are not evaluated.
 #
 # Element:  W,  Z =  74,  atomic weight = 1.83840E+02 g/mol
 #
 # Nuclear model: Fermi distribution
 #                Average radius = 6.08411E-13 cm
 #                Skin thickness = 5.46000E-14 cm
 #
 # Number of electrons = 74
 #
 # Total elastic cross section = 7.51022E-18 cm**2 = 2.68195E-01 a0**2
 # 1st transport cross section = 2.87728E-26 cm**2 = 1.02750E-09 a0**2
 # 2nd transport cross section = 8.62955E-26 cm**2 = 3.08167E-09 a0**2
 #
 #
 # Differential cross section:                       MU=(1-COS(THETA))/2
 #
 #  THETA        MU          DCS          DCS        Sherman      error
 #  (deg)                 (cm**2/sr)   (a0**2/sr)    function
 #----------------------------------------------------------------------
0.00000E+00 2.05553E-08
7.61557E-13 1.87917E-08
1.18994E-12 1.79098E-08
1.71346E-12 1.69248E-08
2.33225E-12 1.58759E-08
3.04617E-12 1.47992E-08
3.85530E-12 1.37255E-08
4.75964E-12 1.26789E-08
5.75917E-12 1.16768E-08
6.85391E-12 1.07310E-08
8.04379E-12 9.85013E-09
9.32893E-12 9.03719E-09
1.07092E-11 8.29224E-09
1.21847E-11 7.61312E-09
1.37554E-11 6.99626E-09
1.54213E-11 6.43727E-09
1.71823E-11 5.93141E-09
1.90386E-11 5.47381E-09
2.09900E-11 5.05979E-09
2.30367E-11 4.68437E-09
2.51785E-11 4.34396E-09
2.74156E-11 4.03492E-09
2.97478E-11 3.75388E-09
3.21752E-11 3.49783E-09
3.46979E-11 3.26407E-09
3.73157E-11 3.05026E-09
4.00286E-11 2.85429E-09
4.28368E-11 2.67432E-09
4.57402E-11 2.50874E-09
4.87388E-11 2.35604E-09
5.18325E-11 2.21484E-09
5.50215E-11 2.08425E-09
5.83057E-11 1.96329E-09
6.16850E-11 1.85108E-09
6.51595E-11 1.74277E-09
6.87293E-11 1.63863E-09
7.23943E-11 1.54405E-09
7.61544E-11 1.45796E-09
1.18991E-10 8.71389E-10
1.71347E-10 5.51785E-10
2.33223E-10 3.66161E-10
3.04617E-10 2.52411E-10
3.85531E-10 1.79358E-10
4.75965E-10 1.30564E-10
5.75917E-10 9.68872E-11
6.85389E-10 7.30961E-11
8.04380E-10 5.60259E-11
9.32891E-10 4.35765E-11
1.07092E-09 3.43647E-11
1.21847E-09 2.74557E-11
1.37554E-09 2.22057E-11
1.54213E-09 1.81722E-11
1.71823E-09 1.50170E-11
1.90386E-09 1.25272E-11
2.09900E-09 1.05454E-11
2.30367E-09 8.94931E-12
2.51785E-09 7.65009E-12
2.74156E-09 6.58156E-12
2.97478E-09 5.69467E-12
3.21752E-09 4.95281E-12
3.46978E-09 4.32820E-12
3.73156E-09 3.79929E-12
4.00286E-09 3.34906E-12
4.28368E-09 2.96386E-12
4.57402E-09 2.63261E-12
4.87388E-09 2.34632E-12
5.18326E-09 2.09767E-12
5.50215E-09 1.88093E-12
5.83057E-09 1.69132E-12
6.16850E-09 1.52490E-12
6.51596E-09 1.37791E-12
6.87293E-09 1.24800E-12
7.23942E-09 1.13365E-12
7.61544E-09 1.03266E-12
1.18991E-08 4.47660E-13
1.71347E-08 2.24295E-13
2.33223E-08 1.24471E-13
3.04617E-08 7.45246E-14
3.85531E-08 4.73141E-14
4.75965E-08 3.14699E-14
5.75917E-08 2.17358E-14
6.85389E-08 1.54875E-14
8.04380E-08 1.13291E-14
9.32891E-08 8.47568E-15
1.07092E-07 6.46564E-15
1.21847E-07 5.01694E-15
1.37554E-07 3.95185E-15
1.54213E-07 3.15483E-15
1.71823E-07 2.54890E-15
1.90386E-07 2.08166E-15
2.09900E-07 1.71674E-15
2.30367E-07 1.42840E-15
2.51785E-07 1.19815E-15
2.74156E-07 1.01248E-15
2.97478E-07 8.61438E-16
3.21752E-07 7.37551E-16
3.46978E-07 6.35162E-16
3.73156E-07 5.49945E-16
4.00286E-07 4.78556E-16
4.28368E-07 4.18388E-16
4.57402E-07 3.67388E-16
4.87388E-07 3.23929E-16
5.18325E-07 2.86711E-16
5.50215E-07 2.54689E-16
5.83057E-07 2.27015E-16
6.16850E-07 2.03000E-16
6.51596E-07 1.82078E-16
6.87293E-07 1.63784E-16
7.23942E-07 1.47730E-16
7.61543E-07 1.33596E-16
1.18991E-06 5.50166E-17
1.71347E-06 2.66220E-17
2.33223E-06 1.44024E-17
3.04617E-06 8.45589E-18
3.85531E-06 5.28518E-18
4.75964E-06 3.47074E-18
5.75916E-06 2.37227E-18
6.85388E-06 1.67598E-18
8.04378E-06 1.21742E-18
9.32888E-06 9.05504E-19
1.07092E-05 6.87394E-19
1.21846E-05 5.31181E-19
1.37553E-05 4.16933E-19
1.54212E-05 3.31819E-19
1.71822E-05 2.67361E-19
1.90385E-05 2.17706E-19
2.09899E-05 1.79268E-19
2.30365E-05 1.48929E-19
2.51783E-05 1.24711E-19
2.74153E-05 1.05196E-19
2.97475E-05 8.93402E-20
3.21749E-05 7.63628E-20
3.46974E-05 6.56655E-20
3.73152E-05 5.67859E-20
4.00281E-05 4.93644E-20
4.28362E-05 4.31198E-20
4.57395E-05 3.78323E-20
4.87380E-05 3.33295E-20
5.18317E-05 2.94752E-20
5.50205E-05 2.61611E-20
5.83045E-05 2.32996E-20
6.16838E-05 2.08193E-20
6.51582E-05 1.86613E-20
6.87277E-05 1.67769E-20
7.23925E-05 1.51252E-20
7.61524E-05 1.38996E-20
9.21439E-05 9.51297E-21
1.09658E-04 6.72705E-21
1.28695E-04 4.88948E-21
1.49255E-04 3.63700E-21
1.71338E-04 2.75985E-21
1.94942E-04 2.13058E-21
2.20070E-04 1.66972E-21
2.46720E-04 1.32599E-21
2.74892E-04 1.06542E-21
3.04586E-04 8.65053E-22
3.35803E-04 7.08960E-22
3.68542E-04 5.85943E-22
4.02802E-04 4.87967E-22
4.38585E-04 4.09185E-22
4.75889E-04 3.45282E-22
5.14715E-04 2.93033E-22
5.55063E-04 2.49999E-22
5.96931E-04 2.14314E-22
6.40321E-04 1.84539E-22
6.85233E-04 1.59551E-22
7.31665E-04 1.38469E-22
7.79618E-04 1.20593E-22
8.29092E-04 1.05366E-22
8.80086E-04 9.23400E-23
9.32601E-04 8.11510E-23
9.86636E-04 7.15041E-23
1.04219E-03 6.31573E-23
1.09927E-03 5.59117E-23
1.15786E-03 4.96023E-23
1.21797E-03 4.40922E-23
1.27961E-03 3.92670E-23
1.34276E-03 3.50305E-23
1.40743E-03 3.13020E-23
1.47362E-03 2.80130E-23
1.54133E-03 2.51053E-23
1.61056E-03 2.25296E-23
1.68131E-03 2.02435E-23
1.75357E-03 1.82109E-23
1.82735E-03 1.64003E-23
1.90265E-03 1.47851E-23
1.97947E-03 1.33419E-23
2.05780E-03 1.20504E-23
2.13765E-03 1.08933E-23
2.21902E-03 9.85502E-24
2.30190E-03 8.92237E-24
2.38630E-03 8.08358E-24
2.47222E-03 7.32839E-24
2.55965E-03 6.64776E-24
2.64859E-03 6.03372E-24
2.73905E-03 5.47926E-24
2.83103E-03 4.97815E-24
2.92452E-03 4.52489E-24
3.01952E-03 4.11460E-24
3.11604E-03 3.74293E-24
3.21407E-03 3.40601E-24
3.31362E-03 3.10041E-24
3.41468E-03 2.82305E-24
3.51725E-03 2.57118E-24
3.62133E-03 2.34233E-24
3.72692E-03 2.13430E-24
3.83403E-03 1.94511E-24
3.94265E-03 1.77299E-24
4.05278E-03 1.61633E-24
4.16442E-03 1.47370E-24
4.27757E-03 1.34379E-24
4.39223E-03 1.22544E-24
4.50840E-03 1.11760E-24
4.62608E-03 1.01930E-24
4.74527E-03 9.29680E-25
4.86597E-03 8.47963E-25
4.98817E-03 7.73439E-25
5.11188E-03 7.05465E-25
5.23711E-03 6.43459E-25
5.36383E-03 5.86893E-25
5.49207E-03 5.35285E-25
5.62181E-03 4.88199E-25
5.75306E-03 4.45238E-25
5.88581E-03 4.06040E-25
6.02007E-03 3.70277E-25
6.15583E-03 3.37648E-25
6.29310E-03 3.07881E-25
6.43187E-03 2.80727E-25
6.57214E-03 2.55958E-25
6.71392E-03 2.33368E-25
6.85720E-03 2.12766E-25
7.00198E-03 1.93981E-25
7.14827E-03 1.76856E-25
7.29605E-03 1.61245E-25
7.44534E-03 1.47017E-25
7.59612E-03 1.34052E-25
7.97965E-03 1.06469E-25
8.37255E-03 8.46442E-26
8.77480E-03 6.73989E-26
9.18641E-03 5.37904E-26
9.60736E-03 4.30652E-26
1.00376E-02 3.46215E-26
1.04773E-02 2.79788E-26
1.09262E-02 2.27544E-26
1.13844E-02 1.86436E-26
1.18520E-02 1.54048E-26
1.23288E-02 1.28466E-26
1.28150E-02 1.08180E-26
1.33104E-02 9.20045E-27
1.38150E-02 7.90095E-27
1.43290E-02 6.84711E-27
1.48521E-02 5.98281E-27
1.53845E-02 5.26478E-27
1.59262E-02 4.65990E-27
1.64770E-02 4.14295E-27
1.70371E-02 3.69489E-27
1.76063E-02 3.30145E-27
1.81848E-02 2.95200E-27
1.87724E-02 2.63868E-27
1.93692E-02 2.35571E-27
1.99751E-02 2.09885E-27
2.05901E-02 1.86497E-27
2.12143E-02 1.65176E-27
2.18476E-02 1.45743E-27
2.24900E-02 1.28061E-27
2.31415E-02 1.12015E-27
2.38021E-02 9.75059E-28
2.44717E-02 8.44429E-28
2.51504E-02 7.27398E-28
2.58382E-02 6.23119E-28
2.65349E-02 5.30750E-28
2.72407E-02 4.49444E-28
2.79555E-02 3.78353E-28
2.86793E-02 3.16632E-28
2.94120E-02 2.63443E-28
3.01537E-02 2.17966E-28
3.09043E-02 1.79404E-28
3.16639E-02 1.46991E-28
3.24324E-02 1.20000E-28
3.32098E-02 9.77477E-29
3.39961E-02 7.95954E-29
3.47912E-02 6.49563E-29
3.55952E-02 5.32947E-29
3.64081E-02 4.41273E-29
3.72297E-02 3.70223E-29
3.80602E-02 3.15985E-29
3.88995E-02 2.75226E-29
3.97476E-02 2.45073E-29
4.06044E-02 2.23078E-29
4.14700E-02 2.07184E-29
4.23443E-02 1.95689E-29
4.32273E-02 1.87213E-29
4.41190E-02 1.80657E-29
4.50194E-02 1.75170E-29
4.59284E-02 1.70113E-29
4.68461E-02 1.65030E-29
4.87074E-02 1.53675E-29
5.06030E-02 1.39981E-29
5.25328E-02 1.24062E-29
5.44967E-02 1.06699E-29
5.64946E-02 8.89267E-30
5.85262E-02 7.17519E-30
6.05914E-02 5.59998E-30
6.26901E-02 4.22383E-30
6.48222E-02 3.07675E-30
6.69873E-02 2.16488E-30
6.91854E-02 1.47548E-30
7.14163E-02 9.82759E-31
7.36799E-02 6.53516E-31
7.59760E-02 4.51974E-31
7.83043E-02 3.43559E-31
8.06647E-02 2.97504E-31
8.30571E-02 2.88356E-31
8.54812E-02 2.96561E-31
8.79369E-02 3.08332E-31
9.04240E-02 3.15029E-31
9.29422E-02 3.12249E-31
9.54915E-02 2.98805E-31
9.80716E-02 2.75717E-31
1.00682E-01 2.45314E-31
1.03323E-01 2.10496E-31
1.05995E-01 1.74176E-31
1.08696E-01 1.38908E-31
1.11427E-01 1.06669E-31
1.14188E-01 7.87792E-32
1.16978E-01 5.59193E-32
1.19797E-01 3.82133E-32
1.22645E-01 2.53508E-32
1.25522E-01 1.67215E-32
1.28428E-01 1.15448E-32
1.31361E-01 8.98266E-33
1.34323E-01 8.22831E-33
1.37313E-01 8.56850E-33
1.40330E-01 9.42074E-33
1.43375E-01 1.03483E-32
1.46447E-01 1.10576E-32
1.49545E-01 1.13831E-32
1.52671E-01 1.12650E-32
1.55823E-01 1.07221E-32
1.59001E-01 9.82658E-33
1.62205E-01 8.67953E-33
1.65435E-01 7.39148E-33
1.68690E-01 6.06730E-33
1.71970E-01 4.79613E-33
1.75276E-01 3.64563E-33
1.78606E-01 2.66015E-33
1.81961E-01 1.86172E-33
1.85340E-01 1.25303E-33
1.88743E-01 8.21625E-34
1.92169E-01 5.44492E-34
1.95619E-01 3.92526E-34
1.99092E-01 3.34476E-34
2.02589E-01 3.40111E-34
2.06107E-01 3.82520E-34
2.09649E-01 4.39546E-34
2.13212E-01 4.94439E-34
2.16797E-01 5.35871E-34
2.20404E-01 5.57469E-34
2.24032E-01 5.57031E-34
2.27680E-01 5.35578E-34
2.31350E-01 4.96369E-34
2.35040E-01 4.43963E-34
2.38751E-01 3.83428E-34
2.42481E-01 3.19694E-34
2.46231E-01 2.57100E-34
2.50000E-01 1.99108E-34
2.53788E-01 1.48173E-34
2.57595E-01 1.05743E-34
2.61421E-01 7.23448E-35
2.65264E-01 4.77432E-35
2.69126E-01 3.11217E-35
2.73005E-01 2.12787E-35
2.76901E-01 1.68086E-35
2.80814E-01 1.62595E-35
2.84744E-01 1.82577E-35
2.88691E-01 2.15975E-35
2.92653E-01 2.52957E-35
2.96632E-01 2.86151E-35
3.00625E-01 3.10629E-35
3.04634E-01 3.23691E-35
3.08658E-01 3.24522E-35
3.12697E-01 3.13787E-35
3.16749E-01 2.93187E-35
3.20816E-01 2.65055E-35
3.24896E-01 2.31991E-35
3.28990E-01 1.96567E-35
3.33097E-01 1.61103E-35
3.37216E-01 1.27523E-35
3.41348E-01 9.72756E-36
3.45492E-01 7.13140E-36
3.49647E-01 5.01231E-36
3.53814E-01 3.37770E-36
3.57992E-01 2.20179E-36
3.62181E-01 1.43443E-36
3.66381E-01 1.00978E-36
3.70590E-01 8.54419E-37
3.74810E-01 8.94135E-37
3.79039E-01 1.05939E-36
3.83277E-01 1.28917E-36
3.87524E-01 1.53335E-36
3.91780E-01 1.75381E-36
3.96044E-01 1.92432E-36
4.00316E-01 2.02967E-36
4.04596E-01 2.06418E-36
4.08882E-01 2.02982E-36
4.13176E-01 1.93428E-36
4.17476E-01 1.78900E-36
4.21783E-01 1.60742E-36
4.26095E-01 1.40346E-36
4.30413E-01 1.19037E-36
4.34737E-01 9.79861E-37
4.39065E-01 7.81495E-37
4.43398E-01 6.02475E-37
4.47736E-01 4.47582E-37
4.52077E-01 3.19319E-37
4.56422E-01 2.18189E-37
4.60770E-01 1.43054E-37
4.65122E-01 1.00000E-45
4.69476E-01 1.00000E-45
4.73832E-01 1.00000E-45
4.78190E-01 1.00000E-45
4.82550E-01 1.00000E-45
4.86912E-01 1.00000E-45
4.91274E-01 1.00000E-45
4.95637E-01 1.00000E-45
5.00000E-01 1.00000E-45
5.04363E-01 1.00000E-45
5.08726E-01 1.00000E-45
5.13088E-01 1.00000E-45
5.17450E-01 1.00000E-45
5.21810E-01 1.00000E-45
5.26168E-01 1.00000E-45
5.30524E-01 1.00000E-45
5.34878E-01 1.00000E-45
5.39230E-01 1.00000E-45
5.43578E-01 1.00000E-45
5.47923E-01 1.00000E-45
5.52264E-01 1.00000E-45
5.56602E-01 1.00000E-45
5.60935E-01 1.00000E-45
5.65263E-01 1.00000E-45
5.69587E-01 1.00000E-45
5.73905E-01 1.00000E-45
5.78217E-01 1.00000E-45
5.82524E-01 1.00000E-45
5.86824E-01 1.00000E-45
5.91118E-01 1.00000E-45
5.95404E-01 1.00000E-45
5.99684E-01 1.00000E-45
6.03956E-01 1.00000E-45
6.08220E-01 1.00000E-45
6.12476E-01 1.00000E-45
6.16723E-01 1.00000E-45
6.20961E-01 1.00000E-45
6.25190E-01 1.00000E-45
6.29410E-01 1.00000E-45
6.33619E-01 1.00000E-45
6.37819E-01 1.00000E-45
6.42008E-01 1.00000E-45
6.46186E-01 1.00000E-45
6.50353E-01 1.00000E-45
6.54508E-01 1.00000E-45
6.58652E-01 1.00000E-45
6.62784E-01 1.00000E-45
6.66903E-01 1.00000E-45
6.71010E-01 1.00000E-45
6.75104E-01 1.00000E-45
6.79184E-01 1.00000E-45
6.83251E-01 1.00000E-45
6.87303E-01 1.00000E-45
6.91342E-01 1.00000E-45
6.95366E-01 1.00000E-45
6.99375E-01 1.00000E-45
7.03368E-01 1.00000E-45
7.07347E-01 1.00000E-45
7.11309E-01 1.00000E-45
7.15256E-01 1.00000E-45
7.19186E-01 1.00000E-45
7.23099E-01 1.00000E-45
7.26995E-01 1.00000E-45
7.30874E-01 1.00000E-45
7.34736E-01 1.00000E-45
7.38579E-01 1.00000E-45
7.42405E-01 1.00000E-45
7.46212E-01 1.00000E-45
7.50000E-01 1.00000E-45
7.53769E-01 1.00000E-45
7.57519E-01 1.00000E-45
7.61249E-01 1.00000E-45
7.64960E-01 1.00000E-45
7.68650E-01 1.00000E-45
7.72320E-01 1.00000E-45
7.75968E-01 1.00000E-45
7.79596E-01 1.00000E-45
7.83203E-01 1.00000E-45
7.86788E-01 1.00000E-45
7.90351E-01 1.00000E-45
7.93893E-01 1.00000E-45
7.97411E-01 1.00000E-45
8.00908E-01 1.00000E-45
8.04381E-01 1.00000E-45
8.07831E-01 1.00000E-45
8.11257E-01 1.00000E-45
8.14660E-01 1.00000E-45
8.18039E-01 1.00000E-45
8.21394E-01 1.00000E-45
8.24724E-01 1.00000E-45
8.28030E-01 1.00000E-45
8.31310E-01 1.00000E-45
8.34565E-01 1.00000E-45
8.37795E-01 1.00000E-45
8.40999E-01 1.00000E-45
8.44177E-01 1.00000E-45
8.47329E-01 1.00000E-45
8.50455E-01 1.00000E-45
8.53553E-01 1.00000E-45
8.56625E-01 1.00000E-45
8.59670E-01 1.00000E-45
8.62687E-01 1.00000E-45
8.65677E-01 1.00000E-45
8.68639E-01 1.00000E-45
8.71572E-01 1.00000E-45
8.74478E-01 1.00000E-45
8.77355E-01 1.00000E-45
8.80203E-01 1.00000E-45
8.83022E-01 1.00000E-45
8.85812E-01 1.00000E-45
8.88573E-01 1.00000E-45
8.91304E-01 1.00000E-45
8.94005E-01 1.00000E-45
8.96677E-01 1.00000E-45
8.99318E-01 1.00000E-45
9.01928E-01 1.00000E-45
9.04508E-01 1.00000E-45
9.07058E-01 1.00000E-45
9.09576E-01 1.00000E-45
9.12063E-01 1.00000E-45
9.14519E-01 1.00000E-45
9.16943E-01 1.00000E-45
9.19335E-01 1.00000E-45
9.21696E-01 1.00000E-45
9.24024E-01 1.00000E-45
9.26320E-01 1.00000E-45
9.28584E-01 1.00000E-45
9.30815E-01 1.00000E-45
9.33013E-01 1.00000E-45
9.35178E-01 1.00000E-45
9.37310E-01 1.00000E-45
9.39409E-01 1.00000E-45
9.41474E-01 1.00000E-45
9.43505E-01 1.00000E-45
9.45503E-01 1.00000E-45
9.47467E-01 1.00000E-45
9.49397E-01 1.00000E-45
9.51293E-01 1.00000E-45
9.53154E-01 1.00000E-45
9.54981E-01 1.00000E-45
9.56773E-01 1.00000E-45
9.58530E-01 1.00000E-45
9.60252E-01 1.00000E-45
9.61940E-01 1.00000E-45
9.63592E-01 1.00000E-45
9.65209E-01 1.00000E-45
9.66790E-01 1.00000E-45
9.68336E-01 1.00000E-45
9.69846E-01 1.00000E-45
9.71321E-01 1.00000E-45
9.72759E-01 1.00000E-45
9.74162E-01 1.00000E-45
9.75528E-01 1.00000E-45
9.76858E-01 1.00000E-45
9.78152E-01 1.00000E-45
9.79410E-01 1.00000E-45
9.80631E-01 1.00000E-45
9.81815E-01 1.00000E-45
9.82963E-01 1.00000E-45
9.84074E-01 1.00000E-45
9.85148E-01 1.00000E-45
9.86185E-01 1.00000E-45
9.87185E-01 1.00000E-45
9.88148E-01 1.00000E-45
9.89074E-01 1.00000E-45
9.89962E-01 1.00000E-45
9.90814E-01 1.00000E-45
9.91627E-01 1.00000E-45
9.92404E-01 1.00000E-45
9.93143E-01 1.00000E-45
9.93844E-01 1.00000E-45
9.94508E-01 1.00000E-45
9.95134E-01 1.00000E-45
9.95722E-01 1.00000E-45
9.96273E-01 1.00000E-45
9.96786E-01 1.00000E-45
9.97261E-01 1.00000E-45
9.97698E-01 1.00000E-45
9.98097E-01 1.00000E-45
9.98459E-01 1.00000E-45
9.98782E-01 1.00000E-45
9.99067E-01 1.00000E-45
9.99315E-01 1.00000E-45
9.99524E-01 1.00000E-45
9.99695E-01 1.00000E-45
9.99829E-01 1.00000E-45
9.99924E-01 1.00000E-45
9.99981E-01 1.00000E-45
1.00000E+00 1.00000E-45
