 #
 # Subroutine ELSEPA. Elastic scattering of electrons and positrons
 #                    by neutral atoms and positive ions
 #
 # Projectile: electron
 # Kinetic energy = 1.00000E+07 eV = 3.67493E+05 a.u.
 #
 # WARNING: High-energy factorization with free-atom DF screening.
 #          Absorption, polarization and exchange corrections are
 #          switched off.
 #          Phase shifts are calculated for the bare nucleus.
 #          Scattering amplitudes are not evaluated.
 #
 # Element:  W,  Z =  74,  atomic weight = 1.83840E+02 g/mol
 #
 # Nuclear model: Fermi distribution
 #                Average radius = 6.08411E-13 cm
 #                Skin thickness = 5.46000E-14 cm
 #
 # Number of electrons = 74
 #
 # Total elastic cross section = 7.54272E-18 cm**2 = 2.69355E-01 a0**2
 # 1st transport cross section = 8.88758E-23 cm**2 = 3.17381E-06 a0**2
 # 2nd transport cross section = 2.45012E-22 cm**2 = 8.74953E-06 a0**2
 #
 #
 # Differential cross section:                       MU=(1-COS(THETA))/2
 #
 #  THETA        MU          DCS          DCS        Sherman      error
 #  (deg)                 (cm**2/sr)   (a0**2/sr)    function
 #----------------------------------------------------------------------
0.00000E+00 6.29752E-12
7.61557E-13 6.29734E-12
1.18994E-12 6.29723E-12
1.71346E-12 6.29711E-12
2.33225E-12 6.29697E-12
3.04617E-12 6.29680E-12
3.85530E-12 6.29661E-12
4.75964E-12 6.29640E-12
5.75917E-12 6.29616E-12
6.85391E-12 6.29591E-12
8.04379E-12 6.29563E-12
9.32893E-12 6.29533E-12
1.07092E-11 6.29500E-12
1.21847E-11 6.29466E-12
1.37554E-11 6.29429E-12
1.54213E-11 6.29390E-12
1.71823E-11 6.29349E-12
1.90386E-11 6.29305E-12
2.09900E-11 6.29260E-12
2.30367E-11 6.29212E-12
2.51785E-11 6.29162E-12
2.74156E-11 6.29110E-12
2.97478E-11 6.29055E-12
3.21752E-11 6.28999E-12
3.46979E-11 6.28940E-12
3.73157E-11 6.28879E-12
4.00286E-11 6.28816E-12
4.28368E-11 6.28750E-12
4.57402E-11 6.28682E-12
4.87388E-11 6.28612E-12
5.18325E-11 6.28540E-12
5.50215E-11 6.28466E-12
5.83057E-11 6.28390E-12
6.16850E-11 6.28311E-12
6.51595E-11 6.28230E-12
6.87293E-11 6.28147E-12
7.23943E-11 6.28062E-12
7.61544E-11 6.27974E-12
1.18991E-10 6.26979E-12
1.71347E-10 6.25767E-12
2.33223E-10 6.24340E-12
3.04617E-10 6.22700E-12
3.85531E-10 6.20850E-12
4.75965E-10 6.18794E-12
5.75917E-10 6.16535E-12
6.85389E-10 6.14076E-12
8.04380E-10 6.11423E-12
9.32891E-10 6.08579E-12
1.07092E-09 6.05549E-12
1.21847E-09 6.02339E-12
1.37554E-09 5.98953E-12
1.54213E-09 5.95397E-12
1.71823E-09 5.91676E-12
1.90386E-09 5.87797E-12
2.09900E-09 5.83762E-12
2.30367E-09 5.79552E-12
2.51785E-09 5.75217E-12
2.74156E-09 5.70763E-12
2.97478E-09 5.66200E-12
3.21752E-09 5.61534E-12
3.46978E-09 5.56687E-12
3.73156E-09 5.51739E-12
4.00286E-09 5.46710E-12
4.28368E-09 5.41609E-12
4.57402E-09 5.36443E-12
4.87388E-09 5.31141E-12
5.18326E-09 5.25744E-12
5.50215E-09 5.20303E-12
5.83057E-09 5.14826E-12
6.16850E-09 5.09318E-12
6.51596E-09 5.03731E-12
6.87293E-09 4.98045E-12
7.23942E-09 4.92350E-12
7.61544E-09 4.86650E-12
1.18991E-08 4.28960E-12
1.71347E-08 3.73178E-12
2.33223E-08 3.22167E-12
3.04617E-08 2.77243E-12
3.85531E-08 2.38631E-12
4.75965E-08 2.05920E-12
5.75917E-08 1.78406E-12
6.85389E-08 1.55298E-12
8.04380E-08 1.35860E-12
9.32891E-08 1.19454E-12
1.07092E-07 1.05533E-12
1.21847E-07 9.36505E-13
1.37554E-07 8.34473E-13
1.54213E-07 7.46339E-13
1.71823E-07 6.69785E-13
1.90386E-07 6.02948E-13
2.09900E-07 5.43862E-13
2.30367E-07 4.88489E-13
2.51785E-07 4.41615E-13
2.74156E-07 4.01674E-13
2.97478E-07 3.67429E-13
3.21752E-07 3.37894E-13
3.46978E-07 3.07908E-13
3.73156E-07 2.81335E-13
4.00286E-07 2.58235E-13
4.28368E-07 2.38056E-13
4.57402E-07 2.20347E-13
4.87388E-07 2.03220E-13
5.18325E-07 1.87332E-13
5.50215E-07 1.73294E-13
5.83057E-07 1.60844E-13
6.16850E-07 1.49762E-13
6.51596E-07 1.39375E-13
6.87293E-07 1.29441E-13
7.23942E-07 1.20547E-13
7.61543E-07 1.12560E-13
1.18991E-06 5.98572E-14
1.71347E-06 3.44632E-14
2.33223E-06 2.10056E-14
3.04617E-06 1.34151E-14
3.85531E-06 8.93319E-15
4.75964E-06 6.17859E-15
5.75916E-06 4.41747E-15
6.85388E-06 3.24899E-15
8.04378E-06 2.45019E-15
9.32888E-06 1.88572E-15
1.07092E-05 1.47564E-15
1.21846E-05 1.17147E-15
1.37553E-05 9.42037E-16
1.54212E-05 7.66258E-16
1.71822E-05 6.29579E-16
1.90385E-05 5.21636E-16
2.09899E-05 4.36217E-16
2.30365E-05 3.67253E-16
2.51783E-05 3.11810E-16
2.74153E-05 2.65939E-16
2.97475E-05 2.28454E-16
3.21749E-05 1.97134E-16
3.46974E-05 1.71151E-16
3.73152E-05 1.49245E-16
4.00281E-05 1.30812E-16
4.28362E-05 1.15105E-16
4.57395E-05 1.01711E-16
4.87380E-05 9.01901E-17
5.18317E-05 8.02590E-17
5.50205E-05 7.16510E-17
5.83045E-05 6.41659E-17
6.16838E-05 5.76368E-17
6.51582E-05 5.19164E-17
6.87277E-05 4.68957E-17
7.23925E-05 4.24647E-17
7.61524E-05 3.85502E-17
9.21439E-05 2.67574E-17
1.09658E-04 1.91524E-17
1.28695E-04 1.40714E-17
1.49255E-04 1.05699E-17
1.71338E-04 8.09385E-18
1.94942E-04 6.30223E-18
2.20070E-04 4.97998E-18
2.46720E-04 3.98691E-18
2.74892E-04 3.22937E-18
3.04586E-04 2.64344E-18
3.35803E-04 2.18453E-18
3.68542E-04 1.82102E-18
4.02802E-04 1.53007E-18
4.38585E-04 1.29500E-18
4.75889E-04 1.10341E-18
5.14715E-04 9.46010E-19
5.55063E-04 8.15736E-19
5.96931E-04 7.07168E-19
6.40321E-04 6.16105E-19
6.85233E-04 5.39267E-19
7.31665E-04 4.74068E-19
7.79618E-04 4.18453E-19
8.29092E-04 3.70780E-19
8.80086E-04 3.29724E-19
9.32601E-04 2.94212E-19
9.86636E-04 2.63368E-19
1.04219E-03 2.36474E-19
1.09927E-03 2.12938E-19
1.15786E-03 1.92267E-19
1.21797E-03 1.74054E-19
1.27961E-03 1.57954E-19
1.34276E-03 1.43680E-19
1.40743E-03 1.30989E-19
1.47362E-03 1.19673E-19
1.54133E-03 1.09558E-19
1.61056E-03 1.00494E-19
1.68131E-03 9.23513E-20
1.75357E-03 8.50206E-20
1.82735E-03 7.84059E-20
1.90265E-03 7.24251E-20
1.97947E-03 6.70062E-20
2.05780E-03 6.20872E-20
2.13765E-03 5.76131E-20
2.21902E-03 5.35370E-20
2.30190E-03 4.98171E-20
2.38630E-03 4.64161E-20
2.47222E-03 4.33019E-20
2.55965E-03 4.04459E-20
2.64859E-03 3.78229E-20
2.73905E-03 3.54103E-20
2.83103E-03 3.31880E-20
2.92452E-03 3.11383E-20
3.01952E-03 2.92454E-20
3.11604E-03 2.74952E-20
3.21407E-03 2.58746E-20
3.31362E-03 2.43724E-20
3.41468E-03 2.29784E-20
3.51725E-03 2.16834E-20
3.62133E-03 2.04789E-20
3.72692E-03 1.93574E-20
3.83403E-03 1.83123E-20
3.94265E-03 1.73372E-20
4.05278E-03 1.64267E-20
4.16442E-03 1.55756E-20
4.27757E-03 1.47793E-20
4.39223E-03 1.40337E-20
4.50840E-03 1.33349E-20
4.62608E-03 1.26794E-20
4.74527E-03 1.20640E-20
4.86597E-03 1.14859E-20
4.98817E-03 1.09423E-20
5.11188E-03 1.04307E-20
5.23711E-03 9.94893E-21
5.36383E-03 9.49493E-21
5.49207E-03 9.06679E-21
5.62181E-03 8.66275E-21
5.75306E-03 8.28116E-21
5.88581E-03 7.92058E-21
6.02007E-03 7.57961E-21
6.15583E-03 7.25698E-21
6.29310E-03 6.95152E-21
6.43187E-03 6.66212E-21
6.57214E-03 6.38780E-21
6.71392E-03 6.12762E-21
6.85720E-03 5.88069E-21
7.00198E-03 5.64621E-21
7.14827E-03 5.42345E-21
7.29605E-03 5.21169E-21
7.44534E-03 5.01030E-21
7.59612E-03 4.81865E-21
7.97965E-03 4.37860E-21
8.37255E-03 3.98825E-21
8.77480E-03 3.64098E-21
9.18641E-03 3.33118E-21
9.60736E-03 3.05408E-21
1.00376E-02 2.80559E-21
1.04773E-02 2.58222E-21
1.09262E-02 2.38098E-21
1.13844E-02 2.19926E-21
1.18520E-02 2.03482E-21
1.23288E-02 1.88571E-21
1.28150E-02 1.75024E-21
1.33104E-02 1.62693E-21
1.38150E-02 1.51448E-21
1.43290E-02 1.41175E-21
1.48521E-02 1.31774E-21
1.53845E-02 1.23158E-21
1.59262E-02 1.15249E-21
1.64770E-02 1.07977E-21
1.70371E-02 1.01281E-21
1.76063E-02 9.51072E-22
1.81848E-02 8.94066E-22
1.87724E-02 8.41360E-22
1.93692E-02 7.92567E-22
1.99751E-02 7.47341E-22
2.05901E-02 7.05368E-22
2.12143E-02 6.66371E-22
2.18476E-02 6.30095E-22
2.24900E-02 5.96315E-22
2.31415E-02 5.64825E-22
2.38021E-02 5.35438E-22
2.44717E-02 5.07987E-22
2.51504E-02 4.82317E-22
2.58382E-02 4.58292E-22
2.65349E-02 4.35784E-22
2.72407E-02 4.14679E-22
2.79555E-02 3.94871E-22
2.86793E-02 3.76264E-22
2.94120E-02 3.58772E-22
3.01537E-02 3.42314E-22
3.09043E-02 3.26816E-22
3.16639E-02 3.12211E-22
3.24324E-02 2.98436E-22
3.32098E-02 2.85436E-22
3.39961E-02 2.73158E-22
3.47912E-02 2.61553E-22
3.55952E-02 2.50576E-22
3.64081E-02 2.40188E-22
3.72297E-02 2.30349E-22
3.80602E-02 2.21025E-22
3.88995E-02 2.12183E-22
3.97476E-02 2.03794E-22
4.06044E-02 1.95828E-22
4.14700E-02 1.88260E-22
4.23443E-02 1.81067E-22
4.32273E-02 1.74226E-22
4.41190E-02 1.67715E-22
4.50194E-02 1.61516E-22
4.59284E-02 1.55611E-22
4.68461E-02 1.49982E-22
4.87074E-02 1.39493E-22
5.06030E-02 1.29935E-22
5.25328E-02 1.21209E-22
5.44967E-02 1.13229E-22
5.64946E-02 1.05916E-22
5.85262E-02 9.92052E-23
6.05914E-02 9.30356E-23
6.26901E-02 8.73549E-23
6.48222E-02 8.21164E-23
6.69873E-02 7.72785E-23
6.91854E-02 7.28042E-23
7.14163E-02 6.86605E-23
7.36799E-02 6.48178E-23
7.59760E-02 6.12497E-23
7.83043E-02 5.79325E-23
8.06647E-02 5.48448E-23
8.30571E-02 5.19672E-23
8.54812E-02 4.92826E-23
8.79369E-02 4.67752E-23
9.04240E-02 4.44307E-23
9.29422E-02 4.22364E-23
9.54915E-02 4.01806E-23
9.80716E-02 3.82524E-23
1.00682E-01 3.64426E-23
1.03323E-01 3.47421E-23
1.05995E-01 3.31429E-23
1.08696E-01 3.16377E-23
1.11427E-01 3.02197E-23
1.14188E-01 2.88828E-23
1.16978E-01 2.76214E-23
1.19797E-01 2.64302E-23
1.22645E-01 2.53044E-23
1.25522E-01 2.42398E-23
1.28428E-01 2.32322E-23
1.31361E-01 2.22779E-23
1.34323E-01 2.13735E-23
1.37313E-01 2.05158E-23
1.40330E-01 1.97018E-23
1.43375E-01 1.89288E-23
1.46447E-01 1.81943E-23
1.49545E-01 1.74960E-23
1.52671E-01 1.68317E-23
1.55823E-01 1.61993E-23
1.59001E-01 1.55970E-23
1.62205E-01 1.50230E-23
1.65435E-01 1.44758E-23
1.68690E-01 1.39537E-23
1.71970E-01 1.34554E-23
1.75276E-01 1.29795E-23
1.78606E-01 1.25248E-23
1.81961E-01 1.20902E-23
1.85340E-01 1.16745E-23
1.88743E-01 1.12768E-23
1.92169E-01 1.08962E-23
1.95619E-01 1.05316E-23
1.99092E-01 1.01823E-23
2.02589E-01 9.84752E-24
2.06107E-01 9.52650E-24
2.09649E-01 9.21856E-24
2.13212E-01 8.92304E-24
2.16797E-01 8.63933E-24
2.20404E-01 8.36685E-24
2.24032E-01 8.10508E-24
2.27680E-01 7.85347E-24
2.31350E-01 7.61158E-24
2.35040E-01 7.37893E-24
2.38751E-01 7.15501E-24
2.42481E-01 6.93944E-24
2.46231E-01 6.73189E-24
2.50000E-01 6.53199E-24
2.53788E-01 6.33940E-24
2.57595E-01 6.15378E-24
2.61421E-01 5.97484E-24
2.65264E-01 5.80227E-24
2.69126E-01 5.63581E-24
2.73005E-01 5.47518E-24
2.76901E-01 5.32014E-24
2.80814E-01 5.17045E-24
2.84744E-01 5.02589E-24
2.88691E-01 4.88624E-24
2.92653E-01 4.75129E-24
2.96632E-01 4.62086E-24
3.00625E-01 4.49476E-24
3.04634E-01 4.37282E-24
3.08658E-01 4.25486E-24
3.12697E-01 4.14074E-24
3.16749E-01 4.03029E-24
3.20816E-01 3.92337E-24
3.24896E-01 3.81986E-24
3.28990E-01 3.71960E-24
3.33097E-01 3.62249E-24
3.37216E-01 3.52840E-24
3.41348E-01 3.43721E-24
3.45492E-01 3.34882E-24
3.49647E-01 3.26313E-24
3.53814E-01 3.18002E-24
3.57992E-01 3.09942E-24
3.62181E-01 3.02122E-24
3.66381E-01 2.94535E-24
3.70590E-01 2.87171E-24
3.74810E-01 2.80022E-24
3.79039E-01 2.73082E-24
3.83277E-01 2.66342E-24
3.87524E-01 2.59796E-24
3.91780E-01 2.53437E-24
3.96044E-01 2.47259E-24
4.00316E-01 2.41254E-24
4.04596E-01 2.35418E-24
4.08882E-01 2.29745E-24
4.13176E-01 2.24229E-24
4.17476E-01 2.18865E-24
4.21783E-01 2.13648E-24
4.26095E-01 2.08573E-24
4.30413E-01 2.03635E-24
4.34737E-01 1.98830E-24
4.39065E-01 1.94153E-24
4.43398E-01 1.89602E-24
4.47736E-01 1.85170E-24
4.52077E-01 1.80855E-24
4.56422E-01 1.76654E-24
4.60770E-01 1.72561E-24
4.65122E-01 1.68575E-24
4.69476E-01 1.64691E-24
4.73832E-01 1.60907E-24
4.78190E-01 1.57220E-24
4.82550E-01 1.53625E-24
4.86912E-01 1.50122E-24
4.91274E-01 1.46707E-24
4.95637E-01 1.43376E-24
5.00000E-01 1.40129E-24
5.04363E-01 1.36962E-24
5.08726E-01 1.33873E-24
5.13088E-01 1.30860E-24
5.17450E-01 1.27920E-24
5.21810E-01 1.25051E-24
5.26168E-01 1.22252E-24
5.30524E-01 1.19520E-24
5.34878E-01 1.16853E-24
5.39230E-01 1.14250E-24
5.43578E-01 1.11709E-24
5.47923E-01 1.09227E-24
5.52264E-01 1.06804E-24
5.56602E-01 1.04438E-24
5.60935E-01 1.02127E-24
5.65263E-01 9.98692E-25
5.69587E-01 9.76638E-25
5.73905E-01 9.55090E-25
5.78217E-01 9.34037E-25
5.82524E-01 9.13464E-25
5.86824E-01 8.93358E-25
5.91118E-01 8.73707E-25
5.95404E-01 8.54499E-25
5.99684E-01 8.35723E-25
6.03956E-01 8.17366E-25
6.08220E-01 7.99418E-25
6.12476E-01 7.81869E-25
6.16723E-01 7.64707E-25
6.20961E-01 7.47924E-25
6.25190E-01 7.31509E-25
6.29410E-01 7.15453E-25
6.33619E-01 6.99747E-25
6.37819E-01 6.84382E-25
6.42008E-01 6.69350E-25
6.46186E-01 6.54641E-25
6.50353E-01 6.40249E-25
6.54508E-01 6.26165E-25
6.58652E-01 6.12382E-25
6.62784E-01 5.98892E-25
6.66903E-01 5.85688E-25
6.71010E-01 5.72764E-25
6.75104E-01 5.60112E-25
6.79184E-01 5.47726E-25
6.83251E-01 5.35599E-25
6.87303E-01 5.23726E-25
6.91342E-01 5.12100E-25
6.95366E-01 5.00716E-25
6.99375E-01 4.89568E-25
7.03368E-01 4.78650E-25
7.07347E-01 4.67957E-25
7.11309E-01 4.57484E-25
7.15256E-01 4.47225E-25
7.19186E-01 4.37177E-25
7.23099E-01 4.27333E-25
7.26995E-01 4.17690E-25
7.30874E-01 4.08243E-25
7.34736E-01 3.98987E-25
7.38579E-01 3.89918E-25
7.42405E-01 3.81033E-25
7.46212E-01 3.72326E-25
7.50000E-01 3.63794E-25
7.53769E-01 3.55434E-25
7.57519E-01 3.47241E-25
7.61249E-01 3.39211E-25
7.64960E-01 3.31342E-25
7.68650E-01 3.23630E-25
7.72320E-01 3.16071E-25
7.75968E-01 3.08662E-25
7.79596E-01 3.01400E-25
7.83203E-01 2.94282E-25
7.86788E-01 2.87305E-25
7.90351E-01 2.80466E-25
7.93893E-01 2.73761E-25
7.97411E-01 2.67189E-25
8.00908E-01 2.60747E-25
8.04381E-01 2.54432E-25
8.07831E-01 2.48240E-25
8.11257E-01 2.42171E-25
8.14660E-01 2.36221E-25
8.18039E-01 2.30388E-25
8.21394E-01 2.24669E-25
8.24724E-01 2.19063E-25
8.28030E-01 2.13567E-25
8.31310E-01 2.08179E-25
8.34565E-01 2.02897E-25
8.37795E-01 1.97718E-25
8.40999E-01 1.92642E-25
8.44177E-01 1.87665E-25
8.47329E-01 1.82787E-25
8.50455E-01 1.78004E-25
8.53553E-01 1.73316E-25
8.56625E-01 1.68720E-25
8.59670E-01 1.64216E-25
8.62687E-01 1.59800E-25
8.65677E-01 1.55472E-25
8.68639E-01 1.51230E-25
8.71572E-01 1.47072E-25
8.74478E-01 1.42997E-25
8.77355E-01 1.39004E-25
8.80203E-01 1.35090E-25
8.83022E-01 1.31255E-25
8.85812E-01 1.27498E-25
8.88573E-01 1.23816E-25
8.91304E-01 1.20209E-25
8.94005E-01 1.16675E-25
8.96677E-01 1.13213E-25
8.99318E-01 1.09821E-25
9.01928E-01 1.06500E-25
9.04508E-01 1.03247E-25
9.07058E-01 1.00061E-25
9.09576E-01 9.69421E-26
9.12063E-01 9.38881E-26
9.14519E-01 9.08982E-26
9.16943E-01 8.79715E-26
9.19335E-01 8.51069E-26
9.21696E-01 8.23036E-26
9.24024E-01 7.95606E-26
9.26320E-01 7.68770E-26
9.28584E-01 7.42518E-26
9.30815E-01 7.16843E-26
9.33013E-01 6.91735E-26
9.35178E-01 6.67187E-26
9.37310E-01 6.43190E-26
9.39409E-01 6.19736E-26
9.41474E-01 5.96818E-26
9.43505E-01 5.74429E-26
9.45503E-01 5.52562E-26
9.47467E-01 5.31208E-26
9.49397E-01 5.10362E-26
9.51293E-01 4.90016E-26
9.53154E-01 4.70165E-26
9.54981E-01 4.50802E-26
9.56773E-01 4.31920E-26
9.58530E-01 4.13515E-26
9.60252E-01 3.95579E-26
9.61940E-01 3.78108E-26
9.63592E-01 3.61096E-26
9.65209E-01 3.44538E-26
9.66790E-01 3.28428E-26
9.68336E-01 3.12761E-26
9.69846E-01 2.97533E-26
9.71321E-01 2.82739E-26
9.72759E-01 2.68375E-26
9.74162E-01 2.54435E-26
9.75528E-01 2.40916E-26
9.76858E-01 2.27814E-26
9.78152E-01 2.15124E-26
9.79410E-01 2.02843E-26
9.80631E-01 1.90967E-26
9.81815E-01 1.79493E-26
9.82963E-01 1.68416E-26
9.84074E-01 1.57734E-26
9.85148E-01 1.47443E-26
9.86185E-01 1.37540E-26
9.87185E-01 1.28023E-26
9.88148E-01 1.18888E-26
9.89074E-01 1.10132E-26
9.89962E-01 1.01754E-26
9.90814E-01 9.37503E-27
9.91627E-01 8.61186E-27
9.92404E-01 7.88569E-27
9.93143E-01 7.19629E-27
9.93844E-01 6.54346E-27
9.94508E-01 5.92700E-27
9.95134E-01 5.34673E-27
9.95722E-01 4.80249E-27
9.96273E-01 4.29410E-27
9.96786E-01 3.82142E-27
9.97261E-01 3.38431E-27
9.97698E-01 2.98264E-27
9.98097E-01 2.61629E-27
9.98459E-01 2.28516E-27
9.98782E-01 1.98914E-27
9.99067E-01 1.72816E-27
9.99315E-01 1.50212E-27
9.99524E-01 1.31098E-27
9.99695E-01 1.15466E-27
9.99829E-01 1.03313E-27
9.99924E-01 9.46344E-28
9.99981E-01 8.94284E-28
1.00000E+00 8.76932E-28
