 #
 # Subroutine ELSEPA. Elastic scattering of electrons and positrons
 #                    by neutral atoms and positive ions
 #
 # Projectile: electron
 # Kinetic energy = 7.00000E+06 eV = 2.57245E+05 a.u.
 #
 # WARNING: High-energy factorization with free-atom DF screening.
 #          Absorption, polarization and exchange corrections are
 #          switched off.
 #          Phase shifts are calculated for the bare nucleus.
 #          Scattering amplitudes are not evaluated.
 #
 # Element:  W,  Z =  74,  atomic weight = 1.83840E+02 g/mol
 #
 # Nuclear model: Fermi distribution
 #                Average radius = 6.08411E-13 cm
 #                Skin thickness = 5.46000E-14 cm
 #
 # Number of electrons = 74
 #
 # Total elastic cross section = 7.56256E-18 cm**2 = 2.70064E-01 a0**2
 # 1st transport cross section = 1.68169E-22 cm**2 = 6.00542E-06 a0**2
 # 2nd transport cross section = 4.59208E-22 cm**2 = 1.63986E-05 a0**2
 #
 #
 # Differential cross section:                       MU=(1-COS(THETA))/2
 #
 #  THETA        MU          DCS          DCS        Sherman      error
 #  (deg)                 (cm**2/sr)   (a0**2/sr)    function
 #----------------------------------------------------------------------
0.00000E+00 3.21571E-12
7.61557E-13 3.21566E-12
1.18994E-12 3.21564E-12
1.71346E-12 3.21560E-12
2.33225E-12 3.21557E-12
3.04617E-12 3.21552E-12
3.85530E-12 3.21547E-12
4.75964E-12 3.21542E-12
5.75917E-12 3.21536E-12
6.85391E-12 3.21529E-12
8.04379E-12 3.21522E-12
9.32893E-12 3.21514E-12
1.07092E-11 3.21506E-12
1.21847E-11 3.21497E-12
1.37554E-11 3.21487E-12
1.54213E-11 3.21477E-12
1.71823E-11 3.21466E-12
1.90386E-11 3.21455E-12
2.09900E-11 3.21443E-12
2.30367E-11 3.21431E-12
2.51785E-11 3.21418E-12
2.74156E-11 3.21404E-12
2.97478E-11 3.21390E-12
3.21752E-11 3.21375E-12
3.46979E-11 3.21360E-12
3.73157E-11 3.21344E-12
4.00286E-11 3.21327E-12
4.28368E-11 3.21310E-12
4.57402E-11 3.21293E-12
4.87388E-11 3.21275E-12
5.18325E-11 3.21256E-12
5.50215E-11 3.21236E-12
5.83057E-11 3.21216E-12
6.16850E-11 3.21196E-12
6.51595E-11 3.21175E-12
6.87293E-11 3.21153E-12
7.23943E-11 3.21131E-12
7.61544E-11 3.21108E-12
1.18991E-10 3.20849E-12
1.71347E-10 3.20532E-12
2.33223E-10 3.20158E-12
3.04617E-10 3.19728E-12
3.85531E-10 3.19242E-12
4.75965E-10 3.18700E-12
5.75917E-10 3.18103E-12
6.85389E-10 3.17451E-12
8.04380E-10 3.16745E-12
9.32891E-10 3.15986E-12
1.07092E-09 3.15173E-12
1.21847E-09 3.14309E-12
1.37554E-09 3.13393E-12
1.54213E-09 3.12427E-12
1.71823E-09 3.11411E-12
1.90386E-09 3.10346E-12
2.09900E-09 3.09233E-12
2.30367E-09 3.08073E-12
2.51785E-09 3.06867E-12
2.74156E-09 3.05616E-12
2.97478E-09 3.04320E-12
3.21752E-09 3.02982E-12
3.46978E-09 3.01602E-12
3.73156E-09 3.00181E-12
4.00286E-09 2.98720E-12
4.28368E-09 2.97212E-12
4.57402E-09 2.95665E-12
4.87388E-09 2.94085E-12
5.18326E-09 2.92475E-12
5.50215E-09 2.90835E-12
5.83057E-09 2.89167E-12
6.16850E-09 2.87472E-12
6.51596E-09 2.85738E-12
6.87293E-09 2.83958E-12
7.23942E-09 2.82155E-12
7.61544E-09 2.80331E-12
1.18991E-08 2.60958E-12
1.71347E-08 2.40217E-12
2.33223E-08 2.19153E-12
3.04617E-08 1.98651E-12
3.85531E-08 1.79176E-12
4.75965E-08 1.61167E-12
5.75917E-08 1.44804E-12
6.85389E-08 1.30039E-12
8.04380E-08 1.16907E-12
9.32891E-08 1.05268E-12
1.07092E-07 9.49642E-13
1.21847E-07 8.58888E-13
1.37554E-07 7.78673E-13
1.54213E-07 7.07759E-13
1.71823E-07 6.45081E-13
1.90386E-07 5.89273E-13
2.09900E-07 5.39644E-13
2.30367E-07 4.95379E-13
2.51785E-07 4.55600E-13
2.74156E-07 4.19931E-13
2.97478E-07 3.87777E-13
3.21752E-07 3.58669E-13
3.46978E-07 3.32347E-13
3.73156E-07 3.08390E-13
4.00286E-07 2.86576E-13
4.28368E-07 2.65485E-13
4.57402E-07 2.46216E-13
4.87388E-07 2.29097E-13
5.18325E-07 2.13836E-13
5.50215E-07 2.00189E-13
5.83057E-07 1.87946E-13
6.16850E-07 1.76931E-13
6.51596E-07 1.66240E-13
6.87293E-07 1.55477E-13
7.23942E-07 1.45769E-13
7.61543E-07 1.36988E-13
1.18991E-06 7.81864E-14
1.71347E-06 4.76851E-14
2.33223E-06 3.06403E-14
3.04617E-06 2.05594E-14
3.85531E-06 1.41896E-14
4.75964E-06 1.00624E-14
5.75916E-06 7.31108E-15
6.85388E-06 5.41968E-15
8.04378E-06 4.10305E-15
9.32888E-06 3.16526E-15
1.07092E-05 2.48336E-15
1.21846E-05 1.97727E-15
1.37553E-05 1.59654E-15
1.54212E-05 1.30524E-15
1.71822E-05 1.07875E-15
1.90385E-05 8.99045E-16
2.09899E-05 7.56337E-16
2.30365E-05 6.40874E-16
2.51783E-05 5.46427E-16
2.74153E-05 4.68761E-16
2.97475E-05 4.04388E-16
3.21749E-05 3.50657E-16
3.46974E-05 3.05588E-16
3.73152E-05 2.67511E-16
4.00281E-05 2.35186E-16
4.28362E-05 2.07474E-16
4.57395E-05 1.83793E-16
4.87380E-05 1.63525E-16
5.18317E-05 1.45823E-16
5.50205E-05 1.30468E-16
5.83045E-05 1.17154E-16
6.16838E-05 1.05404E-16
6.51582E-05 9.51179E-17
6.87277E-05 8.61038E-17
7.23925E-05 7.80767E-17
7.61524E-05 7.09852E-17
9.21439E-05 4.95541E-17
1.09658E-04 3.56175E-17
1.28695E-04 2.62660E-17
1.49255E-04 1.97942E-17
1.71338E-04 1.51999E-17
1.94942E-04 1.18679E-17
2.20070E-04 9.40190E-18
2.46720E-04 7.54536E-18
2.74892E-04 6.12635E-18
3.04586E-04 5.02570E-18
3.35803E-04 4.16184E-18
3.68542E-04 3.47609E-18
4.02802E-04 2.92578E-18
4.38585E-04 2.48031E-18
4.75889E-04 2.11647E-18
5.14715E-04 1.81694E-18
5.55063E-04 1.56861E-18
5.96931E-04 1.36127E-18
6.40321E-04 1.18709E-18
6.85233E-04 1.03993E-18
7.31665E-04 9.14878E-19
7.79618E-04 8.08093E-19
8.29092E-04 7.16466E-19
8.80086E-04 6.37471E-19
9.32601E-04 5.69093E-19
9.86636E-04 5.09657E-19
1.04219E-03 4.57795E-19
1.09927E-03 4.12384E-19
1.15786E-03 3.72478E-19
1.21797E-03 3.37297E-19
1.27961E-03 3.06189E-19
1.34276E-03 2.78593E-19
1.40743E-03 2.54049E-19
1.47362E-03 2.32159E-19
1.54133E-03 2.12584E-19
1.61056E-03 1.95039E-19
1.68131E-03 1.79273E-19
1.75357E-03 1.65076E-19
1.82735E-03 1.52263E-19
1.90265E-03 1.40674E-19
1.97947E-03 1.30172E-19
2.05780E-03 1.20638E-19
2.13765E-03 1.11964E-19
2.21902E-03 1.04060E-19
2.30190E-03 9.68452E-20
2.38630E-03 9.02479E-20
2.47222E-03 8.42062E-20
2.55965E-03 7.86644E-20
2.64859E-03 7.35736E-20
2.73905E-03 6.88906E-20
2.83103E-03 6.45763E-20
2.92452E-03 6.05967E-20
3.01952E-03 5.69209E-20
3.11604E-03 5.35212E-20
3.21407E-03 5.03734E-20
3.31362E-03 4.74551E-20
3.41468E-03 4.47465E-20
3.51725E-03 4.22297E-20
3.62133E-03 3.98887E-20
3.72692E-03 3.77088E-20
3.83403E-03 3.56769E-20
3.94265E-03 3.37810E-20
4.05278E-03 3.20103E-20
4.16442E-03 3.03549E-20
4.27757E-03 2.88063E-20
4.39223E-03 2.73557E-20
4.50840E-03 2.59962E-20
4.62608E-03 2.47207E-20
4.74527E-03 2.35232E-20
4.86597E-03 2.23979E-20
4.98817E-03 2.13397E-20
5.11188E-03 2.03439E-20
5.23711E-03 1.94059E-20
5.36383E-03 1.85220E-20
5.49207E-03 1.76882E-20
5.62181E-03 1.69014E-20
5.75306E-03 1.61581E-20
5.88581E-03 1.54557E-20
6.02007E-03 1.47914E-20
6.15583E-03 1.41629E-20
6.29310E-03 1.35677E-20
6.43187E-03 1.30037E-20
6.57214E-03 1.24691E-20
6.71392E-03 1.19620E-20
6.85720E-03 1.14807E-20
7.00198E-03 1.10236E-20
7.14827E-03 1.05894E-20
7.29605E-03 1.01765E-20
7.44534E-03 9.78381E-21
7.59612E-03 9.41010E-21
7.97965E-03 8.55191E-21
8.37255E-03 7.79048E-21
8.77480E-03 7.11299E-21
9.18641E-03 6.50849E-21
9.60736E-03 5.96771E-21
1.00376E-02 5.48272E-21
1.04773E-02 5.04669E-21
1.09262E-02 4.65380E-21
1.13844E-02 4.29899E-21
1.18520E-02 3.97787E-21
1.23288E-02 3.68668E-21
1.28150E-02 3.42209E-21
1.33104E-02 3.18121E-21
1.38150E-02 2.96154E-21
1.43290E-02 2.76085E-21
1.48521E-02 2.57719E-21
1.53845E-02 2.40885E-21
1.59262E-02 2.25429E-21
1.64770E-02 2.11219E-21
1.70371E-02 1.98134E-21
1.76063E-02 1.86068E-21
1.81848E-02 1.74927E-21
1.87724E-02 1.64625E-21
1.93692E-02 1.55088E-21
1.99751E-02 1.46248E-21
2.05901E-02 1.38044E-21
2.12143E-02 1.30421E-21
2.18476E-02 1.23329E-21
2.24900E-02 1.16726E-21
2.31415E-02 1.10570E-21
2.38021E-02 1.04825E-21
2.44717E-02 9.94580E-22
2.51504E-02 9.44396E-22
2.58382E-02 8.97423E-22
2.65349E-02 8.53418E-22
2.72407E-02 8.12154E-22
2.79555E-02 7.73425E-22
2.86793E-02 7.37045E-22
2.94120E-02 7.02844E-22
3.01537E-02 6.70663E-22
3.09043E-02 6.40360E-22
3.16639E-02 6.11802E-22
3.24324E-02 5.84869E-22
3.32098E-02 5.59449E-22
3.39961E-02 5.35439E-22
3.47912E-02 5.12746E-22
3.55952E-02 4.91282E-22
3.64081E-02 4.70968E-22
3.72297E-02 4.51728E-22
3.80602E-02 4.33495E-22
3.88995E-02 4.16204E-22
3.97476E-02 3.99797E-22
4.06044E-02 3.84219E-22
4.14700E-02 3.69419E-22
4.23443E-02 3.55351E-22
4.32273E-02 3.41971E-22
4.41190E-02 3.29237E-22
4.50194E-02 3.17113E-22
4.59284E-02 3.05563E-22
4.68461E-02 2.94553E-22
4.87074E-02 2.74037E-22
5.06030E-02 2.55341E-22
5.25328E-02 2.38271E-22
5.44967E-02 2.22658E-22
5.64946E-02 2.08352E-22
5.85262E-02 1.95221E-22
6.05914E-02 1.83148E-22
6.26901E-02 1.72031E-22
6.48222E-02 1.61779E-22
6.69873E-02 1.52309E-22
6.91854E-02 1.43551E-22
7.14163E-02 1.35438E-22
7.36799E-02 1.27914E-22
7.59760E-02 1.20927E-22
7.83043E-02 1.14430E-22
8.06647E-02 1.08382E-22
8.30571E-02 1.02744E-22
8.54812E-02 9.74841E-23
8.79369E-02 9.25701E-23
9.04240E-02 8.79747E-23
9.29422E-02 8.36729E-23
9.54915E-02 7.96417E-23
9.80716E-02 7.58604E-23
1.00682E-01 7.23101E-23
1.03323E-01 6.89737E-23
1.05995E-01 6.58354E-23
1.08696E-01 6.28808E-23
1.11427E-01 6.00968E-23
1.14188E-01 5.74713E-23
1.16978E-01 5.49934E-23
1.19797E-01 5.26529E-23
1.22645E-01 5.04404E-23
1.25522E-01 4.83475E-23
1.28428E-01 4.63661E-23
1.31361E-01 4.44890E-23
1.34323E-01 4.27094E-23
1.37313E-01 4.10213E-23
1.40330E-01 3.94187E-23
1.43375E-01 3.78964E-23
1.46447E-01 3.64494E-23
1.49545E-01 3.50732E-23
1.52671E-01 3.37636E-23
1.55823E-01 3.25165E-23
1.59001E-01 3.13283E-23
1.62205E-01 3.01955E-23
1.65435E-01 2.91151E-23
1.68690E-01 2.80840E-23
1.71970E-01 2.70995E-23
1.75276E-01 2.61589E-23
1.78606E-01 2.52598E-23
1.81961E-01 2.44002E-23
1.85340E-01 2.35777E-23
1.88743E-01 2.27903E-23
1.92169E-01 2.20363E-23
1.95619E-01 2.13140E-23
1.99092E-01 2.06216E-23
2.02589E-01 1.99577E-23
2.06107E-01 1.93208E-23
2.09649E-01 1.87095E-23
2.13212E-01 1.81226E-23
2.16797E-01 1.75589E-23
2.20404E-01 1.70173E-23
2.24032E-01 1.64966E-23
2.27680E-01 1.59960E-23
2.31350E-01 1.55144E-23
2.35040E-01 1.50509E-23
2.38751E-01 1.46048E-23
2.42481E-01 1.41752E-23
2.46231E-01 1.37613E-23
2.50000E-01 1.33625E-23
2.53788E-01 1.29781E-23
2.57595E-01 1.26074E-23
2.61421E-01 1.22498E-23
2.65264E-01 1.19048E-23
2.69126E-01 1.15718E-23
2.73005E-01 1.12503E-23
2.76901E-01 1.09398E-23
2.80814E-01 1.06399E-23
2.84744E-01 1.03501E-23
2.88691E-01 1.00699E-23
2.92653E-01 9.79908E-24
2.96632E-01 9.53715E-24
3.00625E-01 9.28377E-24
3.04634E-01 9.03859E-24
3.08658E-01 8.80129E-24
3.12697E-01 8.57156E-24
3.16749E-01 8.34910E-24
3.20816E-01 8.13363E-24
3.24896E-01 7.92488E-24
3.28990E-01 7.72259E-24
3.33097E-01 7.52652E-24
3.37216E-01 7.33643E-24
3.41348E-01 7.15210E-24
3.45492E-01 6.97331E-24
3.49647E-01 6.79986E-24
3.53814E-01 6.63155E-24
3.57992E-01 6.46820E-24
3.62181E-01 6.30963E-24
3.66381E-01 6.15567E-24
3.70590E-01 6.00615E-24
3.74810E-01 5.86091E-24
3.79039E-01 5.71981E-24
3.83277E-01 5.58270E-24
3.87524E-01 5.44944E-24
3.91780E-01 5.31990E-24
3.96044E-01 5.19396E-24
4.00316E-01 5.07149E-24
4.04596E-01 4.95237E-24
4.08882E-01 4.83650E-24
4.13176E-01 4.72377E-24
4.17476E-01 4.61406E-24
4.21783E-01 4.50729E-24
4.26095E-01 4.40336E-24
4.30413E-01 4.30216E-24
4.34737E-01 4.20363E-24
4.39065E-01 4.10768E-24
4.43398E-01 4.01421E-24
4.47736E-01 3.92315E-24
4.52077E-01 3.83443E-24
4.56422E-01 3.74798E-24
4.60770E-01 3.66372E-24
4.65122E-01 3.58158E-24
4.69476E-01 3.50147E-24
4.73832E-01 3.42337E-24
4.78190E-01 3.34720E-24
4.82550E-01 3.27290E-24
4.86912E-01 3.20044E-24
4.91274E-01 3.12974E-24
4.95637E-01 3.06076E-24
5.00000E-01 2.99345E-24
5.04363E-01 2.92775E-24
5.08726E-01 2.86363E-24
5.13088E-01 2.80103E-24
5.17450E-01 2.73992E-24
5.21810E-01 2.68025E-24
5.26168E-01 2.62197E-24
5.30524E-01 2.56506E-24
5.34878E-01 2.50947E-24
5.39230E-01 2.45516E-24
5.43578E-01 2.40210E-24
5.47923E-01 2.35026E-24
5.52264E-01 2.29960E-24
5.56602E-01 2.25009E-24
5.60935E-01 2.20170E-24
5.65263E-01 2.15440E-24
5.69587E-01 2.10815E-24
5.73905E-01 2.06294E-24
5.78217E-01 2.01873E-24
5.82524E-01 1.97550E-24
5.86824E-01 1.93322E-24
5.91118E-01 1.89186E-24
5.95404E-01 1.85141E-24
5.99684E-01 1.81184E-24
6.03956E-01 1.77313E-24
6.08220E-01 1.73525E-24
6.12476E-01 1.69818E-24
6.16723E-01 1.66191E-24
6.20961E-01 1.62641E-24
6.25190E-01 1.59167E-24
6.29410E-01 1.55766E-24
6.33619E-01 1.52437E-24
6.37819E-01 1.49178E-24
6.42008E-01 1.45986E-24
6.46186E-01 1.42862E-24
6.50353E-01 1.39802E-24
6.54508E-01 1.36806E-24
6.58652E-01 1.33872E-24
6.62784E-01 1.30998E-24
6.66903E-01 1.28183E-24
6.71010E-01 1.25426E-24
6.75104E-01 1.22724E-24
6.79184E-01 1.20078E-24
6.83251E-01 1.17485E-24
6.87303E-01 1.14945E-24
6.91342E-01 1.12456E-24
6.95366E-01 1.10017E-24
6.99375E-01 1.07626E-24
7.03368E-01 1.05284E-24
7.07347E-01 1.02988E-24
7.11309E-01 1.00738E-24
7.15256E-01 9.85318E-25
7.19186E-01 9.63697E-25
7.23099E-01 9.42502E-25
7.26995E-01 9.21725E-25
7.30874E-01 9.01355E-25
7.34736E-01 8.81384E-25
7.38579E-01 8.61804E-25
7.42405E-01 8.42605E-25
7.46212E-01 8.23781E-25
7.50000E-01 8.05322E-25
7.53769E-01 7.87221E-25
7.57519E-01 7.69470E-25
7.61249E-01 7.52062E-25
7.64960E-01 7.34991E-25
7.68650E-01 7.18248E-25
7.72320E-01 7.01828E-25
7.75968E-01 6.85722E-25
7.79596E-01 6.69926E-25
7.83203E-01 6.54433E-25
7.86788E-01 6.39237E-25
7.90351E-01 6.24330E-25
7.93893E-01 6.09709E-25
7.97411E-01 5.95367E-25
8.00908E-01 5.81299E-25
8.04381E-01 5.67499E-25
8.07831E-01 5.53962E-25
8.11257E-01 5.40682E-25
8.14660E-01 5.27656E-25
8.18039E-01 5.14878E-25
8.21394E-01 5.02343E-25
8.24724E-01 4.90046E-25
8.28030E-01 4.77984E-25
8.31310E-01 4.66152E-25
8.34565E-01 4.54545E-25
8.37795E-01 4.43159E-25
8.40999E-01 4.31990E-25
8.44177E-01 4.21035E-25
8.47329E-01 4.10289E-25
8.50455E-01 3.99749E-25
8.53553E-01 3.89410E-25
8.56625E-01 3.79270E-25
8.59670E-01 3.69324E-25
8.62687E-01 3.59570E-25
8.65677E-01 3.50004E-25
8.68639E-01 3.40622E-25
8.71572E-01 3.31422E-25
8.74478E-01 3.22400E-25
8.77355E-01 3.13554E-25
8.80203E-01 3.04880E-25
8.83022E-01 2.96376E-25
8.85812E-01 2.88039E-25
8.88573E-01 2.79865E-25
8.91304E-01 2.71853E-25
8.94005E-01 2.64000E-25
8.96677E-01 2.56302E-25
8.99318E-01 2.48759E-25
9.01928E-01 2.41366E-25
9.04508E-01 2.34122E-25
9.07058E-01 2.27025E-25
9.09576E-01 2.20073E-25
9.12063E-01 2.13262E-25
9.14519E-01 2.06592E-25
9.16943E-01 2.00059E-25
9.19335E-01 1.93662E-25
9.21696E-01 1.87399E-25
9.24024E-01 1.81268E-25
9.26320E-01 1.75266E-25
9.28584E-01 1.69393E-25
9.30815E-01 1.63647E-25
9.33013E-01 1.58025E-25
9.35178E-01 1.52526E-25
9.37310E-01 1.47148E-25
9.39409E-01 1.41890E-25
9.41474E-01 1.36750E-25
9.43505E-01 1.31726E-25
9.45503E-01 1.26818E-25
9.47467E-01 1.22023E-25
9.49397E-01 1.17340E-25
9.51293E-01 1.12768E-25
9.53154E-01 1.08306E-25
9.54981E-01 1.03951E-25
9.56773E-01 9.97036E-26
9.58530E-01 9.55616E-26
9.60252E-01 9.15240E-26
9.61940E-01 8.75896E-26
9.63592E-01 8.37573E-26
9.65209E-01 8.00260E-26
9.66790E-01 7.63946E-26
9.68336E-01 7.28621E-26
9.69846E-01 6.94275E-26
9.71321E-01 6.60898E-26
9.72759E-01 6.28480E-26
9.74162E-01 5.97012E-26
9.75528E-01 5.66486E-26
9.76858E-01 5.36893E-26
9.78152E-01 5.08223E-26
9.79410E-01 4.80471E-26
9.80631E-01 4.53626E-26
9.81815E-01 4.27683E-26
9.82963E-01 4.02634E-26
9.84074E-01 3.78471E-26
9.85148E-01 3.55188E-26
9.86185E-01 3.32779E-26
9.87185E-01 3.11238E-26
9.88148E-01 2.90558E-26
9.89074E-01 2.70734E-26
9.89962E-01 2.51760E-26
9.90814E-01 2.33631E-26
9.91627E-01 2.16342E-26
9.92404E-01 1.99889E-26
9.93143E-01 1.84266E-26
9.93844E-01 1.69470E-26
9.94508E-01 1.55496E-26
9.95134E-01 1.42341E-26
9.95722E-01 1.30001E-26
9.96273E-01 1.18473E-26
9.96786E-01 1.07754E-26
9.97261E-01 9.78398E-27
9.97698E-01 8.87289E-27
9.98097E-01 8.04185E-27
9.98459E-01 7.29063E-27
9.98782E-01 6.61904E-27
9.99067E-01 6.02688E-27
9.99315E-01 5.51401E-27
9.99524E-01 5.08027E-27
9.99695E-01 4.72555E-27
9.99829E-01 4.44976E-27
9.99924E-01 4.25282E-27
9.99981E-01 4.13467E-27
1.00000E+00 4.09529E-27
