 #
 # Subroutine ELSEPA. Elastic scattering of electrons and positrons
 #                    by neutral atoms and positive ions
 #
 # Projectile: electron
 # Kinetic energy = 4.50000E+07 eV = 1.65372E+06 a.u.
 #
 # WARNING: High-energy factorization with free-atom DF screening.
 #          Absorption, polarization and exchange corrections are
 #          switched off.
 #          Phase shifts are calculated for the bare nucleus.
 #          Scattering amplitudes are not evaluated.
 #
 # Element:  W,  Z =  74,  atomic weight = 1.83840E+02 g/mol
 #
 # Nuclear model: Fermi distribution
 #                Average radius = 6.08411E-13 cm
 #                Skin thickness = 5.46000E-14 cm
 #
 # Number of electrons = 74
 #
 # Total elastic cross section = 7.52473E-18 cm**2 = 2.68713E-01 a0**2
 # 1st transport cross section = 5.08321E-24 cm**2 = 1.81525E-07 a0**2
 # 2nd transport cross section = 1.48387E-23 cm**2 = 5.29899E-07 a0**2
 #
 #
 # Differential cross section:                       MU=(1-COS(THETA))/2
 #
 #  THETA        MU          DCS          DCS        Sherman      error
 #  (deg)                 (cm**2/sr)   (a0**2/sr)    function
 #----------------------------------------------------------------------
0.00000E+00 1.18063E-10
7.61557E-13 1.18000E-10
1.18994E-12 1.17965E-10
1.71346E-12 1.17921E-10
2.33225E-12 1.17870E-10
3.04617E-12 1.17812E-10
3.85530E-12 1.17745E-10
4.75964E-12 1.17671E-10
5.75917E-12 1.17589E-10
6.85391E-12 1.17500E-10
8.04379E-12 1.17403E-10
9.32893E-12 1.17298E-10
1.07092E-11 1.17186E-10
1.21847E-11 1.17066E-10
1.37554E-11 1.16938E-10
1.54213E-11 1.16804E-10
1.71823E-11 1.16661E-10
1.90386E-11 1.16512E-10
2.09900E-11 1.16355E-10
2.30367E-11 1.16191E-10
2.51785E-11 1.16019E-10
2.74156E-11 1.15841E-10
2.97478E-11 1.15655E-10
3.21752E-11 1.15462E-10
3.46979E-11 1.15263E-10
3.73157E-11 1.15056E-10
4.00286E-11 1.14843E-10
4.28368E-11 1.14623E-10
4.57402E-11 1.14396E-10
4.87388E-11 1.14162E-10
5.18325E-11 1.13922E-10
5.50215E-11 1.13675E-10
5.83057E-11 1.13422E-10
6.16850E-11 1.13163E-10
6.51595E-11 1.12897E-10
6.87293E-11 1.12626E-10
7.23943E-11 1.12348E-10
7.61544E-11 1.12064E-10
1.18991E-10 1.08909E-10
1.71347E-10 1.05263E-10
2.33223E-10 1.01203E-10
3.04617E-10 9.68443E-11
3.85531E-10 9.22853E-11
4.75965E-10 8.76188E-11
5.75917E-10 8.29259E-11
6.85389E-10 7.82691E-11
8.04380E-10 7.36951E-11
9.32891E-10 6.92680E-11
1.07092E-09 6.50214E-11
1.21847E-09 6.09787E-11
1.37554E-09 5.71538E-11
1.54213E-09 5.35469E-11
1.71823E-09 5.01583E-11
1.90386E-09 4.69949E-11
2.09900E-09 4.40492E-11
2.30367E-09 4.13117E-11
2.51785E-09 3.87712E-11
2.74156E-09 3.64105E-11
2.97478E-09 3.42196E-11
3.21752E-09 3.21905E-11
3.46978E-09 3.03110E-11
3.73156E-09 2.85694E-11
4.00286E-09 2.69548E-11
4.28368E-09 2.54523E-11
4.57402E-09 2.40554E-11
4.87388E-09 2.27574E-11
5.18326E-09 2.15497E-11
5.50215E-09 2.04250E-11
5.83057E-09 1.93762E-11
6.16850E-09 1.83936E-11
6.51596E-09 1.74747E-11
6.87293E-09 1.66151E-11
7.23942E-09 1.58100E-11
7.61544E-09 1.50551E-11
1.18991E-08 9.47489E-12
1.71347E-08 6.32817E-12
2.33223E-08 4.34244E-12
3.04617E-08 3.08621E-12
3.85531E-08 2.25678E-12
4.75965E-08 1.68961E-12
5.75917E-08 1.29005E-12
6.85389E-08 1.00007E-12
8.04380E-08 7.84365E-13
9.32891E-08 6.23007E-13
1.07092E-07 5.00295E-13
1.21847E-07 4.05693E-13
1.37554E-07 3.31924E-13
1.54213E-07 2.73696E-13
1.71823E-07 2.27408E-13
1.90386E-07 1.90470E-13
2.09900E-07 1.60741E-13
2.30367E-07 1.36622E-13
2.51785E-07 1.16910E-13
2.74156E-07 1.00698E-13
2.97478E-07 8.71669E-14
3.21752E-07 7.58791E-14
3.46978E-07 6.64093E-14
3.73156E-07 5.84135E-14
4.00286E-07 5.16190E-14
4.28368E-07 4.58006E-14
4.57402E-07 4.07911E-14
4.87388E-07 3.64570E-14
5.18325E-07 3.26886E-14
5.50215E-07 2.93976E-14
5.83057E-07 2.65121E-14
6.16850E-07 2.39694E-14
6.51596E-07 2.17256E-14
6.87293E-07 1.97399E-14
7.23942E-07 1.79774E-14
7.61543E-07 1.64083E-14
1.18991E-06 7.25086E-15
1.71347E-06 3.67847E-15
2.33223E-06 2.05857E-15
3.04617E-06 1.24002E-15
3.85531E-06 7.90914E-16
4.75964E-06 5.28058E-16
5.75916E-06 3.65969E-16
6.85388E-06 2.61615E-16
8.04378E-06 1.91960E-16
9.32888E-06 1.44016E-16
1.07092E-05 1.10141E-16
1.21846E-05 8.56569E-17
1.37553E-05 6.76068E-17
1.54212E-05 5.40650E-17
1.71822E-05 4.37465E-17
1.90385E-05 3.57541E-17
2.09899E-05 2.95385E-17
2.30365E-05 2.46117E-17
2.51783E-05 2.06642E-17
2.74153E-05 1.74726E-17
2.97475E-05 1.48717E-17
3.21749E-05 1.27372E-17
3.46974E-05 1.09733E-17
3.73152E-05 9.50593E-18
4.00281E-05 8.27694E-18
4.28362E-05 7.24086E-18
4.57395E-05 6.36201E-18
4.87380E-05 5.61233E-18
5.18317E-05 4.96961E-18
5.50205E-05 4.41612E-18
5.83045E-05 3.93755E-18
6.16838E-05 3.52218E-18
6.51582E-05 3.16031E-18
6.87277E-05 2.84391E-18
7.23925E-05 2.56623E-18
7.61524E-05 2.32155E-18
9.21439E-05 1.59197E-18
1.09658E-04 1.12787E-18
1.28695E-04 8.21388E-19
1.49255E-04 6.12308E-19
1.71338E-04 4.65781E-19
1.94942E-04 3.60599E-19
2.20070E-04 2.83524E-19
2.46720E-04 2.26003E-19
2.74892E-04 1.82368E-19
3.04586E-04 1.48786E-19
3.35803E-04 1.22599E-19
3.68542E-04 1.01935E-19
4.02802E-04 8.54532E-20
4.38585E-04 7.21771E-20
4.75889E-04 6.13862E-20
5.14715E-04 5.25425E-20
5.55063E-04 4.52386E-20
5.96931E-04 3.91636E-20
6.40321E-04 3.40773E-20
6.85233E-04 2.97926E-20
7.31665E-04 2.61624E-20
7.79618E-04 2.30701E-20
8.29092E-04 2.04229E-20
8.80086E-04 1.81459E-20
9.32601E-04 1.61786E-20
9.86636E-04 1.44717E-20
1.04219E-03 1.29849E-20
1.09927E-03 1.16850E-20
1.15786E-03 1.05444E-20
1.21797E-03 9.54013E-21
1.27961E-03 8.65317E-21
1.34276E-03 7.86738E-21
1.40743E-03 7.16921E-21
1.47362E-03 6.54716E-21
1.54133E-03 5.99147E-21
1.61056E-03 5.49380E-21
1.68131E-03 5.04701E-21
1.75357E-03 4.64498E-21
1.82735E-03 4.28241E-21
1.90265E-03 3.95475E-21
1.97947E-03 3.65800E-21
2.05780E-03 3.38875E-21
2.13765E-03 3.14397E-21
2.21902E-03 2.92104E-21
2.30190E-03 2.71765E-21
2.38630E-03 2.53177E-21
2.47222E-03 2.36163E-21
2.55965E-03 2.20564E-21
2.64859E-03 2.06241E-21
2.73905E-03 1.93070E-21
2.83103E-03 1.80942E-21
2.92452E-03 1.69758E-21
3.01952E-03 1.59432E-21
3.11604E-03 1.49885E-21
3.21407E-03 1.41048E-21
3.31362E-03 1.32857E-21
3.41468E-03 1.25258E-21
3.51725E-03 1.18198E-21
3.62133E-03 1.11634E-21
3.72692E-03 1.05522E-21
3.83403E-03 9.98267E-22
3.94265E-03 9.45138E-22
4.05278E-03 8.95527E-22
4.16442E-03 8.49159E-22
4.27757E-03 8.05779E-22
4.39223E-03 7.65160E-22
4.50840E-03 7.27091E-22
4.62608E-03 6.91384E-22
4.74527E-03 6.57862E-22
4.86597E-03 6.26364E-22
4.98817E-03 5.96751E-22
5.11188E-03 5.68881E-22
5.23711E-03 5.42635E-22
5.36383E-03 5.17902E-22
5.49207E-03 4.94574E-22
5.62181E-03 4.72559E-22
5.75306E-03 4.51767E-22
5.88581E-03 4.32118E-22
6.02007E-03 4.13536E-22
6.15583E-03 3.95952E-22
6.29310E-03 3.79303E-22
6.43187E-03 3.63528E-22
6.57214E-03 3.48573E-22
6.71392E-03 3.34388E-22
6.85720E-03 3.20924E-22
7.00198E-03 3.08137E-22
7.14827E-03 2.95989E-22
7.29605E-03 2.84439E-22
7.44534E-03 2.73452E-22
7.59612E-03 2.62997E-22
7.97965E-03 2.38985E-22
8.37255E-03 2.17678E-22
8.77480E-03 1.98716E-22
9.18641E-03 1.81795E-22
9.60736E-03 1.66654E-22
1.00376E-02 1.53072E-22
1.04773E-02 1.40859E-22
1.09262E-02 1.29852E-22
1.13844E-02 1.19909E-22
1.18520E-02 1.10909E-22
1.23288E-02 1.02746E-22
1.28150E-02 9.53265E-23
1.33104E-02 8.85683E-23
1.38150E-02 8.24034E-23
1.43290E-02 7.67700E-23
1.48521E-02 7.16134E-23
1.53845E-02 6.68859E-23
1.59262E-02 6.25448E-23
1.64770E-02 5.85526E-23
1.70371E-02 5.48759E-23
1.76063E-02 5.14850E-23
1.81848E-02 4.83535E-23
1.87724E-02 4.54577E-23
1.93692E-02 4.27764E-23
1.99751E-02 4.02908E-23
2.05901E-02 3.79839E-23
2.12143E-02 3.58402E-23
2.18476E-02 3.38460E-23
2.24900E-02 3.19890E-23
2.31415E-02 3.02578E-23
2.38021E-02 2.86422E-23
2.44717E-02 2.71331E-23
2.51504E-02 2.57221E-23
2.58382E-02 2.44016E-23
2.65349E-02 2.31646E-23
2.72407E-02 2.20049E-23
2.79555E-02 2.09166E-23
2.86793E-02 1.98946E-23
2.94120E-02 1.89340E-23
3.01537E-02 1.80304E-23
3.09043E-02 1.71798E-23
3.16639E-02 1.63784E-23
3.24324E-02 1.56230E-23
3.32098E-02 1.49102E-23
3.39961E-02 1.42373E-23
3.47912E-02 1.36016E-23
3.55952E-02 1.30006E-23
3.64081E-02 1.24321E-23
3.72297E-02 1.18940E-23
3.80602E-02 1.13844E-23
3.88995E-02 1.09013E-23
3.97476E-02 1.04433E-23
4.06044E-02 1.00087E-23
4.14700E-02 9.59619E-24
4.23443E-02 9.20432E-24
4.32273E-02 8.83191E-24
4.41190E-02 8.47781E-24
4.50194E-02 8.14093E-24
4.59284E-02 7.82029E-24
4.68461E-02 7.51496E-24
4.87074E-02 6.94678E-24
5.06030E-02 6.43010E-24
5.25328E-02 5.95943E-24
5.44967E-02 5.52995E-24
5.64946E-02 5.13740E-24
5.85262E-02 4.77805E-24
6.05914E-02 4.44860E-24
6.26901E-02 4.14613E-24
6.48222E-02 3.86803E-24
6.69873E-02 3.61202E-24
6.91854E-02 3.37602E-24
7.14163E-02 3.15820E-24
7.36799E-02 2.95693E-24
7.59760E-02 2.77073E-24
7.83043E-02 2.59829E-24
8.06647E-02 2.43841E-24
8.30571E-02 2.29003E-24
8.54812E-02 2.15218E-24
8.79369E-02 2.02400E-24
9.04240E-02 1.90468E-24
9.29422E-02 1.79353E-24
9.54915E-02 1.68989E-24
9.80716E-02 1.59317E-24
1.00682E-01 1.50283E-24
1.03323E-01 1.41840E-24
1.05995E-01 1.33941E-24
1.08696E-01 1.26548E-24
1.11427E-01 1.19621E-24
1.14188E-01 1.13128E-24
1.16978E-01 1.07037E-24
1.19797E-01 1.01320E-24
1.22645E-01 9.59494E-25
1.25522E-01 9.09021E-25
1.28428E-01 8.61554E-25
1.31361E-01 8.16890E-25
1.34323E-01 7.74840E-25
1.37313E-01 7.35227E-25
1.40330E-01 6.97893E-25
1.43375E-01 6.62687E-25
1.46447E-01 6.29471E-25
1.49545E-01 5.98117E-25
1.52671E-01 5.68508E-25
1.55823E-01 5.40534E-25
1.59001E-01 5.14091E-25
1.62205E-01 4.89086E-25
1.65435E-01 4.65431E-25
1.68690E-01 4.43042E-25
1.71970E-01 4.21845E-25
1.75276E-01 4.01768E-25
1.78606E-01 3.82744E-25
1.81961E-01 3.64711E-25
1.85340E-01 3.47612E-25
1.88743E-01 3.31393E-25
1.92169E-01 3.16003E-25
1.95619E-01 3.01395E-25
1.99092E-01 2.87525E-25
2.02589E-01 2.74351E-25
2.06107E-01 2.61835E-25
2.09649E-01 2.49940E-25
2.13212E-01 2.38632E-25
2.16797E-01 2.27879E-25
2.20404E-01 2.17652E-25
2.24032E-01 2.07920E-25
2.27680E-01 1.98659E-25
2.31350E-01 1.89844E-25
2.35040E-01 1.81450E-25
2.38751E-01 1.73455E-25
2.42481E-01 1.65840E-25
2.46231E-01 1.58583E-25
2.50000E-01 1.51668E-25
2.53788E-01 1.45075E-25
2.57595E-01 1.38789E-25
2.61421E-01 1.32795E-25
2.65264E-01 1.27077E-25
2.69126E-01 1.21622E-25
2.73005E-01 1.16416E-25
2.76901E-01 1.11448E-25
2.80814E-01 1.06705E-25
2.84744E-01 1.02177E-25
2.88691E-01 9.78533E-26
2.92653E-01 9.37235E-26
2.96632E-01 8.97784E-26
3.00625E-01 8.60092E-26
3.04634E-01 8.24075E-26
3.08658E-01 7.89653E-26
3.12697E-01 7.56751E-26
3.16749E-01 7.25296E-26
3.20816E-01 6.95221E-26
3.24896E-01 6.66461E-26
3.28990E-01 6.38955E-26
3.33097E-01 6.12644E-26
3.37216E-01 5.87473E-26
3.41348E-01 5.63390E-26
3.45492E-01 5.40344E-26
3.49647E-01 5.18289E-26
3.53814E-01 4.97180E-26
3.57992E-01 4.76972E-26
3.62181E-01 4.57626E-26
3.66381E-01 4.39103E-26
3.70590E-01 4.21366E-26
3.74810E-01 4.04379E-26
3.79039E-01 3.88110E-26
3.83277E-01 3.72525E-26
3.87524E-01 3.57596E-26
3.91780E-01 3.43292E-26
3.96044E-01 3.29587E-26
4.00316E-01 3.16454E-26
4.04596E-01 3.03868E-26
4.08882E-01 2.91805E-26
4.13176E-01 2.80242E-26
4.17476E-01 2.69158E-26
4.21783E-01 2.58532E-26
4.26095E-01 2.48344E-26
4.30413E-01 2.38576E-26
4.34737E-01 2.29208E-26
4.39065E-01 2.20225E-26
4.43398E-01 2.11610E-26
4.47736E-01 2.03346E-26
4.52077E-01 1.95419E-26
4.56422E-01 1.87815E-26
4.60770E-01 1.80520E-26
4.65122E-01 1.73521E-26
4.69476E-01 1.66805E-26
4.73832E-01 1.60361E-26
4.78190E-01 1.54177E-26
4.82550E-01 1.48242E-26
4.86912E-01 1.42546E-26
4.91274E-01 1.37079E-26
4.95637E-01 1.31831E-26
5.00000E-01 1.26793E-26
5.04363E-01 1.21957E-26
5.08726E-01 1.17314E-26
5.13088E-01 1.12855E-26
5.17450E-01 1.08574E-26
5.21810E-01 1.04464E-26
5.26168E-01 1.00516E-26
5.30524E-01 9.67249E-27
5.34878E-01 9.30836E-27
5.39230E-01 8.95862E-27
5.43578E-01 8.62267E-27
5.47923E-01 8.29994E-27
5.52264E-01 7.98991E-27
5.56602E-01 7.69205E-27
5.60935E-01 7.40587E-27
5.65263E-01 7.13089E-27
5.69587E-01 6.86666E-27
5.73905E-01 6.61274E-27
5.78217E-01 6.36871E-27
5.82524E-01 6.13417E-27
5.86824E-01 5.90875E-27
5.91118E-01 5.69207E-27
5.95404E-01 5.48378E-27
5.99684E-01 5.28354E-27
6.03956E-01 5.09103E-27
6.08220E-01 4.90594E-27
6.12476E-01 4.72797E-27
6.16723E-01 4.55683E-27
6.20961E-01 4.39226E-27
6.25190E-01 4.23398E-27
6.29410E-01 4.08176E-27
6.33619E-01 3.93533E-27
6.37819E-01 3.79449E-27
6.42008E-01 3.65899E-27
6.46186E-01 3.52864E-27
6.50353E-01 3.40322E-27
6.54508E-01 3.28253E-27
6.58652E-01 3.16640E-27
6.62784E-01 3.05464E-27
6.66903E-01 2.94708E-27
6.71010E-01 2.84355E-27
6.75104E-01 2.74390E-27
6.79184E-01 2.64796E-27
6.83251E-01 2.55559E-27
6.87303E-01 2.46666E-27
6.91342E-01 2.38102E-27
6.95366E-01 2.29855E-27
6.99375E-01 2.21912E-27
7.03368E-01 2.14262E-27
7.07347E-01 2.06893E-27
7.11309E-01 1.99793E-27
7.15256E-01 1.92953E-27
7.19186E-01 1.86362E-27
7.23099E-01 1.80010E-27
7.26995E-01 1.73888E-27
7.30874E-01 1.67988E-27
7.34736E-01 1.62300E-27
7.38579E-01 1.56817E-27
7.42405E-01 1.51530E-27
7.46212E-01 1.46431E-27
7.50000E-01 1.41514E-27
7.53769E-01 1.36772E-27
7.57519E-01 1.32197E-27
7.61249E-01 1.27784E-27
7.64960E-01 1.23525E-27
7.68650E-01 1.19416E-27
7.72320E-01 1.15450E-27
7.75968E-01 1.11621E-27
7.79596E-01 1.07926E-27
7.83203E-01 1.04358E-27
7.86788E-01 1.00912E-27
7.90351E-01 9.75851E-28
7.93893E-01 9.43713E-28
7.97411E-01 9.12667E-28
8.00908E-01 8.82672E-28
8.04381E-01 8.53688E-28
8.07831E-01 8.25678E-28
8.11257E-01 7.98604E-28
8.14660E-01 7.72432E-28
8.18039E-01 7.47128E-28
8.21394E-01 7.22659E-28
8.24724E-01 6.98995E-28
8.28030E-01 6.76105E-28
8.31310E-01 6.53961E-28
8.34565E-01 6.32536E-28
8.37795E-01 6.11803E-28
8.40999E-01 5.91737E-28
8.44177E-01 5.72313E-28
8.47329E-01 5.53508E-28
8.50455E-01 5.35300E-28
8.53553E-01 5.17667E-28
8.56625E-01 5.00589E-28
8.59670E-01 4.84045E-28
8.62687E-01 4.68016E-28
8.65677E-01 4.52485E-28
8.68639E-01 4.37434E-28
8.71572E-01 4.22845E-28
8.74478E-01 4.08703E-28
8.77355E-01 3.94992E-28
8.80203E-01 3.81697E-28
8.83022E-01 3.68804E-28
8.85812E-01 3.56299E-28
8.88573E-01 3.44169E-28
8.91304E-01 3.32402E-28
8.94005E-01 3.20984E-28
8.96677E-01 3.09905E-28
8.99318E-01 2.99153E-28
9.01928E-01 2.88717E-28
9.04508E-01 2.78588E-28
9.07058E-01 2.68755E-28
9.09576E-01 2.59208E-28
9.12063E-01 2.49939E-28
9.14519E-01 2.40939E-28
9.16943E-01 2.32200E-28
9.19335E-01 2.23713E-28
9.21696E-01 2.15470E-28
9.24024E-01 2.07465E-28
9.26320E-01 1.99690E-28
9.28584E-01 1.92138E-28
9.30815E-01 1.84803E-28
9.33013E-01 1.77678E-28
9.35178E-01 1.70758E-28
9.37310E-01 1.64037E-28
9.39409E-01 1.57508E-28
9.41474E-01 1.51168E-28
9.43505E-01 1.45010E-28
9.45503E-01 1.39029E-28
9.47467E-01 1.33222E-28
9.49397E-01 1.27584E-28
9.51293E-01 1.22109E-28
9.53154E-01 1.16795E-28
9.54981E-01 1.11637E-28
9.56773E-01 1.06632E-28
9.58530E-01 1.01775E-28
9.60252E-01 9.70634E-29
9.61940E-01 9.24938E-29
9.63592E-01 8.80629E-29
9.65209E-01 8.37677E-29
9.66790E-01 7.96052E-29
9.68336E-01 7.55726E-29
9.69846E-01 7.16673E-29
9.71321E-01 6.78866E-29
9.72759E-01 6.42282E-29
9.74162E-01 6.06897E-29
9.75528E-01 5.72687E-29
9.76858E-01 5.39633E-29
9.78152E-01 5.07713E-29
9.79410E-01 4.76908E-29
9.80631E-01 4.47198E-29
9.81815E-01 4.18567E-29
9.82963E-01 3.90998E-29
9.84074E-01 3.64473E-29
9.85148E-01 3.38978E-29
9.86185E-01 3.14498E-29
9.87185E-01 2.91020E-29
9.88148E-01 2.68529E-29
9.89074E-01 2.47014E-29
9.89962E-01 2.26462E-29
9.90814E-01 2.06862E-29
9.91627E-01 1.88203E-29
9.92404E-01 1.70476E-29
9.93143E-01 1.53671E-29
9.93844E-01 1.37779E-29
9.94508E-01 1.22792E-29
9.95134E-01 1.08702E-29
9.95722E-01 9.55005E-30
9.96273E-01 8.31821E-30
9.96786E-01 7.17400E-30
9.97261E-01 6.11683E-30
9.97698E-01 5.14618E-30
9.98097E-01 4.26155E-30
9.98459E-01 3.46249E-30
9.98782E-01 2.74861E-30
9.99067E-01 2.11954E-30
9.99315E-01 1.57497E-30
9.99524E-01 1.11464E-30
9.99695E-01 7.38321E-31
9.99829E-01 4.45816E-31
9.99924E-01 2.36988E-31
9.99981E-01 1.11731E-31
1.00000E+00 6.99864E-32
