 #
 # Subroutine ELSEPA. Elastic scattering of electrons and positrons
 #                    by neutral atoms and positive ions
 #
 # Projectile: electron
 # Kinetic energy = 2.00000E+08 eV = 7.34987E+06 a.u.
 #
 # WARNING: High-energy factorization with free-atom DF screening.
 #          Absorption, polarization and exchange corrections are
 #          switched off.
 #          Phase shifts are calculated for the bare nucleus.
 #          Scattering amplitudes are not evaluated.
 #
 # Element:  W,  Z =  74,  atomic weight = 1.83840E+02 g/mol
 #
 # Nuclear model: Fermi distribution
 #                Average radius = 6.08411E-13 cm
 #                Skin thickness = 5.46000E-14 cm
 #
 # Number of electrons = 74
 #
 # Total elastic cross section = 7.52155E-18 cm**2 = 2.68599E-01 a0**2
 # 1st transport cross section = 2.59752E-25 cm**2 = 9.27592E-09 a0**2
 # 2nd transport cross section = 7.77510E-25 cm**2 = 2.77654E-08 a0**2
 #
 #
 # Differential cross section:                       MU=(1-COS(THETA))/2
 #
 #  THETA        MU          DCS          DCS        Sherman      error
 #  (deg)                 (cm**2/sr)   (a0**2/sr)    function
 #----------------------------------------------------------------------
0.00000E+00 2.29170E-09
7.61557E-13 2.26825E-09
1.18994E-12 2.25525E-09
1.71346E-12 2.23954E-09
2.33225E-12 2.22121E-09
3.04617E-12 2.20037E-09
3.85530E-12 2.17716E-09
4.75964E-12 2.15170E-09
5.75917E-12 2.12413E-09
6.85391E-12 2.09446E-09
8.04379E-12 2.06322E-09
9.32893E-12 2.03038E-09
1.07092E-11 1.99588E-09
1.21847E-11 1.96038E-09
1.37554E-11 1.92357E-09
1.54213E-11 1.88578E-09
1.71823E-11 1.84754E-09
1.90386E-11 1.80820E-09
2.09900E-11 1.76859E-09
2.30367E-11 1.72890E-09
2.51785E-11 1.68847E-09
2.74156E-11 1.64834E-09
2.97478E-11 1.60825E-09
3.21752E-11 1.56803E-09
3.46979E-11 1.52845E-09
3.73157E-11 1.48894E-09
4.00286E-11 1.44986E-09
4.28368E-11 1.41165E-09
4.57402E-11 1.37349E-09
4.87388E-11 1.33621E-09
5.18325E-11 1.29979E-09
5.50215E-11 1.26366E-09
5.83057E-11 1.22862E-09
6.16850E-11 1.19431E-09
6.51595E-11 1.16063E-09
6.87293E-11 1.12807E-09
7.23943E-11 1.09610E-09
7.61544E-11 1.06501E-09
1.18991E-10 8.00316E-10
1.71347E-10 6.08645E-10
2.33223E-10 4.71044E-10
3.04617E-10 3.71200E-10
3.85531E-10 2.97191E-10
4.75965E-10 2.41104E-10
5.75917E-10 1.97652E-10
6.85389E-10 1.61929E-10
8.04380E-10 1.35658E-10
9.32891E-10 1.14764E-10
1.07092E-09 9.67516E-11
1.21847E-09 8.28877E-11
1.37554E-09 7.11165E-11
1.54213E-09 6.12510E-11
1.71823E-09 5.33875E-11
1.90386E-09 4.64054E-11
2.09900E-09 4.06383E-11
2.30367E-09 3.58671E-11
2.51785E-09 3.15726E-11
2.74156E-09 2.80093E-11
2.97478E-09 2.49349E-11
3.21752E-09 2.22064E-11
3.46978E-09 1.98995E-11
3.73156E-09 1.78419E-11
4.00286E-09 1.60347E-11
4.28368E-09 1.44836E-11
4.57402E-09 1.30638E-11
4.87388E-09 1.18271E-11
5.18326E-09 1.07427E-11
5.50215E-09 9.74995E-12
5.83057E-09 8.88176E-12
6.16850E-09 8.10382E-12
6.51596E-09 7.39927E-12
6.87293E-09 6.77712E-12
7.23942E-09 6.21074E-12
7.61544E-09 5.70141E-12
1.18991E-08 2.63837E-12
1.71347E-08 1.38843E-12
2.33223E-08 8.05815E-13
3.04617E-08 5.01490E-13
3.85531E-08 3.28462E-13
4.75965E-08 2.24070E-13
5.75917E-08 1.57906E-13
6.85389E-08 1.14431E-13
8.04380E-08 8.49052E-14
9.32891E-08 6.43111E-14
1.07092E-07 4.96008E-14
1.21847E-07 3.88657E-14
1.37554E-07 3.08841E-14
1.54213E-07 2.48508E-14
1.71823E-07 2.02218E-14
1.90386E-07 1.66228E-14
2.09900E-07 1.37906E-14
2.30367E-07 1.15372E-14
2.51785E-07 9.72636E-15
2.74156E-07 8.25712E-15
2.97478E-07 7.05540E-15
3.21752E-07 6.06481E-15
3.46978E-07 5.24229E-15
3.73156E-07 4.55469E-15
4.00286E-07 3.97626E-15
4.28368E-07 3.48681E-15
4.57402E-07 3.07039E-15
4.87388E-07 2.71429E-15
5.18325E-07 2.40832E-15
5.50215E-07 2.14422E-15
5.83057E-07 1.91530E-15
6.16850E-07 1.71606E-15
6.51596E-07 1.54203E-15
6.87293E-07 1.38948E-15
7.23942E-07 1.25531E-15
7.61543E-07 1.13693E-15
1.18991E-06 4.73439E-16
1.71347E-06 2.30701E-16
2.33223E-06 1.25453E-16
3.04617E-06 7.39588E-17
3.85531E-06 4.63840E-17
4.75964E-06 3.05470E-17
5.75916E-06 2.09291E-17
6.85388E-06 1.48162E-17
8.04378E-06 1.07808E-17
9.32888E-06 8.03034E-18
1.07092E-05 6.10366E-18
1.21846E-05 4.72160E-18
1.37553E-05 3.70947E-18
1.54212E-05 2.95456E-18
1.71822E-05 2.38226E-18
1.90385E-05 1.94099E-18
2.09899E-05 1.59914E-18
2.30365E-05 1.32912E-18
2.51783E-05 1.11345E-18
2.74153E-05 9.39555E-19
2.97475E-05 7.98205E-19
3.21749E-05 6.82458E-19
3.46974E-05 5.87009E-19
3.73152E-05 5.07751E-19
4.00281E-05 4.41485E-19
4.28362E-05 3.85711E-19
4.57395E-05 3.38473E-19
4.87380E-05 2.98234E-19
5.18317E-05 2.63784E-19
5.50205E-05 2.34155E-19
5.83045E-05 2.08567E-19
6.16838E-05 1.86384E-19
6.51582E-05 1.67080E-19
6.87277E-05 1.50219E-19
7.23925E-05 1.35437E-19
7.61524E-05 1.22799E-19
9.21439E-05 8.40252E-20
1.09658E-04 5.94301E-20
1.28695E-04 4.32261E-20
1.49255E-04 3.21931E-20
1.71338E-04 2.44731E-20
1.94942E-04 1.89385E-20
2.20070E-04 1.48868E-20
2.46720E-04 1.18653E-20
2.74892E-04 9.57463E-21
3.04586E-04 7.81233E-21
3.35803E-04 6.43843E-21
3.68542E-04 5.35445E-21
4.02802E-04 4.48986E-21
4.38585E-04 3.79337E-21
4.75889E-04 3.22718E-21
5.14715E-04 2.76306E-21
5.55063E-04 2.37964E-21
5.96931E-04 2.06064E-21
6.40321E-04 1.79349E-21
6.85233E-04 1.56828E-21
7.31665E-04 1.37738E-21
7.79618E-04 1.21470E-21
8.29092E-04 1.07536E-21
8.80086E-04 9.55460E-22
9.32601E-04 8.51818E-22
9.86636E-04 7.61855E-22
1.04219E-03 6.83454E-22
1.09927E-03 6.14877E-22
1.15786E-03 5.54676E-22
1.21797E-03 5.01652E-22
1.27961E-03 4.54800E-22
1.34276E-03 4.13275E-22
1.40743E-03 3.76367E-22
1.47362E-03 3.43471E-22
1.54133E-03 3.14075E-22
1.61056E-03 2.87740E-22
1.68131E-03 2.64091E-22
1.75357E-03 2.42806E-22
1.82735E-03 2.23606E-22
1.90265E-03 2.06251E-22
1.97947E-03 1.90532E-22
2.05780E-03 1.76267E-22
2.13765E-03 1.63298E-22
2.21902E-03 1.51486E-22
2.30190E-03 1.40709E-22
2.38630E-03 1.30861E-22
2.47222E-03 1.21847E-22
2.55965E-03 1.13584E-22
2.64859E-03 1.05998E-22
2.73905E-03 9.90242E-23
2.83103E-03 9.26038E-23
2.92452E-03 8.66853E-23
3.01952E-03 8.12225E-23
3.11604E-03 7.61740E-23
3.21407E-03 7.15029E-23
3.31362E-03 6.71759E-23
3.41468E-03 6.31632E-23
3.51725E-03 5.94379E-23
3.62133E-03 5.59758E-23
3.72692E-03 5.27550E-23
3.83403E-03 4.97558E-23
3.94265E-03 4.69602E-23
4.05278E-03 4.43520E-23
4.16442E-03 4.19164E-23
4.27757E-03 3.96400E-23
4.39223E-03 3.75106E-23
4.50840E-03 3.55171E-23
4.62608E-03 3.36492E-23
4.74527E-03 3.18978E-23
4.86597E-03 3.02542E-23
4.98817E-03 2.87108E-23
5.11188E-03 2.72603E-23
5.23711E-03 2.58962E-23
5.36383E-03 2.46126E-23
5.49207E-03 2.34038E-23
5.62181E-03 2.22647E-23
5.75306E-03 2.11907E-23
5.88581E-03 2.01774E-23
6.02007E-03 1.92208E-23
6.15583E-03 1.83172E-23
6.29310E-03 1.74632E-23
6.43187E-03 1.66557E-23
6.57214E-03 1.58916E-23
6.71392E-03 1.51682E-23
6.85720E-03 1.44831E-23
7.00198E-03 1.38339E-23
7.14827E-03 1.32184E-23
7.29605E-03 1.26346E-23
7.44534E-03 1.20805E-23
7.59612E-03 1.15545E-23
7.97965E-03 1.03516E-23
8.37255E-03 9.29101E-24
8.77480E-03 8.35364E-24
9.18641E-03 7.52315E-24
9.60736E-03 6.78569E-24
1.00376E-02 6.12941E-24
1.04773E-02 5.54420E-24
1.09262E-02 5.02135E-24
1.13844E-02 4.55336E-24
1.18520E-02 4.13375E-24
1.23288E-02 3.75688E-24
1.28150E-02 3.41788E-24
1.33104E-02 3.11249E-24
1.38150E-02 2.83698E-24
1.43290E-02 2.58810E-24
1.48521E-02 2.36298E-24
1.53845E-02 2.15911E-24
1.59262E-02 1.97426E-24
1.64770E-02 1.80648E-24
1.70371E-02 1.65403E-24
1.76063E-02 1.51537E-24
1.81848E-02 1.38914E-24
1.87724E-02 1.27411E-24
1.93692E-02 1.16920E-24
1.99751E-02 1.07345E-24
2.05901E-02 9.85978E-25
2.12143E-02 9.06020E-25
2.18476E-02 8.32876E-25
2.24900E-02 7.65922E-25
2.31415E-02 7.04593E-25
2.38021E-02 6.48385E-25
2.44717E-02 5.96841E-25
2.51504E-02 5.49547E-25
2.58382E-02 5.06133E-25
2.65349E-02 4.66259E-25
2.72407E-02 4.29622E-25
2.79555E-02 3.95943E-25
2.86793E-02 3.64973E-25
2.94120E-02 3.36481E-25
3.01537E-02 3.10262E-25
3.09043E-02 2.86125E-25
3.16639E-02 2.63898E-25
3.24324E-02 2.43425E-25
3.32098E-02 2.24562E-25
3.39961E-02 2.07177E-25
3.47912E-02 1.91153E-25
3.55952E-02 1.76379E-25
3.64081E-02 1.62755E-25
3.72297E-02 1.50190E-25
3.80602E-02 1.38599E-25
3.88995E-02 1.27905E-25
3.97476E-02 1.18039E-25
4.06044E-02 1.08935E-25
4.14700E-02 1.00533E-25
4.23443E-02 9.27783E-26
4.32273E-02 8.56214E-26
4.41190E-02 7.90155E-26
4.50194E-02 7.29182E-26
4.59284E-02 6.72901E-26
4.68461E-02 6.20951E-26
4.87074E-02 5.28741E-26
5.06030E-02 4.50189E-26
5.25328E-02 3.83286E-26
5.44967E-02 3.26321E-26
5.64946E-02 2.77836E-26
5.85262E-02 2.36587E-26
6.05914E-02 2.01511E-26
6.26901E-02 1.71700E-26
6.48222E-02 1.46378E-26
6.69873E-02 1.24884E-26
6.91854E-02 1.06648E-26
7.14163E-02 9.11877E-27
7.36799E-02 7.80867E-27
7.59760E-02 6.69912E-27
7.83043E-02 5.75981E-27
8.06647E-02 4.96489E-27
8.30571E-02 4.29227E-27
8.54812E-02 3.72313E-27
8.79369E-02 3.24141E-27
9.04240E-02 2.83345E-27
9.29422E-02 2.48765E-27
9.54915E-02 2.19414E-27
9.80716E-02 1.94457E-27
1.00682E-01 1.73186E-27
1.03323E-01 1.55004E-27
1.05995E-01 1.39407E-27
1.08696E-01 1.25970E-27
1.11427E-01 1.14339E-27
1.14188E-01 1.04215E-27
1.16978E-01 9.53497E-28
1.19797E-01 8.75354E-28
1.22645E-01 8.06003E-28
1.25522E-01 7.44021E-28
1.28428E-01 6.88233E-28
1.31361E-01 6.37675E-28
1.34323E-01 5.91554E-28
1.37313E-01 5.49225E-28
1.40330E-01 5.10162E-28
1.43375E-01 4.73940E-28
1.46447E-01 4.40213E-28
1.49545E-01 4.08703E-28
1.52671E-01 3.79185E-28
1.55823E-01 3.51478E-28
1.59001E-01 3.25435E-28
1.62205E-01 3.00936E-28
1.65435E-01 2.77883E-28
1.68690E-01 2.56195E-28
1.71970E-01 2.35801E-28
1.75276E-01 2.16643E-28
1.78606E-01 1.98667E-28
1.81961E-01 1.81826E-28
1.85340E-01 1.66072E-28
1.88743E-01 1.51365E-28
1.92169E-01 1.37663E-28
1.95619E-01 1.24924E-28
1.99092E-01 1.13109E-28
2.02589E-01 1.02176E-28
2.06107E-01 9.20853E-29
2.09649E-01 8.27961E-29
2.13212E-01 7.42677E-29
2.16797E-01 6.64595E-29
2.20404E-01 5.93310E-29
2.24032E-01 5.28421E-29
2.27680E-01 4.69532E-29
2.31350E-01 4.16253E-29
2.35040E-01 3.68204E-29
2.38751E-01 3.25014E-29
2.42481E-01 2.86321E-29
2.46231E-01 2.51779E-29
2.50000E-01 2.21054E-29
2.53788E-01 1.93824E-29
2.57595E-01 1.69787E-29
2.61421E-01 1.48653E-29
2.65264E-01 1.30148E-29
2.69126E-01 1.14015E-29
2.73005E-01 1.00015E-29
2.76901E-01 8.79215E-30
2.80814E-01 7.75270E-30
2.84744E-01 6.86381E-30
2.88691E-01 6.10769E-30
2.92653E-01 5.46804E-30
2.96632E-01 4.92995E-30
3.00625E-01 4.47987E-30
3.04634E-01 4.10557E-30
3.08658E-01 3.79598E-30
3.12697E-01 3.54123E-30
3.16749E-01 3.33250E-30
3.20816E-01 3.16197E-30
3.24896E-01 3.02277E-30
3.28990E-01 2.90887E-30
3.33097E-01 2.81504E-30
3.37216E-01 2.73677E-30
3.41348E-01 2.67021E-30
3.45492E-01 2.61209E-30
3.49647E-01 2.55969E-30
3.53814E-01 2.51076E-30
3.57992E-01 2.46349E-30
3.62181E-01 2.41643E-30
3.66381E-01 2.36845E-30
3.70590E-01 2.31873E-30
3.74810E-01 2.26669E-30
3.79039E-01 2.21196E-30
3.83277E-01 2.15435E-30
3.87524E-01 2.09380E-30
3.91780E-01 2.03041E-30
3.96044E-01 1.96434E-30
4.00316E-01 1.89585E-30
4.04596E-01 1.82525E-30
4.08882E-01 1.75289E-30
4.13176E-01 1.67915E-30
4.17476E-01 1.60443E-30
4.21783E-01 1.52912E-30
4.26095E-01 1.45362E-30
4.30413E-01 1.37831E-30
4.34737E-01 1.30356E-30
4.39065E-01 1.22971E-30
4.43398E-01 1.15709E-30
4.47736E-01 1.08597E-30
4.52077E-01 1.01663E-30
4.56422E-01 9.49292E-31
4.60770E-01 8.84159E-31
4.65122E-01 8.21399E-31
4.69476E-01 7.61152E-31
4.73832E-01 7.03529E-31
4.78190E-01 6.48613E-31
4.82550E-01 5.96461E-31
4.86912E-01 5.47106E-31
4.91274E-01 5.00558E-31
4.95637E-01 4.56807E-31
5.00000E-01 4.15824E-31
5.04363E-01 3.77565E-31
5.08726E-01 3.41970E-31
5.13088E-01 3.08966E-31
5.17450E-01 2.78470E-31
5.21810E-01 2.50390E-31
5.26168E-01 2.24627E-31
5.30524E-01 2.01075E-31
5.34878E-01 1.79624E-31
5.39230E-01 1.60162E-31
5.43578E-01 1.42574E-31
5.47923E-01 1.26745E-31
5.52264E-01 1.12561E-31
5.56602E-01 9.99065E-32
5.60935E-01 8.86714E-32
5.65263E-01 7.87463E-32
5.69587E-01 7.00256E-32
5.73905E-01 6.24072E-32
5.78217E-01 5.57932E-32
5.82524E-01 5.00902E-32
5.86824E-01 4.52094E-32
5.91118E-01 4.10668E-32
5.95404E-01 3.75835E-32
5.99684E-01 3.46853E-32
6.03956E-01 3.23033E-32
6.08220E-01 3.03733E-32
6.12476E-01 2.88361E-32
6.16723E-01 2.76372E-32
6.20961E-01 2.67268E-32
6.25190E-01 2.60595E-32
6.29410E-01 2.55942E-32
6.33619E-01 2.52937E-32
6.37819E-01 2.51249E-32
6.42008E-01 2.50583E-32
6.46186E-01 2.50677E-32
6.50353E-01 2.51303E-32
6.54508E-01 2.52261E-32
6.58652E-01 2.53379E-32
6.62784E-01 2.54512E-32
6.66903E-01 2.55537E-32
6.71010E-01 2.56352E-32
6.75104E-01 2.56875E-32
6.79184E-01 2.57041E-32
6.83251E-01 2.56800E-32
6.87303E-01 2.56118E-32
6.91342E-01 2.54971E-32
6.95366E-01 2.53346E-32
6.99375E-01 2.51241E-32
7.03368E-01 2.48661E-32
7.07347E-01 2.45616E-32
7.11309E-01 2.42126E-32
7.15256E-01 2.38212E-32
7.19186E-01 2.33900E-32
7.23099E-01 2.29218E-32
7.26995E-01 2.24200E-32
7.30874E-01 2.18876E-32
7.34736E-01 2.13280E-32
7.38579E-01 2.07447E-32
7.42405E-01 2.01411E-32
7.46212E-01 1.95206E-32
7.50000E-01 1.88864E-32
7.53769E-01 1.82417E-32
7.57519E-01 1.75896E-32
7.61249E-01 1.69330E-32
7.64960E-01 1.62747E-32
7.68650E-01 1.56172E-32
7.72320E-01 1.49630E-32
7.75968E-01 1.43143E-32
7.79596E-01 1.36732E-32
7.83203E-01 1.30414E-32
7.86788E-01 1.24208E-32
7.90351E-01 1.18127E-32
7.93893E-01 1.12184E-32
7.97411E-01 1.06393E-32
8.00908E-01 1.00761E-32
8.04381E-01 9.52973E-33
8.07831E-01 9.00090E-33
8.11257E-01 8.49011E-33
8.14660E-01 7.99778E-33
8.18039E-01 7.52419E-33
8.21394E-01 7.06951E-33
8.24724E-01 6.63381E-33
8.28030E-01 6.21706E-33
8.31310E-01 5.81915E-33
8.34565E-01 5.43989E-33
8.37795E-01 5.07902E-33
8.40999E-01 4.73623E-33
8.44177E-01 4.41114E-33
8.47329E-01 4.10332E-33
8.50455E-01 3.81233E-33
8.53553E-01 3.53767E-33
8.56625E-01 3.27881E-33
8.59670E-01 3.03521E-33
8.62687E-01 2.80631E-33
8.65677E-01 2.59155E-33
8.68639E-01 2.39034E-33
8.71572E-01 2.20210E-33
8.74478E-01 2.02624E-33
8.77355E-01 1.86219E-33
8.80203E-01 1.70936E-33
8.83022E-01 1.56718E-33
8.85812E-01 1.43511E-33
8.88573E-01 1.31259E-33
8.91304E-01 1.19908E-33
8.94005E-01 1.09408E-33
8.96677E-01 9.97076E-34
8.99318E-01 9.07587E-34
9.01928E-01 8.25144E-34
9.04508E-01 7.49299E-34
9.07058E-01 6.79621E-34
9.09576E-01 6.15698E-34
9.12063E-01 5.57137E-34
9.14519E-01 5.03566E-34
9.16943E-01 4.54626E-34
9.19335E-01 4.09984E-34
9.21696E-01 3.69319E-34
9.24024E-01 3.32331E-34
9.26320E-01 2.98735E-34
9.28584E-01 2.68266E-34
9.30815E-01 2.40673E-34
9.33013E-01 2.15722E-34
9.35178E-01 1.93192E-34
9.37310E-01 1.72880E-34
9.39409E-01 1.54593E-34
9.41474E-01 1.38155E-34
9.43505E-01 1.23400E-34
9.45503E-01 1.10176E-34
9.47467E-01 9.83408E-35
9.49397E-01 8.77634E-35
9.51293E-01 7.83239E-35
9.53154E-01 6.99108E-35
9.54981E-01 6.24227E-35
9.56773E-01 5.57658E-35
9.58530E-01 4.98547E-35
9.60252E-01 4.46114E-35
9.61940E-01 3.99644E-35
9.63592E-01 3.58493E-35
9.65209E-01 3.22070E-35
9.66790E-01 2.89845E-35
9.68336E-01 2.61335E-35
9.69846E-01 2.36108E-35
9.71321E-01 2.13771E-35
9.72759E-01 1.93977E-35
9.74162E-01 1.76411E-35
9.75528E-01 1.60794E-35
9.76858E-01 1.46877E-35
9.78152E-01 1.34442E-35
9.79410E-01 1.23292E-35
9.80631E-01 1.13257E-35
9.81815E-01 1.04187E-35
9.82963E-01 9.59514E-36
9.84074E-01 8.84358E-36
9.85148E-01 8.15418E-36
9.86185E-01 7.51860E-36
9.87185E-01 6.92963E-36
9.88148E-01 6.38111E-36
9.89074E-01 5.86800E-36
9.89962E-01 5.38608E-36
9.90814E-01 4.93196E-36
9.91627E-01 4.50274E-36
9.92404E-01 4.09622E-36
9.93143E-01 3.71080E-36
9.93844E-01 3.34508E-36
9.94508E-01 2.99828E-36
9.95134E-01 2.66971E-36
9.95722E-01 2.35904E-36
9.96273E-01 2.06630E-36
9.96786E-01 1.79146E-36
9.97261E-01 1.53464E-36
9.97698E-01 1.29629E-36
9.98097E-01 1.07666E-36
9.98459E-01 8.76188E-37
9.98782E-01 6.95250E-37
9.99067E-01 5.34424E-37
9.99315E-01 3.94073E-37
9.99524E-01 2.74543E-37
9.99695E-01 1.76269E-37
9.99829E-01 9.94777E-38
9.99924E-01 4.44634E-38
9.99981E-01 1.13772E-38
1.00000E+00 3.32662E-40
