 #
 # Subroutine ELSEPA. Elastic scattering of electrons and positrons
 #                    by neutral atoms and positive ions
 #
 # Projectile: electron
 # Kinetic energy = 3.50000E+08 eV = 1.28623E+07 a.u.
 #
 # WARNING: High-energy factorization with free-atom DF screening.
 #          Absorption, polarization and exchange corrections are
 #          switched off.
 #          Phase shifts are calculated for the bare nucleus.
 #          Scattering amplitudes are not evaluated.
 #
 # Element: Ca,  Z =  20,  atomic weight = 4.00780E+01 g/mol
 #
 # Nuclear model: Fermi distribution
 #                Average radius = 3.66173E-13 cm
 #                Skin thickness = 5.46000E-14 cm
 #
 # Number of electrons = 20
 #
 # Total elastic cross section = 1.81002E-18 cm**2 = 6.46372E-02 a0**2
 # 1st transport cross section = 6.91480E-27 cm**2 = 2.46932E-10 a0**2
 # 2nd transport cross section = 2.07214E-26 cm**2 = 7.39973E-10 a0**2
 #
 #
 # Differential cross section:                       MU=(1-COS(THETA))/2
 #
 #  THETA        MU          DCS          DCS        Sherman      error
 #  (deg)                 (cm**2/sr)   (a0**2/sr)    function
 #----------------------------------------------------------------------
0.00000E+00 4.59972E-09
7.61557E-13 4.30290E-09
1.18994E-12 4.14824E-09
1.71346E-12 3.97011E-09
2.33225E-12 3.77383E-09
3.04617E-12 3.56481E-09
3.85530E-12 3.34822E-09
4.75964E-12 3.12888E-09
5.75917E-12 2.91088E-09
6.85391E-12 2.69788E-09
8.04379E-12 2.49251E-09
9.32893E-12 2.29707E-09
1.07092E-11 2.11280E-09
1.21847E-11 1.94083E-09
1.37554E-11 1.78539E-09
1.54213E-11 1.64059E-09
1.71823E-11 1.50498E-09
1.90386E-11 1.37857E-09
2.09900E-11 1.26821E-09
2.30367E-11 1.16848E-09
2.51785E-11 1.07615E-09
2.74156E-11 9.90877E-10
2.97478E-11 9.16328E-10
3.21752E-11 8.49554E-10
3.46979E-11 7.87980E-10
3.73157E-11 7.31257E-10
4.00286E-11 6.81025E-10
4.28368E-11 6.35976E-10
4.57402E-11 5.94430E-10
4.87388E-11 5.56116E-10
5.18325E-11 5.21577E-10
5.50215E-11 4.90320E-10
5.83057E-11 4.61435E-10
6.16850E-11 4.34730E-10
6.51595E-11 4.10224E-10
6.87293E-11 3.87733E-10
7.23943E-11 3.66891E-10
7.61544E-11 3.47564E-10
1.18991E-10 2.11985E-10
1.71347E-10 1.36237E-10
2.33223E-10 8.99872E-11
3.04617E-10 6.07566E-11
3.85531E-10 4.19528E-11
4.75965E-10 2.96742E-11
5.75917E-10 2.15300E-11
6.85389E-10 1.60112E-11
8.04380E-10 1.21921E-11
9.32891E-10 9.48612E-12
1.07092E-09 7.52405E-12
1.21847E-09 6.06762E-12
1.37554E-09 4.96036E-12
1.54213E-09 4.10983E-12
1.71823E-09 3.43758E-12
1.90386E-09 2.90189E-12
2.09900E-09 2.47025E-12
2.30367E-09 2.11362E-12
2.51785E-09 1.82114E-12
2.74156E-09 1.57628E-12
2.97478E-09 1.37039E-12
3.21752E-09 1.19753E-12
3.46978E-09 1.04896E-12
3.73156E-09 9.22854E-13
4.00286E-09 8.14617E-13
4.28368E-09 7.20980E-13
4.57402E-09 6.40429E-13
4.87388E-09 5.70169E-13
5.18326E-09 5.09119E-13
5.50215E-09 4.55922E-13
5.83057E-09 4.09109E-13
6.16850E-09 3.68148E-13
6.51596E-09 3.32026E-13
6.87293E-09 3.00126E-13
7.23942E-09 2.71956E-13
7.61544E-09 2.46887E-13
1.18991E-08 1.04369E-13
1.71347E-08 5.13692E-14
2.33223E-08 2.82134E-14
3.04617E-08 1.67953E-14
3.85531E-08 1.06267E-14
4.75965E-08 7.05173E-15
5.75917E-08 4.86204E-15
6.85389E-08 3.45962E-15
8.04380E-08 2.52770E-15
9.32891E-08 1.88898E-15
1.07092E-07 1.43947E-15
1.21847E-07 1.11580E-15
1.37554E-07 8.78015E-16
1.54213E-07 7.00197E-16
1.71823E-07 5.65122E-16
1.90386E-07 4.61039E-16
2.09900E-07 3.79814E-16
2.30367E-07 3.15685E-16
2.51785E-07 2.64518E-16
2.74156E-07 2.23295E-16
2.97478E-07 1.89789E-16
3.21752E-07 1.62331E-16
3.46978E-07 1.39659E-16
3.73156E-07 1.20806E-16
4.00286E-07 1.05027E-16
4.28368E-07 9.17404E-17
4.57402E-07 8.04882E-17
4.87388E-07 7.09083E-17
5.18325E-07 6.27113E-17
5.50215E-07 5.56645E-17
5.83057E-07 4.95798E-17
6.16850E-07 4.43039E-17
6.51596E-07 3.97111E-17
6.87293E-07 3.56981E-17
7.23942E-07 3.21793E-17
7.61543E-07 2.90834E-17
1.18991E-06 1.19215E-17
1.71347E-06 5.75139E-18
2.33223E-06 3.10479E-18
3.04617E-06 1.82015E-18
3.85531E-06 1.13642E-18
4.75964E-06 7.45676E-19
5.75916E-06 5.09355E-19
6.85388E-06 3.59673E-19
8.04378E-06 2.61156E-19
9.32888E-06 1.94179E-19
1.07092E-05 1.47364E-19
1.21846E-05 1.13846E-19
1.37553E-05 8.93391E-20
1.54212E-05 7.10866E-20
1.71822E-05 5.72670E-20
1.90385E-05 4.66450E-20
2.09899E-05 3.83811E-20
2.30365E-05 3.18691E-20
2.51783E-05 2.66811E-20
2.74153E-05 2.25066E-20
2.97475E-05 1.91172E-20
3.21749E-05 1.63425E-20
3.46974E-05 1.40535E-20
3.73152E-05 1.21518E-20
4.00281E-05 1.05615E-20
4.28362E-05 9.22316E-21
4.57395E-05 8.09036E-21
4.87380E-05 7.12628E-21
5.18317E-05 6.30161E-21
5.50205E-05 5.59282E-21
5.83045E-05 4.98093E-21
6.16838E-05 4.45049E-21
6.51582E-05 3.98885E-21
6.87277E-05 3.58558E-21
7.23925E-05 3.23205E-21
7.61524E-05 2.91320E-21
9.21439E-05 1.98919E-21
1.09658E-04 1.40396E-21
1.28695E-04 1.01886E-21
1.49255E-04 7.57073E-22
1.71338E-04 5.74140E-22
1.94942E-04 4.43199E-22
2.20070E-04 3.47489E-22
2.46720E-04 2.76230E-22
2.74892E-04 2.22296E-22
3.04586E-04 1.80874E-22
3.35803E-04 1.48639E-22
3.68542E-04 1.23252E-22
4.02802E-04 1.03042E-22
4.38585E-04 8.67920E-23
4.75889E-04 7.36088E-23
5.14715E-04 6.28237E-23
5.55063E-04 5.39327E-23
5.96931E-04 4.65509E-23
6.40321E-04 4.03815E-23
6.85233E-04 3.51939E-23
7.31665E-04 3.08068E-23
7.79618E-04 2.70767E-23
8.29092E-04 2.38894E-23
8.80086E-04 2.11531E-23
9.32601E-04 1.87935E-23
9.86636E-04 1.67503E-23
1.04219E-03 1.49741E-23
1.09927E-03 1.34242E-23
1.15786E-03 1.20672E-23
1.21797E-03 1.08749E-23
1.27961E-03 9.82412E-24
1.34276E-03 8.89526E-24
1.40743E-03 8.07180E-24
1.47362E-03 7.33980E-24
1.54133E-03 6.68742E-24
1.61056E-03 6.10453E-24
1.68131E-03 5.58252E-24
1.75357E-03 5.11395E-24
1.82735E-03 4.69244E-24
1.90265E-03 4.31249E-24
1.97947E-03 3.96930E-24
2.05780E-03 3.65872E-24
2.13765E-03 3.37715E-24
2.21902E-03 3.12142E-24
2.30190E-03 2.88876E-24
2.38630E-03 2.67675E-24
2.47222E-03 2.48325E-24
2.55965E-03 2.30637E-24
2.64859E-03 2.14446E-24
2.73905E-03 1.99603E-24
2.83103E-03 1.85977E-24
2.92452E-03 1.73454E-24
3.01952E-03 1.61927E-24
3.11604E-03 1.51306E-24
3.21407E-03 1.41508E-24
3.31362E-03 1.32457E-24
3.41468E-03 1.24089E-24
3.51725E-03 1.16343E-24
3.62133E-03 1.09165E-24
3.72692E-03 1.02507E-24
3.83403E-03 9.63259E-25
3.94265E-03 9.05811E-25
4.05278E-03 8.52371E-25
4.16442E-03 8.02617E-25
4.27757E-03 7.56253E-25
4.39223E-03 7.13011E-25
4.50840E-03 6.72649E-25
4.62608E-03 6.34944E-25
4.74527E-03 5.99694E-25
4.86597E-03 5.66715E-25
4.98817E-03 5.35837E-25
5.11188E-03 5.06906E-25
5.23711E-03 4.79780E-25
5.36383E-03 4.54329E-25
5.49207E-03 4.30434E-25
5.62181E-03 4.07986E-25
5.75306E-03 3.86884E-25
5.88581E-03 3.67035E-25
6.02007E-03 3.48353E-25
6.15583E-03 3.30760E-25
6.29310E-03 3.14183E-25
6.43187E-03 2.98554E-25
6.57214E-03 2.83812E-25
6.71392E-03 2.69898E-25
6.85720E-03 2.56760E-25
7.00198E-03 2.44349E-25
7.14827E-03 2.32617E-25
7.29605E-03 2.21523E-25
7.44534E-03 2.11027E-25
7.59612E-03 2.01093E-25
7.97965E-03 1.78494E-25
8.37255E-03 1.58724E-25
8.77480E-03 1.41384E-25
9.18641E-03 1.26141E-25
9.60736E-03 1.12710E-25
1.00376E-02 1.00851E-25
1.04773E-02 9.03588E-26
1.09262E-02 8.10587E-26
1.13844E-02 7.28005E-26
1.18520E-02 6.54548E-26
1.23288E-02 5.89104E-26
1.28150E-02 5.30711E-26
1.33104E-02 4.78534E-26
1.38150E-02 4.31847E-26
1.43290E-02 3.90020E-26
1.48521E-02 3.52500E-26
1.53845E-02 3.18806E-26
1.59262E-02 2.88514E-26
1.64770E-02 2.61253E-26
1.70371E-02 2.36696E-26
1.76063E-02 2.14554E-26
1.81848E-02 1.94572E-26
1.87724E-02 1.76524E-26
1.93692E-02 1.60212E-26
1.99751E-02 1.45458E-26
2.05901E-02 1.32103E-26
2.12143E-02 1.20007E-26
2.18476E-02 1.09046E-26
2.24900E-02 9.91062E-27
2.31415E-02 9.00891E-27
2.38021E-02 8.19047E-27
2.44717E-02 7.44729E-27
2.51504E-02 6.77216E-27
2.58382E-02 6.15863E-27
2.65349E-02 5.60089E-27
2.72407E-02 5.09371E-27
2.79555E-02 4.63238E-27
2.86793E-02 4.21264E-27
2.94120E-02 3.83067E-27
3.01537E-02 3.48300E-27
3.09043E-02 3.16650E-27
3.16639E-02 2.87834E-27
3.24324E-02 2.61596E-27
3.32098E-02 2.37702E-27
3.39961E-02 2.15943E-27
3.47912E-02 1.96127E-27
3.55952E-02 1.78082E-27
3.64081E-02 1.61648E-27
3.72297E-02 1.46683E-27
3.80602E-02 1.33057E-27
3.88995E-02 1.20652E-27
3.97476E-02 1.09359E-27
4.06044E-02 9.90813E-28
4.14700E-02 8.97282E-28
4.23443E-02 8.12187E-28
4.32273E-02 7.34787E-28
4.41190E-02 6.64403E-28
4.50194E-02 6.00419E-28
4.59284E-02 5.42272E-28
4.68461E-02 4.89447E-28
4.87074E-02 3.97928E-28
5.06030E-02 3.22580E-28
5.25328E-02 2.60665E-28
5.44967E-02 2.09898E-28
5.64946E-02 1.68375E-28
5.85262E-02 1.34506E-28
6.05914E-02 1.06965E-28
6.26901E-02 8.46469E-29
6.48222E-02 6.66304E-29
6.69873E-02 5.21487E-29
6.91854E-02 4.05640E-29
7.14163E-02 3.13466E-29
7.36799E-02 2.40570E-29
7.59760E-02 1.83315E-29
7.83043E-02 1.38695E-29
8.06647E-02 1.04234E-29
8.30571E-02 7.78945E-30
8.54812E-02 5.80079E-30
8.79369E-02 4.32111E-30
9.04240E-02 3.23954E-30
9.29422E-02 2.46628E-30
9.54915E-02 1.92898E-30
9.80716E-02 1.56967E-30
1.00682E-01 1.34225E-30
1.03323E-01 1.21032E-30
1.05995E-01 1.14541E-30
1.08696E-01 1.12552E-30
1.11427E-01 1.13385E-30
1.14188E-01 1.15781E-30
1.16978E-01 1.18817E-30
1.19797E-01 1.21834E-30
1.22645E-01 1.24384E-30
1.25522E-01 1.26179E-30
1.28428E-01 1.27056E-30
1.31361E-01 1.26945E-30
1.34323E-01 1.25843E-30
1.37313E-01 1.23798E-30
1.40330E-01 1.20890E-30
1.43375E-01 1.17220E-30
1.46447E-01 1.12898E-30
1.49545E-01 1.08043E-30
1.52671E-01 1.02769E-30
1.55823E-01 9.71864E-31
1.59001E-01 9.13990E-31
1.62205E-01 8.55003E-31
1.65435E-01 7.95742E-31
1.68690E-01 7.36936E-31
1.71970E-01 6.79212E-31
1.75276E-01 6.23094E-31
1.78606E-01 5.69006E-31
1.81961E-01 5.17286E-31
1.85340E-01 4.68188E-31
1.88743E-01 4.21892E-31
1.92169E-01 3.78513E-31
1.95619E-01 3.38110E-31
1.99092E-01 3.00692E-31
2.02589E-01 2.66227E-31
2.06107E-01 2.34650E-31
2.09649E-01 2.05868E-31
2.13212E-01 1.79766E-31
2.16797E-01 1.56213E-31
2.20404E-01 1.35064E-31
2.24032E-01 1.16170E-31
2.27680E-01 9.93755E-32
2.31350E-01 8.45229E-32
2.35040E-01 7.14569E-32
2.38751E-01 6.00250E-32
2.42481E-01 5.00791E-32
2.46231E-01 4.14773E-32
2.50000E-01 3.40847E-32
2.53788E-01 2.77739E-32
2.57595E-01 2.24256E-32
2.61421E-01 1.79287E-32
2.65264E-01 1.41808E-32
2.69126E-01 1.10878E-32
2.73005E-01 8.56363E-33
2.76901E-01 6.53038E-33
2.80814E-01 4.91769E-33
2.84744E-01 3.66245E-33
2.88691E-01 2.70842E-33
2.92653E-01 2.00573E-33
2.96632E-01 1.51043E-33
3.00625E-01 1.18410E-33
3.04634E-01 9.93287E-34
3.08658E-01 9.09144E-34
3.12697E-01 9.06954E-34
3.16749E-01 9.65728E-34
3.20816E-01 1.06781E-33
3.24896E-01 1.19852E-33
3.28990E-01 1.34577E-33
3.33097E-01 1.49979E-33
3.37216E-01 1.65282E-33
3.41348E-01 1.79881E-33
3.45492E-01 1.93321E-33
3.49647E-01 2.05275E-33
3.53814E-01 2.15521E-33
3.57992E-01 2.23926E-33
3.62181E-01 2.30430E-33
3.66381E-01 2.35034E-33
3.70590E-01 2.37785E-33
3.74810E-01 2.38765E-33
3.79039E-01 2.38087E-33
3.83277E-01 2.35880E-33
3.87524E-01 2.32289E-33
3.91780E-01 2.27466E-33
3.96044E-01 2.21564E-33
4.00316E-01 2.14737E-33
4.04596E-01 2.07137E-33
4.08882E-01 1.98907E-33
4.13176E-01 1.90183E-33
4.17476E-01 1.81093E-33
4.21783E-01 1.71755E-33
4.26095E-01 1.62275E-33
4.30413E-01 1.52750E-33
4.34737E-01 1.43267E-33
4.39065E-01 1.33899E-33
4.43398E-01 1.24713E-33
4.47736E-01 1.15764E-33
4.52077E-01 1.07098E-33
4.56422E-01 9.87537E-34
4.60770E-01 9.07602E-34
4.65122E-01 8.31406E-34
4.69476E-01 7.59114E-34
4.73832E-01 6.90829E-34
4.78190E-01 6.26604E-34
4.82550E-01 5.66446E-34
4.86912E-01 5.10322E-34
4.91274E-01 4.58167E-34
4.95637E-01 4.09886E-34
5.00000E-01 3.65360E-34
5.04363E-01 3.24452E-34
5.08726E-01 2.87008E-34
5.13088E-01 2.52863E-34
5.17450E-01 2.21847E-34
5.21810E-01 1.93780E-34
5.26168E-01 1.68482E-34
5.30524E-01 1.45773E-34
5.34878E-01 1.25472E-34
5.39230E-01 1.07404E-34
5.43578E-01 9.13951E-35
5.47923E-01 7.72799E-35
5.52264E-01 6.48980E-35
5.56602E-01 5.40959E-35
5.60935E-01 4.47282E-35
5.65263E-01 3.66573E-35
5.69587E-01 2.97535E-35
5.73905E-01 2.38956E-35
5.78217E-01 1.89706E-35
5.82524E-01 1.48737E-35
5.86824E-01 1.15078E-35
5.91118E-01 8.78408E-36
5.95404E-01 6.62068E-36
5.99684E-01 4.94332E-36
6.03956E-01 3.68439E-36
6.08220E-01 2.78278E-36
6.12476E-01 2.18352E-36
6.16723E-01 1.83741E-36
6.20961E-01 1.70040E-36
6.25190E-01 1.73370E-36
6.29410E-01 1.90290E-36
6.33619E-01 2.17795E-36
6.37819E-01 2.53252E-36
6.42008E-01 2.94402E-36
6.46186E-01 3.39286E-36
6.50353E-01 3.86259E-36
6.54508E-01 4.33919E-36
6.58652E-01 4.81107E-36
6.62784E-01 5.26871E-36
6.66903E-01 5.70443E-36
6.71010E-01 6.11225E-36
6.75104E-01 6.48757E-36
6.79184E-01 6.82708E-36
6.83251E-01 7.12848E-36
6.87303E-01 7.39053E-36
6.91342E-01 7.61266E-36
6.95366E-01 7.79504E-36
6.99375E-01 7.93835E-36
7.03368E-01 8.04374E-36
7.07347E-01 8.11275E-36
7.11309E-01 8.14717E-36
7.15256E-01 8.14902E-36
7.19186E-01 8.12047E-36
7.23099E-01 8.06380E-36
7.26995E-01 7.98135E-36
7.30874E-01 7.87549E-36
7.34736E-01 7.74855E-36
7.38579E-01 7.60284E-36
7.42405E-01 7.44060E-36
7.46212E-01 7.26401E-36
7.50000E-01 7.07514E-36
7.53769E-01 6.87594E-36
7.57519E-01 6.66827E-36
7.61249E-01 6.45389E-36
7.64960E-01 6.23439E-36
7.68650E-01 6.01128E-36
7.72320E-01 5.78593E-36
7.75968E-01 5.55961E-36
7.79596E-01 5.33343E-36
7.83203E-01 5.10845E-36
7.86788E-01 4.88556E-36
7.90351E-01 4.66558E-36
7.93893E-01 4.44924E-36
7.97411E-01 4.23715E-36
8.00908E-01 4.02985E-36
8.04381E-01 3.82780E-36
8.07831E-01 3.63136E-36
8.11257E-01 3.44086E-36
8.14660E-01 3.25654E-36
8.18039E-01 3.07858E-36
8.21394E-01 2.90713E-36
8.24724E-01 2.74226E-36
8.28030E-01 2.58402E-36
8.31310E-01 2.43242E-36
8.34565E-01 2.28742E-36
8.37795E-01 2.14895E-36
8.40999E-01 2.01693E-36
8.44177E-01 1.89124E-36
8.47329E-01 1.77176E-36
8.50455E-01 1.65834E-36
8.53553E-01 1.55082E-36
8.56625E-01 1.44900E-36
8.59670E-01 1.35272E-36
8.62687E-01 1.26179E-36
8.65677E-01 1.17600E-36
8.68639E-01 1.09516E-36
8.71572E-01 1.01905E-36
8.74478E-01 9.47492E-37
8.77355E-01 8.80276E-37
8.80203E-01 8.17197E-37
8.83022E-01 7.58063E-37
8.85812E-01 7.02677E-37
8.88573E-01 6.50855E-37
8.91304E-01 6.02406E-37
8.94005E-01 5.57157E-37
8.96677E-01 5.14931E-37
8.99318E-01 4.75565E-37
9.01928E-01 4.38892E-37
9.04508E-01 4.04753E-37
9.07058E-01 3.73002E-37
9.09576E-01 3.43504E-37
9.12063E-01 3.16113E-37
9.14519E-01 2.90706E-37
9.16943E-01 2.67149E-37
9.19335E-01 2.45333E-37
9.21696E-01 2.25141E-37
9.24024E-01 2.06464E-37
9.26320E-01 1.89213E-37
9.28584E-01 1.73281E-37
9.30815E-01 1.58584E-37
9.33013E-01 1.45032E-37
9.35178E-01 1.32550E-37
9.37310E-01 1.21055E-37
9.39409E-01 1.10482E-37
9.41474E-01 1.00762E-37
9.43505E-01 9.18370E-38
9.45503E-01 8.36436E-38
9.47467E-01 7.61233E-38
9.49397E-01 6.92342E-38
9.51293E-01 6.29214E-38
9.53154E-01 5.71465E-38
9.54981E-01 5.18619E-38
9.56773E-01 4.70313E-38
9.58530E-01 4.26166E-38
9.60252E-01 3.85878E-38
9.61940E-01 3.49115E-38
9.63592E-01 3.15614E-38
9.65209E-01 2.85076E-38
9.66790E-01 2.57285E-38
9.68336E-01 2.31981E-38
9.69846E-01 2.08981E-38
9.71321E-01 1.88105E-38
9.72759E-01 1.69133E-38
9.74162E-01 1.51935E-38
9.75528E-01 1.36338E-38
9.76858E-01 1.22213E-38
9.78152E-01 1.09448E-38
9.79410E-01 9.78860E-39
9.80631E-01 8.74532E-39
9.81815E-01 7.80290E-39
9.82963E-01 6.95242E-39
9.84074E-01 6.18712E-39
9.85148E-01 5.49640E-39
9.86185E-01 4.87516E-39
9.87185E-01 4.31633E-39
9.88148E-01 3.81565E-39
9.89074E-01 3.36480E-39
9.89962E-01 2.96101E-39
9.90814E-01 2.59957E-39
9.91627E-01 2.27526E-39
9.92404E-01 1.98511E-39
9.93143E-01 1.72660E-39
9.93844E-01 1.49618E-39
9.94508E-01 1.28982E-39
9.95134E-01 1.10641E-39
9.95722E-01 9.43401E-40
9.96273E-01 7.98319E-40
9.96786E-01 6.70179E-40
9.97261E-01 5.56943E-40
9.97698E-01 4.57625E-40
9.98097E-01 3.70048E-40
9.98459E-01 2.93983E-40
9.98782E-01 2.28818E-40
9.99067E-01 1.72310E-40
9.99315E-01 1.25242E-40
9.99524E-01 8.58882E-41
9.99695E-01 5.45535E-41
9.99829E-01 3.04503E-41
9.99924E-01 1.37815E-41
9.99981E-01 3.54342E-42
1.00000E+00 1.01456E-42
