 #
 # Subroutine ELSEPA. Elastic scattering of electrons and positrons
 #                    by neutral atoms and positive ions
 #
 # Projectile: electron
 # Kinetic energy = 8.00000E+08 eV = 2.93995E+07 a.u.
 #
 # WARNING: High-energy factorization with free-atom DF screening.
 #          Absorption, polarization and exchange corrections are
 #          switched off.
 #          Phase shifts are calculated for the bare nucleus.
 #          Scattering amplitudes are not evaluated.
 #
 # Element: Ca,  Z =  20,  atomic weight = 4.00780E+01 g/mol
 #
 # Nuclear model: Fermi distribution
 #                Average radius = 3.66173E-13 cm
 #                Skin thickness = 5.46000E-14 cm
 #
 # Number of electrons = 20
 #
 # Total elastic cross section = 1.78312E-18 cm**2 = 6.36764E-02 a0**2
 # 1st transport cross section = 1.32618E-27 cm**2 = 4.73589E-11 a0**2
 # 2nd transport cross section = 3.97768E-27 cm**2 = 1.42046E-10 a0**2
 #
 #
 # Differential cross section:                       MU=(1-COS(THETA))/2
 #
 #  THETA        MU          DCS          DCS        Sherman      error
 #  (deg)                 (cm**2/sr)   (a0**2/sr)    function
 #----------------------------------------------------------------------
0.00000E+00 2.39918E-08
7.61557E-13 1.73095E-08
1.18994E-12 1.47130E-08
1.71346E-12 1.22782E-08
2.33225E-12 1.01345E-08
3.04617E-12 8.36094E-09
3.85530E-12 6.85948E-09
4.75964E-12 5.68837E-09
5.75917E-12 4.73540E-09
6.85391E-12 3.98693E-09
8.04379E-12 3.38804E-09
9.32893E-12 2.90568E-09
1.07092E-11 2.51751E-09
1.21847E-11 2.19657E-09
1.37554E-11 1.93208E-09
1.54213E-11 1.70913E-09
1.71823E-11 1.51972E-09
1.90386E-11 1.35711E-09
2.09900E-11 1.21661E-09
2.30367E-11 1.09322E-09
2.51785E-11 9.86042E-10
2.74156E-11 8.89676E-10
2.97478E-11 8.05611E-10
3.21752E-11 7.29467E-10
3.46979E-11 6.62184E-10
3.73157E-11 6.01609E-10
4.00286E-11 5.47224E-10
4.28368E-11 4.98627E-10
4.57402E-11 4.54402E-10
4.87388E-11 4.15120E-10
5.18325E-11 3.79064E-10
5.50215E-11 3.46932E-10
5.83057E-11 3.17689E-10
6.16850E-11 2.91337E-10
6.51595E-11 2.67486E-10
6.87293E-11 2.45821E-10
7.23943E-11 2.26306E-10
7.61544E-11 2.08465E-10
1.18991E-10 9.88936E-11
1.71347E-10 5.31939E-11
2.33223E-10 3.17343E-11
3.04617E-10 2.03993E-11
3.85531E-10 1.38253E-11
4.75965E-10 9.73024E-12
5.75917E-10 7.02851E-12
6.85389E-10 5.19349E-12
8.04380E-10 3.90437E-12
9.32891E-10 2.98282E-12
1.07092E-09 2.31200E-12
1.21847E-09 1.81507E-12
1.37554E-09 1.44288E-12
1.54213E-09 1.15976E-12
1.71823E-09 9.42166E-13
1.90386E-09 7.72921E-13
2.09900E-09 6.39825E-13
2.30367E-09 5.34162E-13
2.51785E-09 4.49414E-13
2.74156E-09 3.80871E-13
2.97478E-09 3.24953E-13
3.21752E-09 2.78973E-13
3.46978E-09 2.40893E-13
3.73156E-09 2.09125E-13
4.00286E-09 1.82459E-13
4.28368E-09 1.59936E-13
4.57402E-09 1.40804E-13
4.87388E-09 1.24467E-13
5.18326E-09 1.10444E-13
5.50215E-09 9.83527E-14
5.83057E-09 8.78788E-14
6.16850E-09 7.87691E-14
6.51596E-09 7.08149E-14
6.87293E-09 6.38425E-14
7.23942E-09 5.77108E-14
7.61544E-09 5.22992E-14
1.18991E-08 2.19100E-14
1.71347E-08 1.07189E-14
2.33223E-08 5.83832E-15
3.04617E-08 3.44209E-15
3.85531E-08 2.15699E-15
4.75965E-08 1.41879E-15
5.75917E-08 9.70746E-16
6.85389E-08 6.86258E-16
8.04380E-08 4.98686E-16
9.32891E-08 3.71002E-16
1.07092E-07 2.81670E-16
1.21847E-07 2.17668E-16
1.37554E-07 1.70848E-16
1.54213E-07 1.35963E-16
1.71823E-07 1.09542E-16
1.90386E-07 8.92366E-17
2.09900E-07 7.34249E-17
2.30367E-07 6.09646E-17
2.51785E-07 5.10386E-17
2.74156E-07 4.30527E-17
2.97478E-07 3.65692E-17
3.21752E-07 3.12615E-17
3.46978E-07 2.68819E-17
3.73156E-07 2.32428E-17
4.00286E-07 2.01991E-17
4.28368E-07 1.76378E-17
4.57402E-07 1.54699E-17
4.87388E-07 1.36251E-17
5.18325E-07 1.20472E-17
5.50215E-07 1.06913E-17
5.83057E-07 9.52095E-18
6.16850E-07 8.50642E-18
6.51596E-07 7.62350E-18
6.87293E-07 6.85222E-18
7.23942E-07 6.17606E-18
7.61543E-07 5.58129E-18
1.18991E-06 2.28632E-18
1.71347E-06 1.10269E-18
2.33223E-06 5.95261E-19
3.04617E-06 3.48964E-19
3.85531E-06 2.17877E-19
4.75964E-06 1.42962E-19
5.75916E-06 9.76543E-20
6.85388E-06 6.89569E-20
8.04378E-06 5.00691E-20
9.32888E-06 3.72282E-20
1.07092E-05 2.82527E-20
1.21846E-05 2.18266E-20
1.37553E-05 1.71281E-20
1.54212E-05 1.36288E-20
1.71822E-05 1.09792E-20
1.90385E-05 8.94280E-21
2.09899E-05 7.35843E-21
2.30365E-05 6.10995E-21
2.51783E-05 5.11530E-21
2.74153E-05 4.31497E-21
2.97475E-05 3.66516E-21
3.21749E-05 3.13318E-21
3.46974E-05 2.69434E-21
3.73152E-05 2.32975E-21
4.00281E-05 2.02485E-21
4.28362E-05 1.76826E-21
4.57395E-05 1.55108E-21
4.87380E-05 1.36625E-21
5.18317E-05 1.20814E-21
5.50205E-05 1.07226E-21
5.83045E-05 9.54944E-22
6.16838E-05 8.53248E-22
6.51582E-05 7.64742E-22
6.87277E-05 6.87428E-22
7.23925E-05 6.19649E-22
7.61524E-05 5.50749E-22
9.21439E-05 3.74848E-22
1.09658E-04 2.63619E-22
1.28695E-04 1.90559E-22
1.49255E-04 1.40992E-22
1.71338E-04 1.06430E-22
1.94942E-04 8.17493E-23
2.20070E-04 6.37547E-23
2.46720E-04 5.03938E-23
2.74892E-04 4.03106E-23
3.04586E-04 3.25908E-23
3.35803E-04 2.66029E-23
3.68542E-04 2.19037E-23
4.02802E-04 1.81765E-23
4.38585E-04 1.51914E-23
4.75889E-04 1.27796E-23
5.14715E-04 1.08150E-23
5.55063E-04 9.20276E-24
5.96931E-04 7.87053E-24
6.40321E-04 6.76264E-24
6.85233E-04 5.83587E-24
7.31665E-04 5.05632E-24
7.79618E-04 4.39725E-24
8.29092E-04 3.83736E-24
8.80086E-04 3.35961E-24
9.32601E-04 2.95023E-24
9.86636E-04 2.59806E-24
1.04219E-03 2.29399E-24
1.09927E-03 2.03052E-24
1.15786E-03 1.80150E-24
1.21797E-03 1.60181E-24
1.27961E-03 1.42718E-24
1.34276E-03 1.27404E-24
1.40743E-03 1.13940E-24
1.47362E-03 1.02074E-24
1.54133E-03 9.15914E-25
1.61056E-03 8.23103E-25
1.68131E-03 7.40759E-25
1.75357E-03 6.67555E-25
1.82735E-03 6.02355E-25
1.90265E-03 5.44178E-25
1.97947E-03 4.92179E-25
2.05780E-03 4.45627E-25
2.13765E-03 4.03888E-25
2.21902E-03 3.66407E-25
2.30190E-03 3.32705E-25
2.38630E-03 3.02359E-25
2.47222E-03 2.75001E-25
2.55965E-03 2.50308E-25
2.64859E-03 2.27993E-25
2.73905E-03 2.07806E-25
2.83103E-03 1.89525E-25
2.92452E-03 1.72953E-25
3.01952E-03 1.57918E-25
3.11604E-03 1.44263E-25
3.21407E-03 1.31853E-25
3.31362E-03 1.20564E-25
3.41468E-03 1.10287E-25
3.51725E-03 1.00925E-25
3.62133E-03 9.23902E-26
3.72692E-03 8.46049E-26
3.83403E-03 7.74986E-26
3.94265E-03 7.10085E-26
4.05278E-03 6.50779E-26
4.16442E-03 5.96556E-26
4.27757E-03 5.46958E-26
4.39223E-03 5.01570E-26
4.50840E-03 4.60015E-26
4.62608E-03 4.21956E-26
4.74527E-03 3.87085E-26
4.86597E-03 3.55125E-26
4.98817E-03 3.25822E-26
5.11188E-03 2.98949E-26
5.23711E-03 2.74296E-26
5.36383E-03 2.51675E-26
5.49207E-03 2.30915E-26
5.62181E-03 2.11857E-26
5.75306E-03 1.94360E-26
5.88581E-03 1.78293E-26
6.02007E-03 1.63537E-26
6.15583E-03 1.49984E-26
6.29310E-03 1.37535E-26
6.43187E-03 1.26099E-26
6.57214E-03 1.15592E-26
6.71392E-03 1.05940E-26
6.85720E-03 9.70729E-27
7.00198E-03 8.89265E-27
7.14827E-03 8.14427E-27
7.29605E-03 7.45679E-27
7.44534E-03 6.82532E-27
7.59612E-03 6.24533E-27
7.97965E-03 4.99431E-27
8.37255E-03 3.98416E-27
8.77480E-03 3.16951E-27
9.18641E-03 2.51355E-27
9.60736E-03 1.98638E-27
1.00376E-02 1.56365E-27
1.04773E-02 1.22556E-27
1.09262E-02 9.55971E-28
1.13844E-02 7.41751E-28
1.18520E-02 5.72191E-28
1.23288E-02 4.38574E-28
1.28150E-02 3.33811E-28
1.33104E-02 2.52137E-28
1.38150E-02 1.88875E-28
1.43290E-02 1.40235E-28
1.48521E-02 1.03155E-28
1.53845E-02 7.51624E-29
1.59262E-02 5.42709E-29
1.64770E-02 3.88887E-29
1.70371E-02 2.77451E-29
1.76063E-02 1.98309E-29
1.81848E-02 1.43484E-29
1.87724E-02 1.06715E-29
1.93692E-02 8.31196E-30
1.99751E-02 6.89244E-30
2.05901E-02 6.12423E-30
2.12143E-02 5.78918E-30
2.18476E-02 5.72488E-30
2.24900E-02 5.81273E-30
2.31415E-02 5.96825E-30
2.38021E-02 6.13330E-30
2.44717E-02 6.26979E-30
2.51504E-02 6.35471E-30
2.58382E-02 6.37618E-30
2.65349E-02 6.33032E-30
2.72407E-02 6.21886E-30
2.79555E-02 6.04718E-30
2.86793E-02 5.82299E-30
2.94120E-02 5.55518E-30
3.01537E-02 5.25306E-30
3.09043E-02 4.92580E-30
3.16639E-02 4.58206E-30
3.24324E-02 4.22969E-30
3.32098E-02 3.87565E-30
3.39961E-02 3.52589E-30
3.47912E-02 3.18539E-30
3.55952E-02 2.85816E-30
3.64081E-02 2.54728E-30
3.72297E-02 2.25505E-30
3.80602E-02 1.98300E-30
3.88995E-02 1.73205E-30
3.97476E-02 1.50254E-30
4.06044E-02 1.29439E-30
4.14700E-02 1.10711E-30
4.23443E-02 9.39927E-31
4.32273E-02 7.91854E-31
4.41190E-02 6.61726E-31
4.50194E-02 5.48269E-31
4.59284E-02 4.50148E-31
4.68461E-02 3.65999E-31
4.87074E-02 2.34217E-31
5.06030E-02 1.42555E-31
5.25328E-02 8.16709E-32
5.44967E-02 4.35411E-32
5.64946E-02 2.15581E-32
5.85262E-02 1.04854E-32
6.05914E-02 6.32974E-33
6.26901E-02 6.16926E-33
6.48222E-02 7.96506E-33
6.69873E-02 1.03770E-32
6.91854E-02 1.25955E-32
7.14163E-02 1.41964E-32
7.36799E-02 1.50209E-32
7.59760E-02 1.50804E-32
7.83043E-02 1.44849E-32
8.06647E-02 1.33904E-32
8.30571E-02 1.19640E-32
8.54812E-02 1.03608E-32
8.79369E-02 8.71198E-33
9.04240E-02 7.11910E-33
9.29422E-02 5.65382E-33
9.54915E-02 4.36050E-33
9.80716E-02 3.26056E-33
1.00682E-01 2.35734E-33
1.03323E-01 1.64115E-33
1.05995E-01 1.09362E-33
1.08696E-01 6.91576E-34
1.11427E-01 4.09991E-34
1.14188E-01 2.24204E-34
1.16978E-01 1.11446E-34
1.19797E-01 5.17565E-35
1.22645E-01 2.84174E-35
1.25522E-01 2.80356E-35
1.28428E-01 4.03643E-35
1.31361E-01 5.79652E-35
1.34323E-01 7.57865E-35
1.37313E-01 9.07086E-35
1.40330E-01 1.01105E-34
1.43375E-01 1.06439E-34
1.46447E-01 1.06921E-34
1.49545E-01 1.03220E-34
1.52671E-01 9.62451E-35
1.55823E-01 8.69757E-35
1.59001E-01 7.63507E-35
1.62205E-01 6.51954E-35
1.65435E-01 5.41828E-35
1.68690E-01 4.38209E-35
1.71970E-01 3.44577E-35
1.75276E-01 2.62978E-35
1.78606E-01 1.94257E-35
1.81961E-01 1.38313E-35
1.85340E-01 9.43552E-36
1.88743E-01 6.11350E-36
1.92169E-01 3.71470E-36
1.95619E-01 2.07900E-36
1.99092E-01 1.04907E-36
2.02589E-01 4.79087E-37
2.06107E-01 2.40288E-37
2.09649E-01 2.23888E-37
2.13212E-01 3.41877E-37
2.16797E-01 5.26343E-37
2.20404E-01 7.27634E-37
2.24032E-01 9.11986E-37
2.27680E-01 1.05876E-36
2.31350E-01 1.15773E-36
2.35040E-01 1.20641E-36
2.38751E-01 1.20779E-36
2.42481E-01 1.16831E-36
2.46231E-01 1.09627E-36
2.50000E-01 1.00061E-36
2.53788E-01 8.90027E-37
2.57595E-01 7.72332E-37
2.61421E-01 6.54141E-37
2.65264E-01 5.40699E-37
2.69126E-01 4.35863E-37
2.73005E-01 3.42180E-37
2.76901E-01 2.61055E-37
2.80814E-01 1.92931E-37
2.84744E-01 1.37487E-37
2.88691E-01 9.38559E-38
2.92653E-01 6.07904E-38
2.96632E-01 3.68371E-38
3.00625E-01 2.04655E-38
3.04634E-01 1.01714E-38
3.08658E-01 1.00000E-45
3.12697E-01 1.00000E-45
3.16749E-01 1.00000E-45
3.20816E-01 1.00000E-45
3.24896E-01 1.00000E-45
3.28990E-01 1.00000E-45
3.33097E-01 1.00000E-45
3.37216E-01 1.00000E-45
3.41348E-01 1.00000E-45
3.45492E-01 1.00000E-45
3.49647E-01 1.00000E-45
3.53814E-01 1.00000E-45
3.57992E-01 1.00000E-45
3.62181E-01 1.00000E-45
3.66381E-01 1.00000E-45
3.70590E-01 1.00000E-45
3.74810E-01 1.00000E-45
3.79039E-01 1.00000E-45
3.83277E-01 1.00000E-45
3.87524E-01 1.00000E-45
3.91780E-01 1.00000E-45
3.96044E-01 1.00000E-45
4.00316E-01 1.00000E-45
4.04596E-01 1.00000E-45
4.08882E-01 1.00000E-45
4.13176E-01 1.00000E-45
4.17476E-01 1.00000E-45
4.21783E-01 1.00000E-45
4.26095E-01 1.00000E-45
4.30413E-01 1.00000E-45
4.34737E-01 1.00000E-45
4.39065E-01 1.00000E-45
4.43398E-01 1.00000E-45
4.47736E-01 1.00000E-45
4.52077E-01 1.00000E-45
4.56422E-01 1.00000E-45
4.60770E-01 1.00000E-45
4.65122E-01 1.00000E-45
4.69476E-01 1.00000E-45
4.73832E-01 1.00000E-45
4.78190E-01 1.00000E-45
4.82550E-01 1.00000E-45
4.86912E-01 1.00000E-45
4.91274E-01 1.00000E-45
4.95637E-01 1.00000E-45
5.00000E-01 1.00000E-45
5.04363E-01 1.00000E-45
5.08726E-01 1.00000E-45
5.13088E-01 1.00000E-45
5.17450E-01 1.00000E-45
5.21810E-01 1.00000E-45
5.26168E-01 1.00000E-45
5.30524E-01 1.00000E-45
5.34878E-01 1.00000E-45
5.39230E-01 1.00000E-45
5.43578E-01 1.00000E-45
5.47923E-01 1.00000E-45
5.52264E-01 1.00000E-45
5.56602E-01 1.00000E-45
5.60935E-01 1.00000E-45
5.65263E-01 1.00000E-45
5.69587E-01 1.00000E-45
5.73905E-01 1.00000E-45
5.78217E-01 1.00000E-45
5.82524E-01 1.00000E-45
5.86824E-01 1.00000E-45
5.91118E-01 1.00000E-45
5.95404E-01 1.00000E-45
5.99684E-01 1.00000E-45
6.03956E-01 1.00000E-45
6.08220E-01 1.00000E-45
6.12476E-01 1.00000E-45
6.16723E-01 1.00000E-45
6.20961E-01 1.00000E-45
6.25190E-01 1.00000E-45
6.29410E-01 1.00000E-45
6.33619E-01 1.00000E-45
6.37819E-01 1.00000E-45
6.42008E-01 1.00000E-45
6.46186E-01 1.00000E-45
6.50353E-01 1.00000E-45
6.54508E-01 1.00000E-45
6.58652E-01 1.00000E-45
6.62784E-01 1.00000E-45
6.66903E-01 1.00000E-45
6.71010E-01 1.00000E-45
6.75104E-01 1.00000E-45
6.79184E-01 1.00000E-45
6.83251E-01 1.00000E-45
6.87303E-01 1.00000E-45
6.91342E-01 1.00000E-45
6.95366E-01 1.00000E-45
6.99375E-01 1.00000E-45
7.03368E-01 1.00000E-45
7.07347E-01 1.00000E-45
7.11309E-01 1.00000E-45
7.15256E-01 1.00000E-45
7.19186E-01 1.00000E-45
7.23099E-01 1.00000E-45
7.26995E-01 1.00000E-45
7.30874E-01 1.00000E-45
7.34736E-01 1.00000E-45
7.38579E-01 1.00000E-45
7.42405E-01 1.00000E-45
7.46212E-01 1.00000E-45
7.50000E-01 1.00000E-45
7.53769E-01 1.00000E-45
7.57519E-01 1.00000E-45
7.61249E-01 1.00000E-45
7.64960E-01 1.00000E-45
7.68650E-01 1.00000E-45
7.72320E-01 1.00000E-45
7.75968E-01 1.00000E-45
7.79596E-01 1.00000E-45
7.83203E-01 1.00000E-45
7.86788E-01 1.00000E-45
7.90351E-01 1.00000E-45
7.93893E-01 1.00000E-45
7.97411E-01 1.00000E-45
8.00908E-01 1.00000E-45
8.04381E-01 1.00000E-45
8.07831E-01 1.00000E-45
8.11257E-01 1.00000E-45
8.14660E-01 1.00000E-45
8.18039E-01 1.00000E-45
8.21394E-01 1.00000E-45
8.24724E-01 1.00000E-45
8.28030E-01 1.00000E-45
8.31310E-01 1.00000E-45
8.34565E-01 1.00000E-45
8.37795E-01 1.00000E-45
8.40999E-01 1.00000E-45
8.44177E-01 1.00000E-45
8.47329E-01 1.00000E-45
8.50455E-01 1.00000E-45
8.53553E-01 1.00000E-45
8.56625E-01 1.00000E-45
8.59670E-01 1.00000E-45
8.62687E-01 1.00000E-45
8.65677E-01 1.00000E-45
8.68639E-01 1.00000E-45
8.71572E-01 1.00000E-45
8.74478E-01 1.00000E-45
8.77355E-01 1.00000E-45
8.80203E-01 1.00000E-45
8.83022E-01 1.00000E-45
8.85812E-01 1.00000E-45
8.88573E-01 1.00000E-45
8.91304E-01 1.00000E-45
8.94005E-01 1.00000E-45
8.96677E-01 1.00000E-45
8.99318E-01 1.00000E-45
9.01928E-01 1.00000E-45
9.04508E-01 1.00000E-45
9.07058E-01 1.00000E-45
9.09576E-01 1.00000E-45
9.12063E-01 1.00000E-45
9.14519E-01 1.00000E-45
9.16943E-01 1.00000E-45
9.19335E-01 1.00000E-45
9.21696E-01 1.00000E-45
9.24024E-01 1.00000E-45
9.26320E-01 1.00000E-45
9.28584E-01 1.00000E-45
9.30815E-01 1.00000E-45
9.33013E-01 1.00000E-45
9.35178E-01 1.00000E-45
9.37310E-01 1.00000E-45
9.39409E-01 1.00000E-45
9.41474E-01 1.00000E-45
9.43505E-01 1.00000E-45
9.45503E-01 1.00000E-45
9.47467E-01 1.00000E-45
9.49397E-01 1.00000E-45
9.51293E-01 1.00000E-45
9.53154E-01 1.00000E-45
9.54981E-01 1.00000E-45
9.56773E-01 1.00000E-45
9.58530E-01 1.00000E-45
9.60252E-01 1.00000E-45
9.61940E-01 1.00000E-45
9.63592E-01 1.00000E-45
9.65209E-01 1.00000E-45
9.66790E-01 1.00000E-45
9.68336E-01 1.00000E-45
9.69846E-01 1.00000E-45
9.71321E-01 1.00000E-45
9.72759E-01 1.00000E-45
9.74162E-01 1.00000E-45
9.75528E-01 1.00000E-45
9.76858E-01 1.00000E-45
9.78152E-01 1.00000E-45
9.79410E-01 1.00000E-45
9.80631E-01 1.00000E-45
9.81815E-01 1.00000E-45
9.82963E-01 1.00000E-45
9.84074E-01 1.00000E-45
9.85148E-01 1.00000E-45
9.86185E-01 1.00000E-45
9.87185E-01 1.00000E-45
9.88148E-01 1.00000E-45
9.89074E-01 1.00000E-45
9.89962E-01 1.00000E-45
9.90814E-01 1.00000E-45
9.91627E-01 1.00000E-45
9.92404E-01 1.00000E-45
9.93143E-01 1.00000E-45
9.93844E-01 1.00000E-45
9.94508E-01 1.00000E-45
9.95134E-01 1.00000E-45
9.95722E-01 1.00000E-45
9.96273E-01 1.00000E-45
9.96786E-01 1.00000E-45
9.97261E-01 1.00000E-45
9.97698E-01 1.00000E-45
9.98097E-01 1.00000E-45
9.98459E-01 1.00000E-45
9.98782E-01 1.00000E-45
9.99067E-01 1.00000E-45
9.99315E-01 1.00000E-45
9.99524E-01 1.00000E-45
9.99695E-01 1.00000E-45
9.99829E-01 1.00000E-45
9.99924E-01 1.00000E-45
9.99981E-01 1.00000E-45
1.00000E+00 1.00000E-45
