 #
 # Subroutine ELSEPA. Elastic scattering of electrons and positrons
 #                    by neutral atoms and positive ions
 #
 # Projectile: electron
 # Kinetic energy = 1.50000E+08 eV = 5.51240E+06 a.u.
 #
 # WARNING: High-energy factorization with free-atom DF screening.
 #          Absorption, polarization and exchange corrections are
 #          switched off.
 #          Phase shifts are calculated for the bare nucleus.
 #          Scattering amplitudes are not evaluated.
 #
 # Element: Ca,  Z =  20,  atomic weight = 4.00780E+01 g/mol
 #
 # Nuclear model: Fermi distribution
 #                Average radius = 3.66173E-13 cm
 #                Skin thickness = 5.46000E-14 cm
 #
 # Number of electrons = 20
 #
 # Total elastic cross section = 1.81170E-18 cm**2 = 6.46970E-02 a0**2
 # 1st transport cross section = 3.74254E-26 cm**2 = 1.33649E-09 a0**2
 # 2nd transport cross section = 1.11662E-25 cm**2 = 3.98753E-09 a0**2
 #
 #
 # Differential cross section:                       MU=(1-COS(THETA))/2
 #
 #  THETA        MU          DCS          DCS        Sherman      error
 #  (deg)                 (cm**2/sr)   (a0**2/sr)    function
 #----------------------------------------------------------------------
0.00000E+00 8.48135E-10
7.61557E-13 8.37620E-10
1.18994E-12 8.31798E-10
1.71346E-12 8.24765E-10
2.33225E-12 8.16565E-10
3.04617E-12 8.07252E-10
3.85530E-12 7.96884E-10
4.75964E-12 7.85528E-10
5.75917E-12 7.73250E-10
6.85391E-12 7.60125E-10
8.04379E-12 7.46229E-10
9.32893E-12 7.31637E-10
1.07092E-11 7.16431E-10
1.21847E-11 7.00689E-10
1.37554E-11 6.84490E-10
1.54213E-11 6.67916E-10
1.71823E-11 6.51039E-10
1.90386E-11 6.33933E-10
2.09900E-11 6.16670E-10
2.30367E-11 5.99315E-10
2.51785E-11 5.81934E-10
2.74156E-11 5.64585E-10
2.97478E-11 5.47324E-10
3.21752E-11 5.30203E-10
3.46979E-11 5.13267E-10
3.73157E-11 4.96559E-10
4.00286E-11 4.80117E-10
4.28368E-11 4.63974E-10
4.57402E-11 4.48159E-10
4.87388E-11 4.32697E-10
5.18325E-11 4.17608E-10
5.50215E-11 4.02911E-10
5.83057E-11 3.88623E-10
6.16850E-11 3.74752E-10
6.51595E-11 3.61303E-10
6.87293E-11 3.48383E-10
7.23943E-11 3.36232E-10
7.61544E-11 3.24382E-10
1.18991E-10 2.25025E-10
1.71347E-10 1.59463E-10
2.33223E-10 1.16804E-10
3.04617E-10 8.84859E-11
3.85531E-10 6.89772E-11
4.75965E-10 5.49642E-11
5.75917E-10 4.45037E-11
6.85389E-10 3.64462E-11
8.04380E-10 3.00924E-11
9.32891E-10 2.49984E-11
1.07092E-09 2.08684E-11
1.21847E-09 1.74948E-11
1.37554E-09 1.47248E-11
1.54213E-09 1.24384E-11
1.71823E-09 1.05504E-11
1.90386E-09 8.98590E-12
2.09900E-09 7.68714E-12
2.30367E-09 6.60604E-12
2.51785E-09 5.70338E-12
2.74156E-09 4.94714E-12
2.97478E-09 4.31129E-12
3.21752E-09 3.77459E-12
3.46978E-09 3.31982E-12
3.73156E-09 2.93289E-12
4.00286E-09 2.60235E-12
4.28368E-09 2.31878E-12
4.57402E-09 2.07447E-12
4.87388E-09 1.86307E-12
5.18326E-09 1.67935E-12
5.50215E-09 1.51899E-12
5.83057E-09 1.37841E-12
6.16850E-09 1.25465E-12
6.51596E-09 1.14529E-12
6.87293E-09 1.04813E-12
7.23942E-09 9.61285E-13
7.61544E-09 8.84057E-13
1.18991E-08 4.22924E-13
1.71347E-08 2.27844E-13
2.33223E-08 1.32019E-13
3.04617E-08 8.08972E-14
3.85531E-08 5.19125E-14
4.75965E-08 3.46814E-14
5.75917E-08 2.39996E-14
6.85389E-08 1.71213E-14
8.04380E-08 1.25422E-14
9.32891E-08 9.40145E-15
1.07092E-07 7.18922E-15
1.21847E-07 5.59432E-15
1.37554E-07 4.42045E-15
1.54213E-07 3.54033E-15
1.71823E-07 2.86970E-15
1.90386E-07 2.35117E-15
2.09900E-07 1.94495E-15
2.30367E-07 1.62299E-15
2.51785E-07 1.36506E-15
2.74156E-07 1.15642E-15
2.97478E-07 9.86173E-16
3.21752E-07 8.46118E-16
3.46978E-07 7.30041E-16
3.73156E-07 6.33183E-16
4.00286E-07 5.51841E-16
4.28368E-07 4.83127E-16
4.57402E-07 4.24763E-16
4.87388E-07 3.74930E-16
5.18325E-07 3.32179E-16
5.50215E-07 2.95338E-16
5.83057E-07 2.63451E-16
6.16850E-07 2.35744E-16
6.51596E-07 2.11576E-16
6.87293E-07 1.90418E-16
7.23942E-07 1.71834E-16
7.61543E-07 1.55458E-16
1.18991E-06 6.41509E-17
1.71347E-06 3.10487E-17
2.33223E-06 1.67918E-17
3.04617E-06 9.85425E-18
3.85531E-06 6.15642E-18
4.75964E-06 4.04123E-18
5.75916E-06 2.76122E-18
6.85388E-06 1.95015E-18
8.04378E-06 1.41618E-18
9.32888E-06 1.05309E-18
1.07092E-05 7.99200E-19
1.21846E-05 6.17423E-19
1.37553E-05 4.84516E-19
1.54212E-05 3.85528E-19
1.71822E-05 3.10580E-19
1.90385E-05 2.52973E-19
2.09899E-05 2.08155E-19
2.30365E-05 1.72838E-19
2.51783E-05 1.44702E-19
2.74153E-05 1.22062E-19
2.97475E-05 1.03680E-19
3.21749E-05 8.86317E-20
3.46974E-05 7.62177E-20
3.73152E-05 6.59043E-20
4.00281E-05 5.72792E-20
4.28362E-05 5.00210E-20
4.57395E-05 4.38774E-20
4.87380E-05 3.86488E-20
5.18317E-05 3.41762E-20
5.50205E-05 3.03322E-20
5.83045E-05 2.70137E-20
6.16838E-05 2.41369E-20
6.51582E-05 2.16332E-20
6.87277E-05 1.94461E-20
7.23925E-05 1.75288E-20
7.61524E-05 1.58359E-20
9.21439E-05 1.08192E-20
1.09658E-04 7.64089E-21
1.28695E-04 5.54889E-21
1.49255E-04 4.12631E-21
1.71338E-04 3.13186E-21
1.94942E-04 2.41976E-21
2.20070E-04 1.89904E-21
2.46720E-04 1.51117E-21
2.74892E-04 1.21745E-21
3.04586E-04 9.91754E-22
3.35803E-04 8.16013E-22
3.68542E-04 6.77528E-22
4.02802E-04 5.67209E-22
4.38585E-04 4.78452E-22
4.75889E-04 4.06393E-22
5.14715E-04 3.47398E-22
5.55063E-04 2.98726E-22
5.96931E-04 2.58283E-22
6.40321E-04 2.24455E-22
6.85233E-04 1.95985E-22
7.31665E-04 1.71885E-22
7.79618E-04 1.51376E-22
8.29092E-04 1.33833E-22
8.80086E-04 1.18757E-22
9.32601E-04 1.05743E-22
9.86636E-04 9.44616E-23
1.04219E-03 8.46432E-23
1.09927E-03 7.60660E-23
1.15786E-03 6.85464E-23
1.21797E-03 6.19319E-23
1.27961E-03 5.60947E-23
1.34276E-03 5.09279E-23
1.40743E-03 4.63412E-23
1.47362E-03 4.22582E-23
1.54133E-03 3.86140E-23
1.61056E-03 3.53532E-23
1.68131E-03 3.24285E-23
1.75357E-03 2.97991E-23
1.82735E-03 2.74300E-23
1.90265E-03 2.52909E-23
1.97947E-03 2.33556E-23
2.05780E-03 2.16012E-23
2.13765E-03 2.00078E-23
2.21902E-03 1.85580E-23
2.30190E-03 1.72367E-23
2.38630E-03 1.60302E-23
2.47222E-03 1.49270E-23
2.55965E-03 1.39166E-23
2.64859E-03 1.29899E-23
2.73905E-03 1.21385E-23
2.83103E-03 1.13554E-23
2.92452E-03 1.06340E-23
3.01952E-03 9.96862E-24
3.11604E-03 9.35415E-24
3.21407E-03 8.78598E-24
3.31362E-03 8.25999E-24
3.41468E-03 7.77248E-24
3.51725E-03 7.32014E-24
3.62133E-03 6.89997E-24
3.72692E-03 6.50927E-24
3.83403E-03 6.14559E-24
3.94265E-03 5.80674E-24
4.05278E-03 5.49071E-24
4.16442E-03 5.19569E-24
4.27757E-03 4.92002E-24
4.39223E-03 4.66221E-24
4.50840E-03 4.42089E-24
4.62608E-03 4.19482E-24
4.74527E-03 3.98285E-24
4.86597E-03 3.78396E-24
4.98817E-03 3.59718E-24
5.11188E-03 3.42164E-24
5.23711E-03 3.25655E-24
5.36383E-03 3.10117E-24
5.49207E-03 2.95482E-24
5.62181E-03 2.81689E-24
5.75306E-03 2.68681E-24
5.88581E-03 2.56404E-24
6.02007E-03 2.44810E-24
6.15583E-03 2.33854E-24
6.29310E-03 2.23495E-24
6.43187E-03 2.13695E-24
6.57214E-03 2.04416E-24
6.71392E-03 1.95628E-24
6.85720E-03 1.87299E-24
7.00198E-03 1.79401E-24
7.14827E-03 1.71908E-24
7.29605E-03 1.64795E-24
7.44534E-03 1.58039E-24
7.59612E-03 1.51619E-24
7.97965E-03 1.36914E-24
8.37255E-03 1.23916E-24
8.77480E-03 1.12394E-24
9.18641E-03 1.02153E-24
9.60736E-03 9.30270E-25
1.00376E-02 8.48744E-25
1.04773E-02 7.75743E-25
1.09262E-02 7.10228E-25
1.13844E-02 6.51305E-25
1.18520E-02 5.98200E-25
1.23288E-02 5.50245E-25
1.28150E-02 5.06857E-25
1.33104E-02 4.67531E-25
1.38150E-02 4.31823E-25
1.43290E-02 3.99346E-25
1.48521E-02 3.69760E-25
1.53845E-02 3.42766E-25
1.59262E-02 3.18098E-25
1.64770E-02 2.95525E-25
1.70371E-02 2.74840E-25
1.76063E-02 2.55859E-25
1.81848E-02 2.38419E-25
1.87724E-02 2.22374E-25
1.93692E-02 2.07597E-25
1.99751E-02 1.93969E-25
2.05901E-02 1.81388E-25
2.12143E-02 1.69760E-25
2.18476E-02 1.59002E-25
2.24900E-02 1.49039E-25
2.31415E-02 1.39802E-25
2.38021E-02 1.31230E-25
2.44717E-02 1.23269E-25
2.51504E-02 1.15867E-25
2.58382E-02 1.08980E-25
2.65349E-02 1.02566E-25
2.72407E-02 9.65877E-26
2.79555E-02 9.10111E-26
2.86793E-02 8.58050E-26
2.94120E-02 8.09412E-26
3.01537E-02 7.63938E-26
3.09043E-02 7.21392E-26
3.16639E-02 6.81557E-26
3.24324E-02 6.44236E-26
3.32098E-02 6.09247E-26
3.39961E-02 5.76422E-26
3.47912E-02 5.45610E-26
3.55952E-02 5.16668E-26
3.64081E-02 4.89467E-26
3.72297E-02 4.63888E-26
3.80602E-02 4.39821E-26
3.88995E-02 4.17163E-26
3.97476E-02 3.95821E-26
4.06044E-02 3.75709E-26
4.14700E-02 3.56744E-26
4.23443E-02 3.38854E-26
4.32273E-02 3.21969E-26
4.41190E-02 3.06026E-26
4.50194E-02 2.90964E-26
4.59284E-02 2.76730E-26
4.68461E-02 2.63270E-26
4.87074E-02 2.38491E-26
5.06030E-02 2.16284E-26
5.25328E-02 1.96350E-26
5.44967E-02 1.78431E-26
5.64946E-02 1.62300E-26
5.85262E-02 1.47759E-26
6.05914E-02 1.34634E-26
6.26901E-02 1.22773E-26
6.48222E-02 1.12042E-26
6.69873E-02 1.02322E-26
6.91854E-02 9.35094E-27
7.14163E-02 8.55102E-27
7.36799E-02 7.82427E-27
7.59760E-02 7.16340E-27
7.83043E-02 6.56190E-27
8.06647E-02 6.01397E-27
8.30571E-02 5.51445E-27
8.54812E-02 5.05871E-27
8.79369E-02 4.64262E-27
9.04240E-02 4.26245E-27
9.29422E-02 3.91489E-27
9.54915E-02 3.59692E-27
9.80716E-02 3.30587E-27
1.00682E-01 3.03930E-27
1.03323E-01 2.79502E-27
1.05995E-01 2.57105E-27
1.08696E-01 2.36560E-27
1.11427E-01 2.17705E-27
1.14188E-01 2.00395E-27
1.16978E-01 1.84495E-27
1.19797E-01 1.69885E-27
1.22645E-01 1.56456E-27
1.25522E-01 1.44108E-27
1.28428E-01 1.32750E-27
1.31361E-01 1.22300E-27
1.34323E-01 1.12682E-27
1.37313E-01 1.03828E-27
1.40330E-01 9.56748E-28
1.43375E-01 8.81656E-28
1.46447E-01 8.12480E-28
1.49545E-01 7.48740E-28
1.52671E-01 6.90001E-28
1.55823E-01 6.35860E-28
1.59001E-01 5.85950E-28
1.62205E-01 5.39935E-28
1.65435E-01 4.97507E-28
1.68690E-01 4.58381E-28
1.71970E-01 4.22298E-28
1.75276E-01 3.89019E-28
1.78606E-01 3.58325E-28
1.81961E-01 3.30013E-28
1.85340E-01 3.03897E-28
1.88743E-01 2.79808E-28
1.92169E-01 2.57588E-28
1.95619E-01 2.37092E-28
1.99092E-01 2.18187E-28
2.02589E-01 2.00751E-28
2.06107E-01 1.84669E-28
2.09649E-01 1.69838E-28
2.13212E-01 1.56162E-28
2.16797E-01 1.43552E-28
2.20404E-01 1.31926E-28
2.24032E-01 1.21208E-28
2.27680E-01 1.11329E-28
2.31350E-01 1.02225E-28
2.35040E-01 9.38360E-29
2.38751E-01 8.61072E-29
2.42481E-01 7.89880E-29
2.46231E-01 7.24317E-29
2.50000E-01 6.63950E-29
2.53788E-01 6.08380E-29
2.57595E-01 5.57238E-29
2.61421E-01 5.10183E-29
2.65264E-01 4.66900E-29
2.69126E-01 4.27098E-29
2.73005E-01 3.90509E-29
2.76901E-01 3.56882E-29
2.80814E-01 3.25989E-29
2.84744E-01 2.97616E-29
2.88691E-01 2.71569E-29
2.92653E-01 2.47665E-29
2.96632E-01 2.25736E-29
3.00625E-01 2.05627E-29
3.04634E-01 1.87196E-29
3.08658E-01 1.70311E-29
3.12697E-01 1.54848E-29
3.16749E-01 1.40694E-29
3.20816E-01 1.27747E-29
3.24896E-01 1.15908E-29
3.28990E-01 1.05090E-29
3.33097E-01 9.52102E-30
3.37216E-01 8.61923E-30
3.41348E-01 7.79667E-30
3.45492E-01 7.04686E-30
3.49647E-01 6.36385E-30
3.53814E-01 5.74214E-30
3.57992E-01 5.17665E-30
3.62181E-01 4.66272E-30
3.66381E-01 4.19601E-30
3.70590E-01 3.77258E-30
3.74810E-01 3.38874E-30
3.79039E-01 3.04114E-30
3.83277E-01 2.72666E-30
3.87524E-01 2.44246E-30
3.91780E-01 2.18589E-30
3.96044E-01 1.95456E-30
4.00316E-01 1.74622E-30
4.04596E-01 1.55884E-30
4.08882E-01 1.39054E-30
4.13176E-01 1.23961E-30
4.17476E-01 1.10445E-30
4.21783E-01 9.83613E-31
4.26095E-01 8.75776E-31
4.30413E-01 7.79718E-31
4.34737E-01 6.94323E-31
4.39065E-01 6.18568E-31
4.43398E-01 5.51519E-31
4.47736E-01 4.92323E-31
4.52077E-01 4.40199E-31
4.56422E-01 3.94435E-31
4.60770E-01 3.54381E-31
4.65122E-01 3.19446E-31
4.69476E-01 2.89091E-31
4.73832E-01 2.62825E-31
4.78190E-01 2.40203E-31
4.82550E-01 2.20820E-31
4.86912E-01 2.04310E-31
4.91274E-01 1.90339E-31
4.95637E-01 1.78607E-31
5.00000E-01 1.68843E-31
5.04363E-01 1.60800E-31
5.08726E-01 1.54258E-31
5.13088E-01 1.49018E-31
5.17450E-01 1.44902E-31
5.21810E-01 1.41748E-31
5.26168E-01 1.39415E-31
5.30524E-01 1.37773E-31
5.34878E-01 1.36709E-31
5.39230E-01 1.36122E-31
5.43578E-01 1.35921E-31
5.47923E-01 1.36029E-31
5.52264E-01 1.36374E-31
5.56602E-01 1.36896E-31
5.60935E-01 1.37542E-31
5.65263E-01 1.38265E-31
5.69587E-01 1.39024E-31
5.73905E-01 1.39786E-31
5.78217E-01 1.40522E-31
5.82524E-01 1.41206E-31
5.86824E-01 1.41819E-31
5.91118E-01 1.42342E-31
5.95404E-01 1.42763E-31
5.99684E-01 1.43071E-31
6.03956E-01 1.43257E-31
6.08220E-01 1.43316E-31
6.12476E-01 1.43244E-31
6.16723E-01 1.43037E-31
6.20961E-01 1.42696E-31
6.25190E-01 1.42221E-31
6.29410E-01 1.41614E-31
6.33619E-01 1.40877E-31
6.37819E-01 1.40014E-31
6.42008E-01 1.39029E-31
6.46186E-01 1.37926E-31
6.50353E-01 1.36711E-31
6.54508E-01 1.35390E-31
6.58652E-01 1.33967E-31
6.62784E-01 1.32449E-31
6.66903E-01 1.30842E-31
6.71010E-01 1.29153E-31
6.75104E-01 1.27387E-31
6.79184E-01 1.25550E-31
6.83251E-01 1.23649E-31
6.87303E-01 1.21690E-31
6.91342E-01 1.19678E-31
6.95366E-01 1.17620E-31
6.99375E-01 1.15521E-31
7.03368E-01 1.13386E-31
7.07347E-01 1.11221E-31
7.11309E-01 1.09031E-31
7.15256E-01 1.06820E-31
7.19186E-01 1.04594E-31
7.23099E-01 1.02356E-31
7.26995E-01 1.00110E-31
7.30874E-01 9.78618E-32
7.34736E-01 9.56137E-32
7.38579E-01 9.33695E-32
7.42405E-01 9.11326E-32
7.46212E-01 8.89060E-32
7.50000E-01 8.66927E-32
7.53769E-01 8.44953E-32
7.57519E-01 8.23163E-32
7.61249E-01 8.01580E-32
7.64960E-01 7.80224E-32
7.68650E-01 7.59117E-32
7.72320E-01 7.38274E-32
7.75968E-01 7.17713E-32
7.79596E-01 6.97446E-32
7.83203E-01 6.77489E-32
7.86788E-01 6.57851E-32
7.90351E-01 6.38543E-32
7.93893E-01 6.19575E-32
7.97411E-01 6.00952E-32
8.00908E-01 5.82683E-32
8.04381E-01 5.64773E-32
8.07831E-01 5.47225E-32
8.11257E-01 5.30044E-32
8.14660E-01 5.13232E-32
8.18039E-01 4.96790E-32
8.21394E-01 4.80720E-32
8.24724E-01 4.65021E-32
8.28030E-01 4.49693E-32
8.31310E-01 4.34735E-32
8.34565E-01 4.20145E-32
8.37795E-01 4.05922E-32
8.40999E-01 3.92061E-32
8.44177E-01 3.78560E-32
8.47329E-01 3.65416E-32
8.50455E-01 3.52623E-32
8.53553E-01 3.40179E-32
8.56625E-01 3.28078E-32
8.59670E-01 3.16315E-32
8.62687E-01 3.04885E-32
8.65677E-01 2.93783E-32
8.68639E-01 2.83004E-32
8.71572E-01 2.72540E-32
8.74478E-01 2.62388E-32
8.77355E-01 2.52540E-32
8.80203E-01 2.42990E-32
8.83022E-01 2.33733E-32
8.85812E-01 2.24761E-32
8.88573E-01 2.16070E-32
8.91304E-01 2.07652E-32
8.94005E-01 1.99502E-32
8.96677E-01 1.91612E-32
8.99318E-01 1.83977E-32
9.01928E-01 1.76591E-32
9.04508E-01 1.69446E-32
9.07058E-01 1.62538E-32
9.09576E-01 1.55859E-32
9.12063E-01 1.49405E-32
9.14519E-01 1.43168E-32
9.16943E-01 1.37143E-32
9.19335E-01 1.31325E-32
9.21696E-01 1.25706E-32
9.24024E-01 1.20283E-32
9.26320E-01 1.15048E-32
9.28584E-01 1.09998E-32
9.30815E-01 1.05126E-32
9.33013E-01 1.00426E-32
9.35178E-01 9.58951E-33
9.37310E-01 9.15267E-33
9.39409E-01 8.73164E-33
9.41474E-01 8.32593E-33
9.43505E-01 7.93508E-33
9.45503E-01 7.55862E-33
9.47467E-01 7.19610E-33
9.49397E-01 6.84709E-33
9.51293E-01 6.51117E-33
9.53154E-01 6.18793E-33
9.54981E-01 5.87696E-33
9.56773E-01 5.57787E-33
9.58530E-01 5.29028E-33
9.60252E-01 5.01383E-33
9.61940E-01 4.74815E-33
9.63592E-01 4.49291E-33
9.65209E-01 4.24776E-33
9.66790E-01 4.01238E-33
9.68336E-01 3.78646E-33
9.69846E-01 3.56968E-33
9.71321E-01 3.36177E-33
9.72759E-01 3.16242E-33
9.74162E-01 2.97137E-33
9.75528E-01 2.78835E-33
9.76858E-01 2.61311E-33
9.78152E-01 2.44540E-33
9.79410E-01 2.28498E-33
9.80631E-01 2.13163E-33
9.81815E-01 1.98512E-33
9.82963E-01 1.84524E-33
9.84074E-01 1.71180E-33
9.85148E-01 1.58459E-33
9.86185E-01 1.46343E-33
9.87185E-01 1.34814E-33
9.88148E-01 1.23856E-33
9.89074E-01 1.13452E-33
9.89962E-01 1.03587E-33
9.90814E-01 9.42450E-34
9.91627E-01 8.54132E-34
9.92404E-01 7.70780E-34
9.93143E-01 6.92269E-34
9.93844E-01 6.18480E-34
9.94508E-01 5.49299E-34
9.95134E-01 4.84621E-34
9.95722E-01 4.24349E-34
9.96273E-01 3.68389E-34
9.96786E-01 3.16655E-34
9.97261E-01 2.69069E-34
9.97698E-01 2.25557E-34
9.98097E-01 1.86050E-34
9.98459E-01 1.50489E-34
9.98782E-01 1.18819E-34
9.99067E-01 9.09879E-35
9.99315E-01 6.69562E-35
9.99524E-01 4.66836E-35
9.99695E-01 3.01404E-35
9.99829E-01 1.72998E-35
9.99924E-01 8.14302E-36
9.99981E-01 2.65388E-36
1.00000E+00 8.26334E-37
