 #
 # Subroutine ELSEPA. Elastic scattering of electrons and positrons
 #                    by neutral atoms and positive ions
 #
 # Projectile: electron
 # Kinetic energy = 3.50000E+07 eV = 1.28623E+06 a.u.
 #
 # WARNING: High-energy factorization with free-atom DF screening.
 #          Absorption, polarization and exchange corrections are
 #          switched off.
 #          Phase shifts are calculated for the bare nucleus.
 #          Scattering amplitudes are not evaluated.
 #
 # Element: Ca,  Z =  20,  atomic weight = 4.00780E+01 g/mol
 #
 # Nuclear model: Fermi distribution
 #                Average radius = 3.66173E-13 cm
 #                Skin thickness = 5.46000E-14 cm
 #
 # Number of electrons = 20
 #
 # Total elastic cross section = 1.81179E-18 cm**2 = 6.47003E-02 a0**2
 # 1st transport cross section = 6.35581E-25 cm**2 = 2.26970E-08 a0**2
 # 2nd transport cross section = 1.84767E-24 cm**2 = 6.59815E-08 a0**2
 #
 #
 # Differential cross section:                       MU=(1-COS(THETA))/2
 #
 #  THETA        MU          DCS          DCS        Sherman      error
 #  (deg)                 (cm**2/sr)   (a0**2/sr)    function
 #----------------------------------------------------------------------
0.00000E+00 4.72122E-11
7.61557E-13 4.71790E-11
1.18994E-12 4.71605E-11
1.71346E-12 4.71379E-11
2.33225E-12 4.71113E-11
3.04617E-12 4.70806E-11
3.85530E-12 4.70458E-11
4.75964E-12 4.70070E-11
5.75917E-12 4.69642E-11
6.85391E-12 4.69174E-11
8.04379E-12 4.68666E-11
9.32893E-12 4.68118E-11
1.07092E-11 4.67531E-11
1.21847E-11 4.66904E-11
1.37554E-11 4.66239E-11
1.54213E-11 4.65535E-11
1.71823E-11 4.64792E-11
1.90386E-11 4.64011E-11
2.09900E-11 4.63192E-11
2.30367E-11 4.62336E-11
2.51785E-11 4.61442E-11
2.74156E-11 4.60511E-11
2.97478E-11 4.59544E-11
3.21752E-11 4.58540E-11
3.46979E-11 4.57500E-11
3.73157E-11 4.56424E-11
4.00286E-11 4.55315E-11
4.28368E-11 4.54170E-11
4.57402E-11 4.52990E-11
4.87388E-11 4.51775E-11
5.18325E-11 4.50529E-11
5.50215E-11 4.49249E-11
5.83057E-11 4.47936E-11
6.16850E-11 4.46590E-11
6.51595E-11 4.45215E-11
6.87293E-11 4.43807E-11
7.23943E-11 4.42368E-11
7.61544E-11 4.40898E-11
1.18991E-10 4.24662E-11
1.71347E-10 4.05984E-11
2.33223E-10 3.85446E-11
3.04617E-10 3.63608E-11
3.85531E-10 3.41039E-11
4.75965E-10 3.18221E-11
5.75917E-10 2.95614E-11
6.85389E-10 2.73561E-11
8.04380E-10 2.52372E-11
9.32891E-10 2.32236E-11
1.07092E-09 2.13322E-11
1.21847E-09 1.95691E-11
1.37554E-09 1.79888E-11
1.54213E-09 1.65049E-11
1.71823E-09 1.51179E-11
1.90386E-09 1.38277E-11
2.09900E-09 1.27298E-11
2.30367E-09 1.17146E-11
2.51785E-09 1.07764E-11
2.74156E-09 9.91153E-12
2.97478E-09 9.17639E-12
3.21752E-09 8.50043E-12
3.46978E-09 7.87800E-12
3.73156E-09 7.30536E-12
4.00286E-09 6.81134E-12
4.28368E-09 6.35725E-12
4.57402E-09 5.93893E-12
4.87388E-09 5.55355E-12
5.18326E-09 5.21276E-12
5.50215E-09 4.89876E-12
5.83057E-09 4.60883E-12
6.16850E-09 4.34098E-12
6.51596E-09 4.09733E-12
6.87293E-09 3.87203E-12
7.23942E-09 3.66338E-12
7.61544E-09 3.47000E-12
1.18991E-08 2.11146E-12
1.71347E-08 1.35364E-12
2.33223E-08 8.90223E-13
3.04617E-08 5.99701E-13
3.85531E-08 4.12926E-13
4.75965E-08 2.91778E-13
5.75917E-08 2.11499E-13
6.85389E-08 1.57278E-13
8.04380E-08 1.19773E-13
9.32891E-08 9.32272E-14
1.07092E-07 7.39674E-14
1.21847E-07 5.96720E-14
1.37554E-07 4.87934E-14
1.54213E-07 4.04157E-14
1.71823E-07 3.38273E-14
1.90386E-07 2.85391E-14
2.09900E-07 2.42873E-14
2.30367E-07 2.07826E-14
2.51785E-07 1.78904E-14
2.74156E-07 1.54926E-14
2.97478E-07 1.34557E-14
3.21752E-07 1.17473E-14
3.46978E-07 1.02938E-14
3.73156E-07 9.04786E-15
4.00286E-07 7.98517E-15
4.28368E-07 7.06479E-15
4.57402E-07 6.27074E-15
4.87388E-07 5.58408E-15
5.18325E-07 4.98281E-15
5.50215E-07 4.46022E-15
5.83057E-07 4.00239E-15
6.16850E-07 3.59989E-15
6.51596E-07 3.24655E-15
6.87293E-07 2.93393E-15
7.23942E-07 2.65765E-15
7.61543E-07 2.41292E-15
1.18991E-06 1.01920E-15
1.71347E-06 5.01639E-16
2.33223E-06 2.75555E-16
3.04617E-06 1.64053E-16
3.85531E-06 1.03802E-16
4.75964E-06 6.88797E-17
5.75916E-06 4.74893E-17
6.85388E-06 3.37898E-17
8.04378E-06 2.46868E-17
9.32888E-06 1.84481E-17
1.07092E-05 1.40579E-17
1.21846E-05 1.08968E-17
1.37553E-05 8.57456E-18
1.54212E-05 6.83825E-18
1.71822E-05 5.51913E-18
1.90385E-05 4.50248E-18
2.09899E-05 3.70960E-18
2.30365E-05 3.08359E-18
2.51783E-05 2.58400E-18
2.74153E-05 2.18143E-18
2.97475E-05 1.85416E-18
3.21749E-05 1.58596E-18
3.46974E-05 1.36450E-18
3.73152E-05 1.18037E-18
4.00281E-05 1.02627E-18
4.28362E-05 8.96521E-19
4.57395E-05 7.86635E-19
4.87380E-05 6.93071E-19
5.18317E-05 6.13003E-19
5.50205E-05 5.44161E-19
5.83045E-05 4.84712E-19
6.16838E-05 4.33160E-19
6.51582E-05 3.88284E-19
6.87277E-05 3.49073E-19
7.23925E-05 3.14690E-19
7.61524E-05 2.84435E-19
9.21439E-05 1.94410E-19
1.09658E-04 1.37346E-19
1.28695E-04 9.97711E-20
1.49255E-04 7.42121E-20
1.71338E-04 5.63402E-20
1.94942E-04 4.35377E-20
2.20070E-04 3.41751E-20
2.46720E-04 2.72005E-20
2.74892E-04 2.19185E-20
3.04586E-04 1.78593E-20
3.35803E-04 1.46983E-20
3.68542E-04 1.22070E-20
4.02802E-04 1.02223E-20
4.38585E-04 8.62519E-21
4.75889E-04 7.32842E-21
5.14715E-04 6.26659E-21
5.55063E-04 5.39044E-21
5.96931E-04 4.66231E-21
6.40321E-04 4.05317E-21
6.85233E-04 3.54042E-21
7.31665E-04 3.10631E-21
7.79618E-04 2.73680E-21
8.29092E-04 2.42068E-21
8.80086E-04 2.14895E-21
9.32601E-04 1.91434E-21
9.86636E-04 1.71092E-21
1.04219E-03 1.53384E-21
1.09927E-03 1.37912E-21
1.15786E-03 1.24344E-21
1.21797E-03 1.12405E-21
1.27961E-03 1.01868E-21
1.34276E-03 9.25378E-22
1.40743E-03 8.42531E-22
1.47362E-03 7.68762E-22
1.54133E-03 7.02902E-22
1.61056E-03 6.43954E-22
1.68131E-03 5.91065E-22
1.75357E-03 5.43502E-22
1.82735E-03 5.00635E-22
1.90265E-03 4.61916E-22
1.97947E-03 4.26874E-22
2.05780E-03 3.95097E-22
2.13765E-03 3.66227E-22
2.21902E-03 3.39949E-22
2.30190E-03 3.15989E-22
2.38630E-03 2.94106E-22
2.47222E-03 2.74088E-22
2.55965E-03 2.55746E-22
2.64859E-03 2.38915E-22
2.73905E-03 2.23449E-22
2.83103E-03 2.09215E-22
2.92452E-03 1.96098E-22
3.01952E-03 1.83995E-22
3.11604E-03 1.72813E-22
3.21407E-03 1.62468E-22
3.31362E-03 1.52888E-22
3.41468E-03 1.44004E-22
3.51725E-03 1.35757E-22
3.62133E-03 1.28092E-22
3.72692E-03 1.20962E-22
3.83403E-03 1.14322E-22
3.94265E-03 1.08132E-22
4.05278E-03 1.02356E-22
4.16442E-03 9.69606E-23
4.27757E-03 9.19169E-23
4.39223E-03 8.71973E-23
4.50840E-03 8.27773E-23
4.62608E-03 7.86341E-23
4.74527E-03 7.47474E-23
4.86597E-03 7.10981E-23
4.98817E-03 6.76692E-23
5.11188E-03 6.44448E-23
5.23711E-03 6.14104E-23
5.36383E-03 5.85528E-23
5.49207E-03 5.58598E-23
5.62181E-03 5.33199E-23
5.75306E-03 5.09231E-23
5.88581E-03 4.86595E-23
6.02007E-03 4.65205E-23
6.15583E-03 4.44980E-23
6.29310E-03 4.25842E-23
6.43187E-03 4.07725E-23
6.57214E-03 3.90561E-23
6.71392E-03 3.74293E-23
6.85720E-03 3.58864E-23
7.00198E-03 3.44222E-23
7.14827E-03 3.30321E-23
7.29605E-03 3.17116E-23
7.44534E-03 3.04564E-23
7.59612E-03 2.92628E-23
7.97965E-03 2.65252E-23
8.37255E-03 2.41007E-23
8.77480E-03 2.19472E-23
9.18641E-03 2.00293E-23
9.60736E-03 1.83165E-23
1.00376E-02 1.67831E-23
1.04773E-02 1.54069E-23
1.09262E-02 1.41691E-23
1.13844E-02 1.30532E-23
1.18520E-02 1.20451E-23
1.23288E-02 1.11325E-23
1.28150E-02 1.03048E-23
1.33104E-02 9.55256E-24
1.38150E-02 8.86777E-24
1.43290E-02 8.24328E-24
1.48521E-02 7.67281E-24
1.53845E-02 7.15084E-24
1.59262E-02 6.67250E-24
1.64770E-02 6.23350E-24
1.70371E-02 5.82999E-24
1.76063E-02 5.45861E-24
1.81848E-02 5.11631E-24
1.87724E-02 4.80041E-24
1.93692E-02 4.50850E-24
1.99751E-02 4.23842E-24
2.05901E-02 3.98824E-24
2.12143E-02 3.75624E-24
2.18476E-02 3.54084E-24
2.24900E-02 3.34063E-24
2.31415E-02 3.15436E-24
2.38021E-02 2.98087E-24
2.44717E-02 2.81912E-24
2.51504E-02 2.66817E-24
2.58382E-02 2.52717E-24
2.65349E-02 2.39533E-24
2.72407E-02 2.27197E-24
2.79555E-02 2.15642E-24
2.86793E-02 2.04810E-24
2.94120E-02 1.94648E-24
3.01537E-02 1.85106E-24
3.09043E-02 1.76140E-24
3.16639E-02 1.67709E-24
3.24324E-02 1.59774E-24
3.32098E-02 1.52301E-24
3.39961E-02 1.45258E-24
3.47912E-02 1.38615E-24
3.55952E-02 1.32347E-24
3.64081E-02 1.26427E-24
3.72297E-02 1.20832E-24
3.80602E-02 1.15543E-24
3.88995E-02 1.10537E-24
3.97476E-02 1.05799E-24
4.06044E-02 1.01310E-24
4.14700E-02 9.70556E-25
4.23443E-02 9.30206E-25
4.32273E-02 8.91917E-25
4.41190E-02 8.55565E-25
4.50194E-02 8.21034E-25
4.59284E-02 7.88215E-25
4.68461E-02 7.57007E-25
4.87074E-02 6.99056E-25
5.06030E-02 6.46504E-25
5.25328E-02 5.98758E-25
5.44967E-02 5.55301E-25
5.64946E-02 5.15680E-25
5.85262E-02 4.79496E-25
6.05914E-02 4.46399E-25
6.26901E-02 4.16078E-25
6.48222E-02 3.88259E-25
6.69873E-02 3.62700E-25
6.91854E-02 3.39183E-25
7.14163E-02 3.17517E-25
7.36799E-02 2.97530E-25
7.59760E-02 2.79069E-25
7.83043E-02 2.61997E-25
8.06647E-02 2.46190E-25
8.30571E-02 2.31539E-25
8.54812E-02 2.17943E-25
8.79369E-02 2.05314E-25
9.04240E-02 1.93570E-25
9.29422E-02 1.82638E-25
9.54915E-02 1.72452E-25
9.80716E-02 1.62952E-25
1.00682E-01 1.54084E-25
1.03323E-01 1.45799E-25
1.05995E-01 1.38050E-25
1.08696E-01 1.30798E-25
1.11427E-01 1.24005E-25
1.14188E-01 1.17637E-25
1.16978E-01 1.11662E-25
1.19797E-01 1.06052E-25
1.22645E-01 1.00780E-25
1.25522E-01 9.58233E-26
1.28428E-01 9.11591E-26
1.31361E-01 8.67671E-26
1.34323E-01 8.26287E-26
1.37313E-01 7.87267E-26
1.40330E-01 7.50452E-26
1.43375E-01 7.15696E-26
1.46447E-01 6.82864E-26
1.49545E-01 6.51830E-26
1.52671E-01 6.22480E-26
1.55823E-01 5.94705E-26
1.59001E-01 5.68407E-26
1.62205E-01 5.43494E-26
1.65435E-01 5.19880E-26
1.68690E-01 4.97486E-26
1.71970E-01 4.76238E-26
1.75276E-01 4.56067E-26
1.78606E-01 4.36909E-26
1.81961E-01 4.18705E-26
1.85340E-01 4.01399E-26
1.88743E-01 3.84939E-26
1.92169E-01 3.69278E-26
1.95619E-01 3.54369E-26
1.99092E-01 3.40170E-26
2.02589E-01 3.26643E-26
2.06107E-01 3.13749E-26
2.09649E-01 3.01454E-26
2.13212E-01 2.89726E-26
2.16797E-01 2.78534E-26
2.20404E-01 2.67850E-26
2.24032E-01 2.57646E-26
2.27680E-01 2.47898E-26
2.31350E-01 2.38582E-26
2.35040E-01 2.29676E-26
2.38751E-01 2.21158E-26
2.42481E-01 2.13009E-26
2.46231E-01 2.05210E-26
2.50000E-01 1.97744E-26
2.53788E-01 1.90594E-26
2.57595E-01 1.83746E-26
2.61421E-01 1.77183E-26
2.65264E-01 1.70892E-26
2.69126E-01 1.64860E-26
2.73005E-01 1.59076E-26
2.76901E-01 1.53526E-26
2.80814E-01 1.48200E-26
2.84744E-01 1.43087E-26
2.88691E-01 1.38178E-26
2.92653E-01 1.33464E-26
2.96632E-01 1.28934E-26
3.00625E-01 1.24582E-26
3.04634E-01 1.20398E-26
3.08658E-01 1.16376E-26
3.12697E-01 1.12508E-26
3.16749E-01 1.08787E-26
3.20816E-01 1.05207E-26
3.24896E-01 1.01762E-26
3.28990E-01 9.84459E-27
3.33097E-01 9.52530E-27
3.37216E-01 9.21780E-27
3.41348E-01 8.92162E-27
3.45492E-01 8.63625E-27
3.49647E-01 8.36126E-27
3.53814E-01 8.09621E-27
3.57992E-01 7.84067E-27
3.62181E-01 7.59428E-27
3.66381E-01 7.35664E-27
3.70590E-01 7.12740E-27
3.74810E-01 6.90622E-27
3.79039E-01 6.69278E-27
3.83277E-01 6.48676E-27
3.87524E-01 6.28788E-27
3.91780E-01 6.09584E-27
3.96044E-01 5.91039E-27
4.00316E-01 5.73125E-27
4.04596E-01 5.55819E-27
4.08882E-01 5.39098E-27
4.13176E-01 5.22938E-27
4.17476E-01 5.07318E-27
4.21783E-01 4.92217E-27
4.26095E-01 4.77617E-27
4.30413E-01 4.63497E-27
4.34737E-01 4.49840E-27
4.39065E-01 4.36630E-27
4.43398E-01 4.23848E-27
4.47736E-01 4.11480E-27
4.52077E-01 3.99510E-27
4.56422E-01 3.87924E-27
4.60770E-01 3.76708E-27
4.65122E-01 3.65848E-27
4.69476E-01 3.55332E-27
4.73832E-01 3.45147E-27
4.78190E-01 3.35281E-27
4.82550E-01 3.25724E-27
4.86912E-01 3.16464E-27
4.91274E-01 3.07491E-27
4.95637E-01 2.98794E-27
5.00000E-01 2.90365E-27
5.04363E-01 2.82194E-27
5.08726E-01 2.74272E-27
5.13088E-01 2.66590E-27
5.17450E-01 2.59141E-27
5.21810E-01 2.51916E-27
5.26168E-01 2.44908E-27
5.30524E-01 2.38109E-27
5.34878E-01 2.31513E-27
5.39230E-01 2.25113E-27
5.43578E-01 2.18902E-27
5.47923E-01 2.12874E-27
5.52264E-01 2.07023E-27
5.56602E-01 2.01343E-27
5.60935E-01 1.95828E-27
5.65263E-01 1.90474E-27
5.69587E-01 1.85274E-27
5.73905E-01 1.80225E-27
5.78217E-01 1.75320E-27
5.82524E-01 1.70557E-27
5.86824E-01 1.65929E-27
5.91118E-01 1.61433E-27
5.95404E-01 1.57064E-27
5.99684E-01 1.52819E-27
6.03956E-01 1.48693E-27
6.08220E-01 1.44684E-27
6.12476E-01 1.40786E-27
6.16723E-01 1.36998E-27
6.20961E-01 1.33314E-27
6.25190E-01 1.29733E-27
6.29410E-01 1.26251E-27
6.33619E-01 1.22866E-27
6.37819E-01 1.19573E-27
6.42008E-01 1.16370E-27
6.46186E-01 1.13255E-27
6.50353E-01 1.10225E-27
6.54508E-01 1.07277E-27
6.58652E-01 1.04409E-27
6.62784E-01 1.01619E-27
6.66903E-01 9.89040E-28
6.71010E-01 9.62619E-28
6.75104E-01 9.36907E-28
6.79184E-01 9.11882E-28
6.83251E-01 8.87524E-28
6.87303E-01 8.63814E-28
6.91342E-01 8.40734E-28
6.95366E-01 8.18264E-28
6.99375E-01 7.96388E-28
7.03368E-01 7.75088E-28
7.07347E-01 7.54348E-28
7.11309E-01 7.34152E-28
7.15256E-01 7.14483E-28
7.19186E-01 6.95328E-28
7.23099E-01 6.76672E-28
7.26995E-01 6.58500E-28
7.30874E-01 6.40800E-28
7.34736E-01 6.23557E-28
7.38579E-01 6.06759E-28
7.42405E-01 5.90394E-28
7.46212E-01 5.74449E-28
7.50000E-01 5.58914E-28
7.53769E-01 5.43776E-28
7.57519E-01 5.29025E-28
7.61249E-01 5.14651E-28
7.64960E-01 5.00642E-28
7.68650E-01 4.86989E-28
7.72320E-01 4.73683E-28
7.75968E-01 4.60714E-28
7.79596E-01 4.48072E-28
7.83203E-01 4.35750E-28
7.86788E-01 4.23738E-28
7.90351E-01 4.12029E-28
7.93893E-01 4.00613E-28
7.97411E-01 3.89485E-28
8.00908E-01 3.78635E-28
8.04381E-01 3.68056E-28
8.07831E-01 3.57742E-28
8.11257E-01 3.47685E-28
8.14660E-01 3.37879E-28
8.18039E-01 3.28318E-28
8.21394E-01 3.18994E-28
8.24724E-01 3.09902E-28
8.28030E-01 3.01036E-28
8.31310E-01 2.92389E-28
8.34565E-01 2.83957E-28
8.37795E-01 2.75734E-28
8.40999E-01 2.67715E-28
8.44177E-01 2.59894E-28
8.47329E-01 2.52267E-28
8.50455E-01 2.44828E-28
8.53553E-01 2.37573E-28
8.56625E-01 2.30498E-28
8.59670E-01 2.23597E-28
8.62687E-01 2.16867E-28
8.65677E-01 2.10303E-28
8.68639E-01 2.03901E-28
8.71572E-01 1.97658E-28
8.74478E-01 1.91569E-28
8.77355E-01 1.85630E-28
8.80203E-01 1.79839E-28
8.83022E-01 1.74191E-28
8.85812E-01 1.68684E-28
8.88573E-01 1.63313E-28
8.91304E-01 1.58075E-28
8.94005E-01 1.52968E-28
8.96677E-01 1.47988E-28
8.99318E-01 1.43132E-28
9.01928E-01 1.38398E-28
9.04508E-01 1.33782E-28
9.07058E-01 1.29283E-28
9.09576E-01 1.24896E-28
9.12063E-01 1.20620E-28
9.14519E-01 1.16452E-28
9.16943E-01 1.12390E-28
9.19335E-01 1.08431E-28
9.21696E-01 1.04573E-28
9.24024E-01 1.00814E-28
9.26320E-01 9.71514E-29
9.28584E-01 9.35833E-29
9.30815E-01 9.01077E-29
9.33013E-01 8.67225E-29
9.35178E-01 8.34259E-29
9.37310E-01 8.02158E-29
9.39409E-01 7.70907E-29
9.41474E-01 7.40485E-29
9.43505E-01 7.10877E-29
9.45503E-01 6.82065E-29
9.47467E-01 6.54034E-29
9.49397E-01 6.26768E-29
9.51293E-01 6.00251E-29
9.53154E-01 5.74469E-29
9.54981E-01 5.49407E-29
9.56773E-01 5.25052E-29
9.58530E-01 5.01389E-29
9.60252E-01 4.78407E-29
9.61940E-01 4.56091E-29
9.63592E-01 4.34431E-29
9.65209E-01 4.13413E-29
9.66790E-01 3.93027E-29
9.68336E-01 3.73261E-29
9.69846E-01 3.54105E-29
9.71321E-01 3.35548E-29
9.72759E-01 3.17580E-29
9.74162E-01 3.00191E-29
9.75528E-01 2.83372E-29
9.76858E-01 2.67114E-29
9.78152E-01 2.51408E-29
9.79410E-01 2.36245E-29
9.80631E-01 2.21618E-29
9.81815E-01 2.07518E-29
9.82963E-01 1.93938E-29
9.84074E-01 1.80871E-29
9.85148E-01 1.68309E-29
9.86185E-01 1.56247E-29
9.87185E-01 1.44677E-29
9.88148E-01 1.33593E-29
9.89074E-01 1.22990E-29
9.89962E-01 1.12861E-29
9.90814E-01 1.03202E-29
9.91627E-01 9.40077E-30
9.92404E-01 8.52725E-30
9.93143E-01 7.69921E-30
9.93844E-01 6.91622E-30
9.94508E-01 6.17786E-30
9.95134E-01 5.48375E-30
9.95722E-01 4.83351E-30
9.96273E-01 4.22681E-30
9.96786E-01 3.66332E-30
9.97261E-01 3.14275E-30
9.97698E-01 2.66482E-30
9.98097E-01 2.22929E-30
9.98459E-01 1.83592E-30
9.98782E-01 1.48452E-30
9.99067E-01 1.17488E-30
9.99315E-01 9.06861E-31
9.99524E-01 6.80311E-31
9.99695E-01 4.95114E-31
9.99829E-01 3.51171E-31
9.99924E-01 2.48408E-31
9.99981E-01 1.86775E-31
1.00000E+00 1.66229E-31
