 #
 # Subroutine ELSEPA. Elastic scattering of electrons and positrons
 #                    by neutral atoms and positive ions
 #
 # Projectile: electron
 # Kinetic energy = 7.00000E+06 eV = 2.57245E+05 a.u.
 #
 # WARNING: High-energy factorization with free-atom DF screening.
 #          Absorption, polarization and exchange corrections are
 #          switched off.
 #          Phase shifts are calculated for the bare nucleus.
 #          Scattering amplitudes are not evaluated.
 #
 # Element: Ca,  Z =  20,  atomic weight = 4.00780E+01 g/mol
 #
 # Nuclear model: Fermi distribution
 #                Average radius = 3.66173E-13 cm
 #                Skin thickness = 5.46000E-14 cm
 #
 # Number of electrons = 20
 #
 # Total elastic cross section = 1.82046E-18 cm**2 = 6.50097E-02 a0**2
 # 1st transport cross section = 1.17634E-23 cm**2 = 4.20078E-07 a0**2
 # 2nd transport cross section = 3.36283E-23 cm**2 = 1.20089E-06 a0**2
 #
 #
 # Differential cross section:                       MU=(1-COS(THETA))/2
 #
 #  THETA        MU          DCS          DCS        Sherman      error
 #  (deg)                 (cm**2/sr)   (a0**2/sr)    function
 #----------------------------------------------------------------------
0.00000E+00 2.11215E-12
7.61557E-13 2.11208E-12
1.18994E-12 2.11204E-12
1.71346E-12 2.11199E-12
2.33225E-12 2.11194E-12
3.04617E-12 2.11188E-12
3.85530E-12 2.11181E-12
4.75964E-12 2.11173E-12
5.75917E-12 2.11164E-12
6.85391E-12 2.11155E-12
8.04379E-12 2.11145E-12
9.32893E-12 2.11133E-12
1.07092E-11 2.11122E-12
1.21847E-11 2.11109E-12
1.37554E-11 2.11095E-12
1.54213E-11 2.11081E-12
1.71823E-11 2.11066E-12
1.90386E-11 2.11050E-12
2.09900E-11 2.11033E-12
2.30367E-11 2.11015E-12
2.51785E-11 2.10997E-12
2.74156E-11 2.10978E-12
2.97478E-11 2.10958E-12
3.21752E-11 2.10937E-12
3.46979E-11 2.10915E-12
3.73157E-11 2.10893E-12
4.00286E-11 2.10869E-12
4.28368E-11 2.10845E-12
4.57402E-11 2.10820E-12
4.87388E-11 2.10795E-12
5.18325E-11 2.10768E-12
5.50215E-11 2.10741E-12
5.83057E-11 2.10713E-12
6.16850E-11 2.10684E-12
6.51595E-11 2.10654E-12
6.87293E-11 2.10623E-12
7.23943E-11 2.10592E-12
7.61544E-11 2.10560E-12
1.18991E-10 2.10194E-12
1.71347E-10 2.09748E-12
2.33223E-10 2.09223E-12
3.04617E-10 2.08619E-12
3.85531E-10 2.07939E-12
4.75965E-10 2.07182E-12
5.75917E-10 2.06350E-12
6.85389E-10 2.05445E-12
8.04380E-10 2.04467E-12
9.32891E-10 2.03420E-12
1.07092E-09 2.02303E-12
1.21847E-09 2.01119E-12
1.37554E-09 1.99870E-12
1.54213E-09 1.98558E-12
1.71823E-09 1.97183E-12
1.90386E-09 1.95751E-12
2.09900E-09 1.94261E-12
2.30367E-09 1.92717E-12
2.51785E-09 1.91119E-12
2.74156E-09 1.89472E-12
2.97478E-09 1.87777E-12
3.21752E-09 1.86036E-12
3.46978E-09 1.84252E-12
3.73156E-09 1.82428E-12
4.00286E-09 1.80565E-12
4.28368E-09 1.78666E-12
4.57402E-09 1.76734E-12
4.87388E-09 1.74771E-12
5.18326E-09 1.72780E-12
5.50215E-09 1.70761E-12
5.83057E-09 1.68721E-12
6.16850E-09 1.66657E-12
6.51596E-09 1.64577E-12
6.87293E-09 1.62477E-12
7.23942E-09 1.60366E-12
7.61544E-09 1.58239E-12
1.18991E-08 1.36762E-12
1.71347E-08 1.16059E-12
2.33223E-08 9.73087E-13
3.04617E-08 8.12831E-13
3.85531E-08 6.76740E-13
4.75965E-08 5.64631E-13
5.75917E-08 4.73565E-13
6.85389E-08 4.00453E-13
8.04380E-08 3.41047E-13
9.32891E-08 2.93451E-13
1.07092E-07 2.54241E-13
1.21847E-07 2.22357E-13
1.37554E-07 1.95646E-13
1.54213E-07 1.73364E-13
1.71823E-07 1.54441E-13
1.90386E-07 1.38175E-13
2.09900E-07 1.24204E-13
2.30367E-07 1.11911E-13
2.51785E-07 1.01222E-13
2.74156E-07 9.16826E-14
2.97478E-07 8.32807E-14
3.21752E-07 7.57310E-14
3.46978E-07 6.90008E-14
3.73156E-07 6.29403E-14
4.00286E-07 5.74807E-14
4.28368E-07 5.25669E-14
4.57402E-07 4.81017E-14
4.87388E-07 4.40897E-14
5.18325E-07 4.04186E-14
5.50215E-07 3.71259E-14
5.83057E-07 3.40972E-14
6.16850E-07 3.13842E-14
6.51596E-07 2.88798E-14
6.87293E-07 2.66344E-14
7.23942E-07 2.45598E-14
7.61543E-07 2.26917E-14
1.18991E-06 1.08969E-14
1.71347E-06 5.86163E-15
2.33223E-06 3.48397E-15
3.04617E-06 2.23425E-15
3.85531E-06 1.51591E-15
4.75964E-06 1.06933E-15
5.75916E-06 7.76116E-16
6.85388E-06 5.76340E-16
8.04378E-06 4.35663E-16
9.32888E-06 3.34266E-16
1.07092E-05 2.60129E-16
1.21846E-05 2.04981E-16
1.37553E-05 1.63336E-16
1.54212E-05 1.31588E-16
1.71822E-05 1.07087E-16
1.90385E-05 8.79418E-17
2.09899E-05 7.28716E-17
2.30365E-05 6.08813E-17
2.51783E-05 5.12459E-17
2.74153E-05 4.34426E-17
2.97475E-05 3.70715E-17
3.21749E-05 3.18285E-17
3.46974E-05 2.74845E-17
3.73152E-05 2.38612E-17
4.00281E-05 2.08192E-17
4.28362E-05 1.82500E-17
4.57395E-05 1.60679E-17
4.87380E-05 1.42044E-17
5.18317E-05 1.26049E-17
5.50205E-05 1.12257E-17
5.83045E-05 1.00311E-17
6.16838E-05 8.99206E-18
6.51582E-05 8.08495E-18
6.87277E-05 7.29001E-18
7.23925E-05 6.59082E-18
7.61524E-05 5.97389E-18
9.21439E-05 4.12538E-18
1.09658E-04 2.94053E-18
1.28695E-04 2.15236E-18
1.49255E-04 1.61132E-18
1.71338E-04 1.22995E-18
1.94942E-04 9.54876E-19
2.20070E-04 7.52458E-19
2.46720E-04 6.00863E-19
2.74892E-04 4.85522E-19
3.04586E-04 3.96534E-19
3.35803E-04 3.26998E-19
3.68542E-04 2.72037E-19
4.02802E-04 2.28138E-19
4.38585E-04 1.92736E-19
4.75889E-04 1.63937E-19
5.14715E-04 1.40315E-19
5.55063E-04 1.20796E-19
5.96931E-04 1.04554E-19
6.40321E-04 9.09507E-20
6.85233E-04 7.94890E-20
7.31665E-04 6.97767E-20
7.79618E-04 6.15034E-20
8.29092E-04 5.44207E-20
8.80086E-04 4.83289E-20
9.32601E-04 4.30663E-20
9.86636E-04 3.85011E-20
1.04219E-03 3.45253E-20
1.09927E-03 3.10499E-20
1.15786E-03 2.80013E-20
1.21797E-03 2.53180E-20
1.27961E-03 2.29488E-20
1.34276E-03 2.08506E-20
1.40743E-03 1.89870E-20
1.47362E-03 1.73271E-20
1.54133E-03 1.58450E-20
1.61056E-03 1.45181E-20
1.68131E-03 1.33274E-20
1.75357E-03 1.22565E-20
1.82735E-03 1.12911E-20
1.90265E-03 1.04190E-20
1.97947E-03 9.62964E-21
2.05780E-03 8.91372E-21
2.13765E-03 8.26320E-21
2.21902E-03 7.67104E-21
2.30190E-03 7.13106E-21
2.38630E-03 6.63784E-21
2.47222E-03 6.18660E-21
2.55965E-03 5.77312E-21
2.64859E-03 5.39366E-21
2.73905E-03 5.04493E-21
2.83103E-03 4.72397E-21
2.92452E-03 4.42819E-21
3.01952E-03 4.15523E-21
3.11604E-03 3.90302E-21
3.21407E-03 3.66970E-21
3.31362E-03 3.45358E-21
3.41468E-03 3.25317E-21
3.51725E-03 3.06712E-21
3.62133E-03 2.89420E-21
3.72692E-03 2.73332E-21
3.83403E-03 2.58347E-21
3.94265E-03 2.44375E-21
4.05278E-03 2.31337E-21
4.16442E-03 2.19159E-21
4.27757E-03 2.07773E-21
4.39223E-03 1.97119E-21
4.50840E-03 1.87141E-21
4.62608E-03 1.77787E-21
4.74527E-03 1.69012E-21
4.86597E-03 1.60773E-21
4.98817E-03 1.53031E-21
5.11188E-03 1.45751E-21
5.23711E-03 1.38899E-21
5.36383E-03 1.32446E-21
5.49207E-03 1.26365E-21
5.62181E-03 1.20629E-21
5.75306E-03 1.15216E-21
5.88581E-03 1.10104E-21
6.02007E-03 1.05273E-21
6.15583E-03 1.00705E-21
6.29310E-03 9.63825E-22
6.43187E-03 9.22901E-22
6.57214E-03 8.84130E-22
6.71392E-03 8.47380E-22
6.85720E-03 8.12524E-22
7.00198E-03 7.79447E-22
7.14827E-03 7.48040E-22
7.29605E-03 7.18203E-22
7.44534E-03 6.89843E-22
7.59612E-03 6.62873E-22
7.97965E-03 6.01009E-22
8.37255E-03 5.46214E-22
8.77480E-03 4.97539E-22
9.18641E-03 4.54180E-22
9.60736E-03 4.15456E-22
1.00376E-02 3.80782E-22
1.04773E-02 3.49661E-22
1.09262E-02 3.21664E-22
1.13844E-02 2.96421E-22
1.18520E-02 2.73612E-22
1.23288E-02 2.52962E-22
1.28150E-02 2.34229E-22
1.33104E-02 2.17203E-22
1.38150E-02 2.01700E-22
1.43290E-02 1.87560E-22
1.48521E-02 1.74641E-22
1.53845E-02 1.62818E-22
1.59262E-02 1.51982E-22
1.64770E-02 1.42035E-22
1.70371E-02 1.32890E-22
1.76063E-02 1.24472E-22
1.81848E-02 1.16712E-22
1.87724E-02 1.09549E-22
1.93692E-02 1.02929E-22
1.99751E-02 9.68025E-23
2.05901E-02 9.11264E-23
2.12143E-02 8.58615E-23
2.18476E-02 8.09723E-23
2.24900E-02 7.64272E-23
2.31415E-02 7.21973E-23
2.38021E-02 6.82569E-23
2.44717E-02 6.45823E-23
2.51504E-02 6.11523E-23
2.58382E-02 5.79477E-23
2.65349E-02 5.49507E-23
2.72407E-02 5.21455E-23
2.79555E-02 4.95174E-23
2.86793E-02 4.70533E-23
2.94120E-02 4.47409E-23
3.01537E-02 4.25691E-23
3.09043E-02 4.05278E-23
3.16639E-02 3.86077E-23
3.24324E-02 3.68003E-23
3.32098E-02 3.50976E-23
3.39961E-02 3.34924E-23
3.47912E-02 3.19781E-23
3.55952E-02 3.05487E-23
3.64081E-02 2.91984E-23
3.72297E-02 2.79220E-23
3.80602E-02 2.67147E-23
3.88995E-02 2.55721E-23
3.97476E-02 2.44900E-23
4.06044E-02 2.34646E-23
4.14700E-02 2.24925E-23
4.23443E-02 2.15702E-23
4.32273E-02 2.06948E-23
4.41190E-02 1.98634E-23
4.50194E-02 1.90734E-23
4.59284E-02 1.83223E-23
4.68461E-02 1.76079E-23
4.87074E-02 1.62806E-23
5.06030E-02 1.50762E-23
5.25328E-02 1.39811E-23
5.44967E-02 1.29838E-23
5.64946E-02 1.20738E-23
5.85262E-02 1.12422E-23
6.05914E-02 1.04810E-23
6.26901E-02 9.78305E-24
6.48222E-02 9.14224E-24
6.69873E-02 8.55301E-24
6.91854E-02 8.01044E-24
7.14163E-02 7.51017E-24
7.36799E-02 7.04829E-24
7.59760E-02 6.62131E-24
7.83043E-02 6.22611E-24
8.06647E-02 5.85990E-24
8.30571E-02 5.52015E-24
8.54812E-02 5.20460E-24
8.79369E-02 4.91120E-24
9.04240E-02 4.63812E-24
9.29422E-02 4.38369E-24
9.54915E-02 4.14639E-24
9.80716E-02 3.92486E-24
1.00682E-01 3.71786E-24
1.03323E-01 3.52426E-24
1.05995E-01 3.34303E-24
1.08696E-01 3.17323E-24
1.11427E-01 3.01401E-24
1.14188E-01 2.86459E-24
1.16978E-01 2.72424E-24
1.19797E-01 2.59233E-24
1.22645E-01 2.46823E-24
1.25522E-01 2.35142E-24
1.28428E-01 2.24137E-24
1.31361E-01 2.13763E-24
1.34323E-01 2.03977E-24
1.37313E-01 1.94738E-24
1.40330E-01 1.86011E-24
1.43375E-01 1.77763E-24
1.46447E-01 1.69961E-24
1.49545E-01 1.62577E-24
1.52671E-01 1.55586E-24
1.55823E-01 1.48961E-24
1.59001E-01 1.42680E-24
1.62205E-01 1.36722E-24
1.65435E-01 1.31068E-24
1.68690E-01 1.25698E-24
1.71970E-01 1.20596E-24
1.75276E-01 1.15746E-24
1.78606E-01 1.11134E-24
1.81961E-01 1.06745E-24
1.85340E-01 1.02567E-24
1.88743E-01 9.85870E-25
1.92169E-01 9.47947E-25
1.95619E-01 9.11795E-25
1.99092E-01 8.77314E-25
2.02589E-01 8.44413E-25
2.06107E-01 8.13007E-25
2.09649E-01 7.83014E-25
2.13212E-01 7.54360E-25
2.16797E-01 7.26973E-25
2.20404E-01 7.00788E-25
2.24032E-01 6.75741E-25
2.27680E-01 6.51774E-25
2.31350E-01 6.28831E-25
2.35040E-01 6.06862E-25
2.38751E-01 5.85817E-25
2.42481E-01 5.65649E-25
2.46231E-01 5.46316E-25
2.50000E-01 5.27777E-25
2.53788E-01 5.09992E-25
2.57595E-01 4.92926E-25
2.61421E-01 4.76545E-25
2.65264E-01 4.60815E-25
2.69126E-01 4.45706E-25
2.73005E-01 4.31190E-25
2.76901E-01 4.17238E-25
2.80814E-01 4.03824E-25
2.84744E-01 3.90925E-25
2.88691E-01 3.78516E-25
2.92653E-01 3.66576E-25
2.96632E-01 3.55083E-25
3.00625E-01 3.44018E-25
3.04634E-01 3.33363E-25
3.08658E-01 3.23098E-25
3.12697E-01 3.13208E-25
3.16749E-01 3.03675E-25
3.20816E-01 2.94486E-25
3.24896E-01 2.85624E-25
3.28990E-01 2.77077E-25
3.33097E-01 2.68831E-25
3.37216E-01 2.60874E-25
3.41348E-01 2.53194E-25
3.45492E-01 2.45778E-25
3.49647E-01 2.38618E-25
3.53814E-01 2.31701E-25
3.57992E-01 2.25019E-25
3.62181E-01 2.18562E-25
3.66381E-01 2.12322E-25
3.70590E-01 2.06288E-25
3.74810E-01 2.00454E-25
3.79039E-01 1.94812E-25
3.83277E-01 1.89354E-25
3.87524E-01 1.84074E-25
3.91780E-01 1.78963E-25
3.96044E-01 1.74017E-25
4.00316E-01 1.69228E-25
4.04596E-01 1.64592E-25
4.08882E-01 1.60101E-25
4.13176E-01 1.55751E-25
4.17476E-01 1.51537E-25
4.21783E-01 1.47453E-25
4.26095E-01 1.43495E-25
4.30413E-01 1.39659E-25
4.34737E-01 1.35939E-25
4.39065E-01 1.32332E-25
4.43398E-01 1.28834E-25
4.47736E-01 1.25441E-25
4.52077E-01 1.22149E-25
4.56422E-01 1.18954E-25
4.60770E-01 1.15854E-25
4.65122E-01 1.12845E-25
4.69476E-01 1.09924E-25
4.73832E-01 1.07088E-25
4.78190E-01 1.04333E-25
4.82550E-01 1.01658E-25
4.86912E-01 9.90595E-26
4.91274E-01 9.65350E-26
4.95637E-01 9.40819E-26
5.00000E-01 9.16980E-26
5.04363E-01 8.93810E-26
5.08726E-01 8.71287E-26
5.13088E-01 8.49390E-26
5.17450E-01 8.28099E-26
5.21810E-01 8.07393E-26
5.26168E-01 7.87255E-26
5.30524E-01 7.67667E-26
5.34878E-01 7.48610E-26
5.39230E-01 7.30068E-26
5.43578E-01 7.12024E-26
5.47923E-01 6.94464E-26
5.52264E-01 6.77373E-26
5.56602E-01 6.60734E-26
5.60935E-01 6.44536E-26
5.65263E-01 6.28764E-26
5.69587E-01 6.13405E-26
5.73905E-01 5.98447E-26
5.78217E-01 5.83877E-26
5.82524E-01 5.69684E-26
5.86824E-01 5.55857E-26
5.91118E-01 5.42385E-26
5.95404E-01 5.29257E-26
5.99684E-01 5.16463E-26
6.03956E-01 5.03993E-26
6.08220E-01 4.91839E-26
6.12476E-01 4.79989E-26
6.16723E-01 4.68437E-26
6.20961E-01 4.57173E-26
6.25190E-01 4.46189E-26
6.29410E-01 4.35477E-26
6.33619E-01 4.25029E-26
6.37819E-01 4.14838E-26
6.42008E-01 4.04897E-26
6.46186E-01 3.95198E-26
6.50353E-01 3.85735E-26
6.54508E-01 3.76501E-26
6.58652E-01 3.67491E-26
6.62784E-01 3.58697E-26
6.66903E-01 3.50114E-26
6.71010E-01 3.41736E-26
6.75104E-01 3.33557E-26
6.79184E-01 3.25573E-26
6.83251E-01 3.17778E-26
6.87303E-01 3.10167E-26
6.91342E-01 3.02734E-26
6.95366E-01 2.95476E-26
6.99375E-01 2.88387E-26
7.03368E-01 2.81464E-26
7.07347E-01 2.74701E-26
7.11309E-01 2.68095E-26
7.15256E-01 2.61642E-26
7.19186E-01 2.55337E-26
7.23099E-01 2.49177E-26
7.26995E-01 2.43158E-26
7.30874E-01 2.37276E-26
7.34736E-01 2.31529E-26
7.38579E-01 2.25912E-26
7.42405E-01 2.20422E-26
7.46212E-01 2.15056E-26
7.50000E-01 2.09812E-26
7.53769E-01 2.04685E-26
7.57519E-01 1.99674E-26
7.61249E-01 1.94775E-26
7.64960E-01 1.89985E-26
7.68650E-01 1.85302E-26
7.72320E-01 1.80723E-26
7.75968E-01 1.76246E-26
7.79596E-01 1.71868E-26
7.83203E-01 1.67588E-26
7.86788E-01 1.63401E-26
7.90351E-01 1.59307E-26
7.93893E-01 1.55303E-26
7.97411E-01 1.51388E-26
8.00908E-01 1.47558E-26
8.04381E-01 1.43812E-26
8.07831E-01 1.40148E-26
8.11257E-01 1.36564E-26
8.14660E-01 1.33058E-26
8.18039E-01 1.29629E-26
8.21394E-01 1.26275E-26
8.24724E-01 1.22993E-26
8.28030E-01 1.19783E-26
8.31310E-01 1.16643E-26
8.34565E-01 1.13571E-26
8.37795E-01 1.10566E-26
8.40999E-01 1.07626E-26
8.44177E-01 1.04750E-26
8.47329E-01 1.01936E-26
8.50455E-01 9.91832E-27
8.53553E-01 9.64901E-27
8.56625E-01 9.38555E-27
8.59670E-01 9.12781E-27
8.62687E-01 8.87567E-27
8.65677E-01 8.62901E-27
8.68639E-01 8.38771E-27
8.71572E-01 8.15166E-27
8.74478E-01 7.92076E-27
8.77355E-01 7.69489E-27
8.80203E-01 7.47396E-27
8.83022E-01 7.25785E-27
8.85812E-01 7.04649E-27
8.88573E-01 6.83976E-27
8.91304E-01 6.63757E-27
8.94005E-01 6.43985E-27
8.96677E-01 6.24649E-27
8.99318E-01 6.05741E-27
9.01928E-01 5.87254E-27
9.04508E-01 5.69178E-27
9.07058E-01 5.51506E-27
9.09576E-01 5.34230E-27
9.12063E-01 5.17343E-27
9.14519E-01 5.00837E-27
9.16943E-01 4.84706E-27
9.19335E-01 4.68943E-27
9.21696E-01 4.53540E-27
9.24024E-01 4.38491E-27
9.26320E-01 4.23790E-27
9.28584E-01 4.09431E-27
9.30815E-01 3.95407E-27
9.33013E-01 3.81714E-27
9.35178E-01 3.68344E-27
9.37310E-01 3.55293E-27
9.39409E-01 3.42556E-27
9.41474E-01 3.30126E-27
9.43505E-01 3.17999E-27
9.45503E-01 3.06170E-27
9.47467E-01 2.94635E-27
9.49397E-01 2.83387E-27
9.51293E-01 2.72424E-27
9.53154E-01 2.61740E-27
9.54981E-01 2.51331E-27
9.56773E-01 2.41194E-27
9.58530E-01 2.31323E-27
9.60252E-01 2.21715E-27
9.61940E-01 2.12367E-27
9.63592E-01 2.03274E-27
9.65209E-01 1.94433E-27
9.66790E-01 1.85841E-27
9.68336E-01 1.77494E-27
9.69846E-01 1.69389E-27
9.71321E-01 1.61522E-27
9.72759E-01 1.53891E-27
9.74162E-01 1.46493E-27
9.75528E-01 1.39325E-27
9.76858E-01 1.32383E-27
9.78152E-01 1.25666E-27
9.79410E-01 1.19171E-27
9.80631E-01 1.12895E-27
9.81815E-01 1.06836E-27
9.82963E-01 1.00992E-27
9.84074E-01 9.53602E-28
9.85148E-01 8.99385E-28
9.86185E-01 8.47250E-28
9.87185E-01 7.97177E-28
9.88148E-01 7.49147E-28
9.89074E-01 7.03142E-28
9.89962E-01 6.59145E-28
9.90814E-01 6.17139E-28
9.91627E-01 5.77108E-28
9.92404E-01 5.39038E-28
9.93143E-01 5.02913E-28
9.93844E-01 4.68721E-28
9.94508E-01 4.36449E-28
9.95134E-01 4.06084E-28
9.95722E-01 3.77616E-28
9.96273E-01 3.51034E-28
9.96786E-01 3.26327E-28
9.97261E-01 3.03487E-28
9.97698E-01 2.82505E-28
9.98097E-01 2.63374E-28
9.98459E-01 2.46086E-28
9.98782E-01 2.30635E-28
9.99067E-01 2.17015E-28
9.99315E-01 2.05222E-28
9.99524E-01 1.95250E-28
9.99695E-01 1.87096E-28
9.99829E-01 1.80757E-28
9.99924E-01 1.76231E-28
9.99981E-01 1.73516E-28
1.00000E+00 1.72611E-28
