 #
 # Subroutine ELSEPA. Elastic scattering of electrons and positrons
 #                    by neutral atoms and positive ions
 #
 # Projectile: electron
 # Kinetic energy = 1.00000E+07 eV = 3.67493E+05 a.u.
 #
 # WARNING: High-energy factorization with free-atom DF screening.
 #          Absorption, polarization and exchange corrections are
 #          switched off.
 #          Phase shifts are calculated for the bare nucleus.
 #          Scattering amplitudes are not evaluated.
 #
 # Element: Ca,  Z =  20,  atomic weight = 4.00780E+01 g/mol
 #
 # Nuclear model: Fermi distribution
 #                Average radius = 3.66173E-13 cm
 #                Skin thickness = 5.46000E-14 cm
 #
 # Number of electrons = 20
 #
 # Total elastic cross section = 1.81613E-18 cm**2 = 6.48553E-02 a0**2
 # 1st transport cross section = 6.28997E-24 cm**2 = 2.24619E-07 a0**2
 # 2nd transport cross section = 1.80358E-23 cm**2 = 6.44071E-07 a0**2
 #
 #
 # Differential cross section:                       MU=(1-COS(THETA))/2
 #
 #  THETA        MU          DCS          DCS        Sherman      error
 #  (deg)                 (cm**2/sr)   (a0**2/sr)    function
 #----------------------------------------------------------------------
0.00000E+00 4.13634E-12
7.61557E-13 4.13608E-12
1.18994E-12 4.13594E-12
1.71346E-12 4.13576E-12
2.33225E-12 4.13556E-12
3.04617E-12 4.13532E-12
3.85530E-12 4.13505E-12
4.75964E-12 4.13475E-12
5.75917E-12 4.13442E-12
6.85391E-12 4.13406E-12
8.04379E-12 4.13366E-12
9.32893E-12 4.13324E-12
1.07092E-11 4.13278E-12
1.21847E-11 4.13229E-12
1.37554E-11 4.13177E-12
1.54213E-11 4.13122E-12
1.71823E-11 4.13064E-12
1.90386E-11 4.13003E-12
2.09900E-11 4.12938E-12
2.30367E-11 4.12871E-12
2.51785E-11 4.12800E-12
2.74156E-11 4.12726E-12
2.97478E-11 4.12650E-12
3.21752E-11 4.12570E-12
3.46979E-11 4.12487E-12
3.73157E-11 4.12400E-12
4.00286E-11 4.12311E-12
4.28368E-11 4.12219E-12
4.57402E-11 4.12123E-12
4.87388E-11 4.12025E-12
5.18325E-11 4.11923E-12
5.50215E-11 4.11818E-12
5.83057E-11 4.11711E-12
6.16850E-11 4.11600E-12
6.51595E-11 4.11486E-12
6.87293E-11 4.11369E-12
7.23943E-11 4.11249E-12
7.61544E-11 4.11126E-12
1.18991E-10 4.09727E-12
1.71347E-10 4.08028E-12
2.33223E-10 4.06033E-12
3.04617E-10 4.03750E-12
3.85531E-10 4.01185E-12
4.75965E-10 3.98346E-12
5.75917E-10 3.95243E-12
6.85389E-10 3.91884E-12
8.04380E-10 3.88282E-12
9.32891E-10 3.84446E-12
1.07092E-09 3.80386E-12
1.21847E-09 3.76117E-12
1.37554E-09 3.71650E-12
1.54213E-09 3.66997E-12
1.71823E-09 3.62168E-12
1.90386E-09 3.57184E-12
2.09900E-09 3.52051E-12
2.30367E-09 3.46784E-12
2.51785E-09 3.41394E-12
2.74156E-09 3.35902E-12
2.97478E-09 3.30313E-12
3.21752E-09 3.24640E-12
3.46978E-09 3.18898E-12
3.73156E-09 3.13103E-12
4.00286E-09 3.07260E-12
4.28368E-09 3.01381E-12
4.57402E-09 2.95481E-12
4.87388E-09 2.89572E-12
5.18326E-09 2.83659E-12
5.50215E-09 2.77751E-12
5.83057E-09 2.71864E-12
6.16850E-09 2.66005E-12
6.51596E-09 2.60178E-12
6.87293E-09 2.54389E-12
7.23942E-09 2.48656E-12
7.61544E-09 2.42979E-12
1.18991E-08 1.90389E-12
1.71347E-08 1.47902E-12
2.33223E-08 1.14364E-12
3.04617E-08 8.93937E-13
3.85531E-08 7.10945E-13
4.75965E-08 5.73820E-13
5.75917E-08 4.70619E-13
6.85389E-08 3.92304E-13
8.04380E-08 3.31092E-13
9.32891E-08 2.82286E-13
1.07092E-07 2.42831E-13
1.21847E-07 2.10146E-13
1.37554E-07 1.82755E-13
1.54213E-07 1.59680E-13
1.71823E-07 1.40077E-13
1.90386E-07 1.23028E-13
2.09900E-07 1.08356E-13
2.30367E-07 9.56960E-14
2.51785E-07 8.47114E-14
2.74156E-07 7.50331E-14
2.97478E-07 6.66271E-14
3.21752E-07 5.93028E-14
3.46978E-07 5.28858E-14
3.73156E-07 4.72258E-14
4.00286E-07 4.22749E-14
4.28368E-07 3.79326E-14
4.57402E-07 3.41041E-14
4.87388E-07 3.07248E-14
5.18325E-07 2.77484E-14
5.50215E-07 2.51200E-14
5.83057E-07 2.27881E-14
6.16850E-07 2.07193E-14
6.51596E-07 1.88825E-14
6.87293E-07 1.72476E-14
7.23942E-07 1.57870E-14
7.61543E-07 1.44818E-14
1.18991E-06 6.80526E-15
1.71347E-06 3.71747E-15
2.33223E-06 2.23443E-15
3.04617E-06 1.42615E-15
3.85531E-06 9.49326E-16
4.75964E-06 6.52676E-16
5.75916E-06 4.60997E-16
6.85388E-06 3.33418E-16
8.04378E-06 2.46340E-16
9.32888E-06 1.85536E-16
1.07092E-05 1.42236E-16
1.21846E-05 1.10804E-16
1.37553E-05 8.75795E-17
1.54212E-05 7.01381E-17
1.71822E-05 5.68421E-17
1.90385E-05 4.65616E-17
2.09899E-05 3.85204E-17
2.30365E-05 3.21523E-17
2.51783E-05 2.70546E-17
2.74153E-05 2.29335E-17
2.97475E-05 1.95720E-17
3.21749E-05 1.68074E-17
3.46974E-05 1.45164E-17
3.73152E-05 1.26046E-17
4.00281E-05 1.09988E-17
4.28362E-05 9.64164E-18
4.57395E-05 8.48810E-18
4.87380E-05 7.50236E-18
5.18317E-05 6.65578E-18
5.50205E-05 5.92533E-18
5.83045E-05 5.29242E-18
6.16838E-05 4.74181E-18
6.51582E-05 4.26097E-18
6.87277E-05 3.83956E-18
7.23925E-05 3.46896E-18
7.61524E-05 3.14196E-18
9.21439E-05 2.16289E-18
1.09658E-04 1.53664E-18
1.28695E-04 1.12120E-18
1.49255E-04 8.36885E-19
1.71338E-04 6.37123E-19
1.94942E-04 4.93476E-19
2.20070E-04 3.88072E-19
2.46720E-04 3.09336E-19
2.74892E-04 2.49572E-19
3.04586E-04 2.03559E-19
3.35803E-04 1.67670E-19
3.68542E-04 1.39349E-19
4.02802E-04 1.16761E-19
4.38585E-04 9.85689E-20
4.75889E-04 8.37854E-20
5.14715E-04 7.16722E-20
5.55063E-04 6.16714E-20
5.96931E-04 5.33560E-20
6.40321E-04 4.63963E-20
6.85233E-04 4.05358E-20
7.31665E-04 3.55724E-20
7.79618E-04 3.13464E-20
8.29092E-04 2.77301E-20
8.80086E-04 2.46209E-20
9.32601E-04 2.19358E-20
9.86636E-04 1.96072E-20
1.04219E-03 1.75799E-20
1.09927E-03 1.58082E-20
1.15786E-03 1.42543E-20
1.21797E-03 1.28870E-20
1.27961E-03 1.16799E-20
1.34276E-03 1.06110E-20
1.40743E-03 9.66183E-21
1.47362E-03 8.81656E-21
1.54133E-03 8.06184E-21
1.61056E-03 7.38628E-21
1.68131E-03 6.78011E-21
1.75357E-03 6.23495E-21
1.82735E-03 5.74358E-21
1.90265E-03 5.29973E-21
1.97947E-03 4.89792E-21
2.05780E-03 4.53352E-21
2.13765E-03 4.20243E-21
2.21902E-03 3.90108E-21
2.30190E-03 3.62630E-21
2.38630E-03 3.37534E-21
2.47222E-03 3.14575E-21
2.55965E-03 2.93538E-21
2.64859E-03 2.74235E-21
2.73905E-03 2.56495E-21
2.83103E-03 2.40169E-21
2.92452E-03 2.25124E-21
3.01952E-03 2.11241E-21
3.11604E-03 1.98414E-21
3.21407E-03 1.86548E-21
3.31362E-03 1.75557E-21
3.41468E-03 1.65366E-21
3.51725E-03 1.55904E-21
3.62133E-03 1.47112E-21
3.72692E-03 1.38932E-21
3.83403E-03 1.31313E-21
3.94265E-03 1.24211E-21
4.05278E-03 1.17584E-21
4.16442E-03 1.11393E-21
4.27757E-03 1.05606E-21
4.39223E-03 1.00190E-21
4.50840E-03 9.51183E-22
4.62608E-03 9.03638E-22
4.74527E-03 8.59034E-22
4.86597E-03 8.17154E-22
4.98817E-03 7.77801E-22
5.11188E-03 7.40795E-22
5.23711E-03 7.05968E-22
5.36383E-03 6.73169E-22
5.49207E-03 6.42257E-22
5.62181E-03 6.13103E-22
5.75306E-03 5.85589E-22
5.88581E-03 5.59604E-22
6.02007E-03 5.35049E-22
6.15583E-03 5.11828E-22
6.29310E-03 4.89857E-22
6.43187E-03 4.69056E-22
6.57214E-03 4.49349E-22
6.71392E-03 4.30669E-22
6.85720E-03 4.12952E-22
7.00198E-03 3.96139E-22
7.14827E-03 3.80176E-22
7.29605E-03 3.65010E-22
7.44534E-03 3.50595E-22
7.59612E-03 3.36886E-22
7.97965E-03 3.05442E-22
8.37255E-03 2.77591E-22
8.77480E-03 2.52850E-22
9.18641E-03 2.30813E-22
9.60736E-03 2.11130E-22
1.00376E-02 1.93507E-22
1.04773E-02 1.77689E-22
1.09262E-02 1.63459E-22
1.13844E-02 1.50629E-22
1.18520E-02 1.39037E-22
1.23288E-02 1.28541E-22
1.28150E-02 1.19020E-22
1.33104E-02 1.10367E-22
1.38150E-02 1.02488E-22
1.43290E-02 9.53010E-23
1.48521E-02 8.87352E-23
1.53845E-02 8.27266E-23
1.59262E-02 7.72194E-23
1.64770E-02 7.21642E-23
1.70371E-02 6.75169E-23
1.76063E-02 6.32388E-23
1.81848E-02 5.92951E-23
1.87724E-02 5.56549E-23
1.93692E-02 5.22905E-23
1.99751E-02 4.91771E-23
2.05901E-02 4.62926E-23
2.12143E-02 4.36171E-23
2.18476E-02 4.11325E-23
2.24900E-02 3.88228E-23
2.31415E-02 3.66734E-23
2.38021E-02 3.46710E-23
2.44717E-02 3.28038E-23
2.51504E-02 3.10609E-23
2.58382E-02 2.94324E-23
2.65349E-02 2.79096E-23
2.72407E-02 2.64842E-23
2.79555E-02 2.51488E-23
2.86793E-02 2.38967E-23
2.94120E-02 2.27218E-23
3.01537E-02 2.16183E-23
3.09043E-02 2.05811E-23
3.16639E-02 1.96055E-23
3.24324E-02 1.86872E-23
3.32098E-02 1.78221E-23
3.39961E-02 1.70065E-23
3.47912E-02 1.62372E-23
3.55952E-02 1.55109E-23
3.64081E-02 1.48249E-23
3.72297E-02 1.41765E-23
3.80602E-02 1.35631E-23
3.88995E-02 1.29826E-23
3.97476E-02 1.24329E-23
4.06044E-02 1.19120E-23
4.14700E-02 1.14181E-23
4.23443E-02 1.09496E-23
4.32273E-02 1.05049E-23
4.41190E-02 1.00826E-23
4.50194E-02 9.68129E-24
4.59284E-02 9.29977E-24
4.68461E-02 8.93687E-24
4.87074E-02 8.26268E-24
5.06030E-02 7.65091E-24
5.25328E-02 7.09472E-24
5.44967E-02 6.58817E-24
5.64946E-02 6.12602E-24
5.85262E-02 5.70368E-24
6.05914E-02 5.31708E-24
6.26901E-02 4.96266E-24
6.48222E-02 4.63726E-24
6.69873E-02 4.33805E-24
6.91854E-02 4.06256E-24
7.14163E-02 3.80854E-24
7.36799E-02 3.57404E-24
7.59760E-02 3.35726E-24
7.83043E-02 3.15662E-24
8.06647E-02 2.97071E-24
8.30571E-02 2.79824E-24
8.54812E-02 2.63806E-24
8.79369E-02 2.48914E-24
9.04240E-02 2.35053E-24
9.29422E-02 2.22139E-24
9.54915E-02 2.10096E-24
9.80716E-02 1.98853E-24
1.00682E-01 1.88349E-24
1.03323E-01 1.78524E-24
1.05995E-01 1.69328E-24
1.08696E-01 1.60713E-24
1.11427E-01 1.52634E-24
1.14188E-01 1.45053E-24
1.16978E-01 1.37933E-24
1.19797E-01 1.31241E-24
1.22645E-01 1.24947E-24
1.25522E-01 1.19021E-24
1.28428E-01 1.13440E-24
1.31361E-01 1.08178E-24
1.34323E-01 1.03215E-24
1.37313E-01 9.85300E-25
1.40330E-01 9.41048E-25
1.43375E-01 8.99222E-25
1.46447E-01 8.59665E-25
1.49545E-01 8.22230E-25
1.52671E-01 7.86784E-25
1.55823E-01 7.53200E-25
1.59001E-01 7.21363E-25
1.62205E-01 6.91165E-25
1.65435E-01 6.62505E-25
1.68690E-01 6.35292E-25
1.71970E-01 6.09437E-25
1.75276E-01 5.84862E-25
1.78606E-01 5.61490E-25
1.81961E-01 5.39253E-25
1.85340E-01 5.18084E-25
1.88743E-01 4.97923E-25
1.92169E-01 4.78713E-25
1.95619E-01 4.60401E-25
1.99092E-01 4.42936E-25
2.02589E-01 4.26274E-25
2.06107E-01 4.10369E-25
2.09649E-01 3.95182E-25
2.13212E-01 3.80673E-25
2.16797E-01 3.66807E-25
2.20404E-01 3.53550E-25
2.24032E-01 3.40871E-25
2.27680E-01 3.28739E-25
2.31350E-01 3.17127E-25
2.35040E-01 3.06008E-25
2.38751E-01 2.95358E-25
2.42481E-01 2.85153E-25
2.46231E-01 2.75371E-25
2.50000E-01 2.65991E-25
2.53788E-01 2.56994E-25
2.57595E-01 2.48361E-25
2.61421E-01 2.40075E-25
2.65264E-01 2.32120E-25
2.69126E-01 2.24479E-25
2.73005E-01 2.17138E-25
2.76901E-01 2.10084E-25
2.80814E-01 2.03302E-25
2.84744E-01 1.96781E-25
2.88691E-01 1.90508E-25
2.92653E-01 1.84473E-25
2.96632E-01 1.78665E-25
3.00625E-01 1.73073E-25
3.04634E-01 1.67689E-25
3.08658E-01 1.62502E-25
3.12697E-01 1.57505E-25
3.16749E-01 1.52690E-25
3.20816E-01 1.48048E-25
3.24896E-01 1.43573E-25
3.28990E-01 1.39256E-25
3.33097E-01 1.35092E-25
3.37216E-01 1.31074E-25
3.41348E-01 1.27197E-25
3.45492E-01 1.23454E-25
3.49647E-01 1.19839E-25
3.53814E-01 1.16348E-25
3.57992E-01 1.12976E-25
3.62181E-01 1.09718E-25
3.66381E-01 1.06569E-25
3.70590E-01 1.03525E-25
3.74810E-01 1.00582E-25
3.79039E-01 9.77366E-26
3.83277E-01 9.49839E-26
3.87524E-01 9.23210E-26
3.91780E-01 8.97442E-26
3.96044E-01 8.72504E-26
4.00316E-01 8.48364E-26
4.04596E-01 8.24991E-26
4.08882E-01 8.02358E-26
4.13176E-01 7.80437E-26
4.17476E-01 7.59202E-26
4.21783E-01 7.38627E-26
4.26095E-01 7.18688E-26
4.30413E-01 6.99363E-26
4.34737E-01 6.80629E-26
4.39065E-01 6.62465E-26
4.43398E-01 6.44850E-26
4.47736E-01 6.27766E-26
4.52077E-01 6.11193E-26
4.56422E-01 5.95114E-26
4.60770E-01 5.79511E-26
4.65122E-01 5.64368E-26
4.69476E-01 5.49669E-26
4.73832E-01 5.35399E-26
4.78190E-01 5.21544E-26
4.82550E-01 5.08088E-26
4.86912E-01 4.95019E-26
4.91274E-01 4.82324E-26
4.95637E-01 4.69990E-26
5.00000E-01 4.58006E-26
5.04363E-01 4.46359E-26
5.08726E-01 4.35039E-26
5.13088E-01 4.24035E-26
5.17450E-01 4.13337E-26
5.21810E-01 4.02934E-26
5.26168E-01 3.92818E-26
5.30524E-01 3.82979E-26
5.34878E-01 3.73409E-26
5.39230E-01 3.64098E-26
5.43578E-01 3.55039E-26
5.47923E-01 3.46224E-26
5.52264E-01 3.37645E-26
5.56602E-01 3.29295E-26
5.60935E-01 3.21167E-26
5.65263E-01 3.13254E-26
5.69587E-01 3.05549E-26
5.73905E-01 2.98046E-26
5.78217E-01 2.90739E-26
5.82524E-01 2.83622E-26
5.86824E-01 2.76690E-26
5.91118E-01 2.69936E-26
5.95404E-01 2.63356E-26
5.99684E-01 2.56944E-26
6.03956E-01 2.50695E-26
6.08220E-01 2.44605E-26
6.12476E-01 2.38670E-26
6.16723E-01 2.32883E-26
6.20961E-01 2.27242E-26
6.25190E-01 2.21742E-26
6.29410E-01 2.16379E-26
6.33619E-01 2.11149E-26
6.37819E-01 2.06049E-26
6.42008E-01 2.01073E-26
6.46186E-01 1.96221E-26
6.50353E-01 1.91486E-26
6.54508E-01 1.86868E-26
6.58652E-01 1.82361E-26
6.62784E-01 1.77964E-26
6.66903E-01 1.73672E-26
6.71010E-01 1.69484E-26
6.75104E-01 1.65396E-26
6.79184E-01 1.61406E-26
6.83251E-01 1.57511E-26
6.87303E-01 1.53708E-26
6.91342E-01 1.49995E-26
6.95366E-01 1.46370E-26
6.99375E-01 1.42830E-26
7.03368E-01 1.39373E-26
7.07347E-01 1.35997E-26
7.11309E-01 1.32700E-26
7.15256E-01 1.29479E-26
7.19186E-01 1.26333E-26
7.23099E-01 1.23259E-26
7.26995E-01 1.20257E-26
7.30874E-01 1.17323E-26
7.34736E-01 1.14457E-26
7.38579E-01 1.11657E-26
7.42405E-01 1.08920E-26
7.46212E-01 1.06245E-26
7.50000E-01 1.03632E-26
7.53769E-01 1.01077E-26
7.57519E-01 9.85801E-27
7.61249E-01 9.61396E-27
7.64960E-01 9.37540E-27
7.68650E-01 9.14220E-27
7.72320E-01 8.91422E-27
7.75968E-01 8.69134E-27
7.79596E-01 8.47344E-27
7.83203E-01 8.26039E-27
7.86788E-01 8.05208E-27
7.90351E-01 7.84840E-27
7.93893E-01 7.64923E-27
7.97411E-01 7.45447E-27
8.00908E-01 7.26402E-27
8.04381E-01 7.07776E-27
8.07831E-01 6.89562E-27
8.11257E-01 6.71748E-27
8.14660E-01 6.54326E-27
8.18039E-01 6.37286E-27
8.21394E-01 6.20621E-27
8.24724E-01 6.04320E-27
8.28030E-01 5.88377E-27
8.31310E-01 5.72783E-27
8.34565E-01 5.57530E-27
8.37795E-01 5.42611E-27
8.40999E-01 5.28017E-27
8.44177E-01 5.13743E-27
8.47329E-01 4.99780E-27
8.50455E-01 4.86122E-27
8.53553E-01 4.72763E-27
8.56625E-01 4.59695E-27
8.59670E-01 4.46913E-27
8.62687E-01 4.34411E-27
8.65677E-01 4.22182E-27
8.68639E-01 4.10221E-27
8.71572E-01 3.98522E-27
8.74478E-01 3.87079E-27
8.77355E-01 3.75888E-27
8.80203E-01 3.64942E-27
8.83022E-01 3.54238E-27
8.85812E-01 3.43769E-27
8.88573E-01 3.33532E-27
8.91304E-01 3.23522E-27
8.94005E-01 3.13733E-27
8.96677E-01 3.04162E-27
8.99318E-01 2.94804E-27
9.01928E-01 2.85655E-27
9.04508E-01 2.76712E-27
9.07058E-01 2.67969E-27
9.09576E-01 2.59423E-27
9.12063E-01 2.51071E-27
9.14519E-01 2.42909E-27
9.16943E-01 2.34933E-27
9.19335E-01 2.27139E-27
9.21696E-01 2.19525E-27
9.24024E-01 2.12087E-27
9.26320E-01 2.04822E-27
9.28584E-01 1.97726E-27
9.30815E-01 1.90797E-27
9.33013E-01 1.84032E-27
9.35178E-01 1.77428E-27
9.37310E-01 1.70983E-27
9.39409E-01 1.64692E-27
9.41474E-01 1.58555E-27
9.43505E-01 1.52567E-27
9.45503E-01 1.46728E-27
9.47467E-01 1.41033E-27
9.49397E-01 1.35482E-27
9.51293E-01 1.30072E-27
9.53154E-01 1.24800E-27
9.54981E-01 1.19664E-27
9.56773E-01 1.14663E-27
9.58530E-01 1.09793E-27
9.60252E-01 1.05054E-27
9.61940E-01 1.00444E-27
9.63592E-01 9.59597E-28
9.65209E-01 9.16002E-28
9.66790E-01 8.73637E-28
9.68336E-01 8.32484E-28
9.69846E-01 7.92528E-28
9.71321E-01 7.53751E-28
9.72759E-01 7.16140E-28
9.74162E-01 6.79678E-28
9.75528E-01 6.44352E-28
9.76858E-01 6.10148E-28
9.78152E-01 5.77052E-28
9.79410E-01 5.45052E-28
9.80631E-01 5.14134E-28
9.81815E-01 4.84287E-28
9.82963E-01 4.55500E-28
9.84074E-01 4.27760E-28
9.85148E-01 4.01058E-28
9.86185E-01 3.75383E-28
9.87185E-01 3.50724E-28
9.88148E-01 3.27074E-28
9.89074E-01 3.04421E-28
9.89962E-01 2.82759E-28
9.90814E-01 2.62078E-28
9.91627E-01 2.42370E-28
9.92404E-01 2.23629E-28
9.93143E-01 2.05846E-28
9.93844E-01 1.89015E-28
9.94508E-01 1.73130E-28
9.95134E-01 1.58185E-28
9.95722E-01 1.44173E-28
9.96273E-01 1.31090E-28
9.96786E-01 1.18931E-28
9.97261E-01 1.07691E-28
9.97698E-01 9.73652E-29
9.98097E-01 8.79506E-29
9.98459E-01 7.94433E-29
9.98782E-01 7.18401E-29
9.99067E-01 6.51381E-29
9.99315E-01 5.93348E-29
9.99524E-01 5.44280E-29
9.99695E-01 5.04159E-29
9.99829E-01 4.72969E-29
9.99924E-01 4.50699E-29
9.99981E-01 4.37341E-29
1.00000E+00 4.32887E-29
