 #
 # Subroutine ELSEPA. Elastic scattering of electrons and positrons
 #                    by neutral atoms and positive ions
 #
 # Projectile: electron
 # Kinetic energy = 9.00000E+08 eV = 3.30744E+07 a.u.
 #
 # WARNING: High-energy factorization with free-atom DF screening.
 #          Absorption, polarization and exchange corrections are
 #          switched off.
 #          Phase shifts are calculated for the bare nucleus.
 #          Scattering amplitudes are not evaluated.
 #
 # Element: Ca,  Z =  20,  atomic weight = 4.00780E+01 g/mol
 #
 # Nuclear model: Fermi distribution
 #                Average radius = 3.66173E-13 cm
 #                Skin thickness = 5.46000E-14 cm
 #
 # Number of electrons = 20
 #
 # Total elastic cross section = 1.76949E-18 cm**2 = 6.31897E-02 a0**2
 # 1st transport cross section = 1.04817E-27 cm**2 = 3.74307E-11 a0**2
 # 2nd transport cross section = 3.14396E-27 cm**2 = 1.12273E-10 a0**2
 #
 #
 # Differential cross section:                       MU=(1-COS(THETA))/2
 #
 #  THETA        MU          DCS          DCS        Sherman      error
 #  (deg)                 (cm**2/sr)   (a0**2/sr)    function
 #----------------------------------------------------------------------
0.00000E+00 3.03603E-08
7.61557E-13 2.02520E-08
1.18994E-12 1.66571E-08
1.71346E-12 1.34645E-08
2.33225E-12 1.08434E-08
3.04617E-12 8.68130E-09
3.85530E-12 7.03180E-09
4.75964E-12 5.73970E-09
5.75917E-12 4.73406E-09
6.85391E-12 3.96865E-09
8.04379E-12 3.35841E-09
9.32893E-12 2.87485E-09
1.07092E-11 2.48403E-09
1.21847E-11 2.16315E-09
1.37554E-11 1.89614E-09
1.54213E-11 1.67046E-09
1.71823E-11 1.47966E-09
1.90386E-11 1.31323E-09
2.09900E-11 1.16985E-09
2.30367E-11 1.04534E-09
2.51785E-11 9.34571E-10
2.74156E-11 8.38115E-10
2.97478E-11 7.52580E-10
3.21752E-11 6.76466E-10
3.46979E-11 6.09585E-10
3.73157E-11 5.49513E-10
4.00286E-11 4.96230E-10
4.28368E-11 4.49094E-10
4.57402E-11 4.06491E-10
4.87388E-11 3.68753E-10
5.18325E-11 3.35029E-10
5.50215E-11 3.04706E-10
5.83057E-11 2.77709E-10
6.16850E-11 2.53444E-10
6.51595E-11 2.31671E-10
6.87293E-11 2.12184E-10
7.23943E-11 1.94587E-10
7.61544E-11 1.78779E-10
1.18991E-10 8.38038E-11
1.71347E-10 4.53371E-11
2.33223E-10 2.72071E-11
3.04617E-10 1.74993E-11
3.85531E-10 1.18049E-11
4.75965E-10 8.23505E-12
5.75917E-10 5.89339E-12
6.85389E-10 4.31338E-12
8.04380E-10 3.21423E-12
9.32891E-10 2.43808E-12
1.07092E-09 1.87819E-12
1.21847E-09 1.46802E-12
1.37554E-09 1.16287E-12
1.54213E-09 9.32414E-13
1.71823E-09 7.56175E-13
1.90386E-09 6.19594E-13
2.09900E-09 5.12552E-13
2.30367E-09 4.27721E-13
2.51785E-09 3.59804E-13
2.74156E-09 3.04920E-13
2.97478E-09 2.60163E-13
3.21752E-09 2.23377E-13
3.46978E-09 1.92906E-13
3.73156E-09 1.67487E-13
4.00286E-09 1.46146E-13
4.28368E-09 1.28113E-13
4.57402E-09 1.12793E-13
4.87388E-09 9.97050E-14
5.18326E-09 8.84692E-14
5.50215E-09 7.87778E-14
5.83057E-09 7.03810E-14
6.16850E-09 6.30772E-14
6.51596E-09 5.66975E-14
6.87293E-09 5.11060E-14
7.23942E-09 4.61876E-14
7.61544E-09 4.18471E-14
1.18991E-08 1.74833E-14
1.71347E-08 8.53116E-15
2.33223E-08 4.63749E-15
3.04617E-08 2.73030E-15
3.85531E-08 1.70927E-15
4.75965E-08 1.12351E-15
5.75917E-08 7.68338E-16
6.85389E-08 5.42976E-16
8.04380E-08 3.94464E-16
9.32891E-08 2.93409E-16
1.07092E-07 2.22728E-16
1.21847E-07 1.72099E-16
1.37554E-07 1.35069E-16
1.54213E-07 1.07482E-16
1.71823E-07 8.65909E-17
1.90386E-07 7.05369E-17
2.09900E-07 5.80365E-17
2.30367E-07 4.81862E-17
2.51785E-07 4.03398E-17
2.74156E-07 3.40263E-17
2.97478E-07 2.89004E-17
3.21752E-07 2.47045E-17
3.46978E-07 2.12432E-17
3.73156E-07 1.83674E-17
4.00286E-07 1.59622E-17
4.28368E-07 1.39381E-17
4.57402E-07 1.22249E-17
4.87388E-07 1.07671E-17
5.18325E-07 9.52020E-18
5.50215E-07 8.44871E-18
5.83057E-07 7.52382E-18
6.16850E-07 6.72210E-18
6.51596E-07 6.02438E-18
6.87293E-07 5.41489E-18
7.23942E-07 4.88056E-18
7.61543E-07 4.41054E-18
1.18991E-06 1.80673E-18
1.71347E-06 8.71386E-19
2.33223E-06 4.70397E-19
3.04617E-06 2.75764E-19
3.85531E-06 1.72174E-19
4.75964E-06 1.12974E-19
5.75916E-06 7.71699E-20
6.85388E-06 5.44922E-20
8.04378E-06 3.95664E-20
9.32888E-06 2.94190E-20
1.07092E-05 2.23263E-20
1.21846E-05 1.72481E-20
1.37553E-05 1.35353E-20
1.54212E-05 1.07699E-20
1.71822E-05 8.67619E-21
1.90385E-05 7.06692E-21
2.09899E-05 5.81489E-21
2.30365E-05 4.82830E-21
2.51783E-05 4.04229E-21
2.74153E-05 3.40985E-21
2.97475E-05 2.89634E-21
3.21749E-05 2.47595E-21
3.46974E-05 2.12916E-21
3.73152E-05 1.84105E-21
4.00281E-05 1.60011E-21
4.28362E-05 1.39735E-21
4.57395E-05 1.22572E-21
4.87380E-05 1.07966E-21
5.18317E-05 9.54719E-22
5.50205E-05 8.47334E-22
5.83045E-05 7.54631E-22
6.16838E-05 6.74267E-22
6.51582E-05 6.04327E-22
6.87277E-05 5.43230E-22
7.23925E-05 4.89669E-22
7.61524E-05 4.33114E-22
9.21439E-05 2.94460E-22
1.09658E-04 2.06833E-22
1.28695E-04 1.49313E-22
1.49255E-04 1.10316E-22
1.71338E-04 8.31443E-23
1.94942E-04 6.37568E-23
2.20070E-04 4.96341E-23
2.46720E-04 3.91580E-23
2.74892E-04 3.12600E-23
3.04586E-04 2.52197E-23
3.35803E-04 2.05400E-23
3.68542E-04 1.68719E-23
4.02802E-04 1.39663E-23
4.38585E-04 1.16425E-23
4.75889E-04 9.76767E-24
5.14715E-04 8.24281E-24
5.55063E-04 6.99345E-24
5.96931E-04 5.96281E-24
6.40321E-04 5.10724E-24
6.85233E-04 4.39285E-24
7.31665E-04 3.79311E-24
7.79618E-04 3.28708E-24
8.29092E-04 2.85811E-24
8.80086E-04 2.49287E-24
9.32601E-04 2.18061E-24
9.86636E-04 1.91263E-24
1.04219E-03 1.68182E-24
1.09927E-03 1.48235E-24
1.15786E-03 1.30941E-24
1.21797E-03 1.15904E-24
1.27961E-03 1.02791E-24
1.34276E-03 9.13263E-25
1.40743E-03 8.12776E-25
1.47362E-03 7.24493E-25
1.54133E-03 6.46757E-25
1.61056E-03 5.78165E-25
1.68131E-03 5.17522E-25
1.75357E-03 4.63805E-25
1.82735E-03 4.16139E-25
1.90265E-03 3.73770E-25
1.97947E-03 3.36052E-25
2.05780E-03 3.02422E-25
2.13765E-03 2.72394E-25
2.21902E-03 2.45548E-25
2.30190E-03 2.21515E-25
2.38630E-03 1.99975E-25
2.47222E-03 1.80647E-25
2.55965E-03 1.63286E-25
2.64859E-03 1.47676E-25
2.73905E-03 1.33626E-25
2.83103E-03 1.20969E-25
2.92452E-03 1.09559E-25
3.01952E-03 9.92625E-26
3.11604E-03 8.99655E-26
3.21407E-03 8.15646E-26
3.31362E-03 7.39686E-26
3.41468E-03 6.70961E-26
3.51725E-03 6.08747E-26
3.62133E-03 5.52399E-26
3.72692E-03 5.01337E-26
3.83403E-03 4.55045E-26
3.94265E-03 4.13060E-26
4.05278E-03 3.74968E-26
4.16442E-03 3.40395E-26
4.27757E-03 3.09006E-26
4.39223E-03 2.80502E-26
4.50840E-03 2.54610E-26
4.62608E-03 2.31086E-26
4.74527E-03 2.09709E-26
4.86597E-03 1.90282E-26
4.98817E-03 1.72624E-26
5.11188E-03 1.56572E-26
5.23711E-03 1.41980E-26
5.36383E-03 1.28714E-26
5.49207E-03 1.16654E-26
5.62181E-03 1.05691E-26
5.75306E-03 9.57253E-27
5.88581E-03 8.66671E-27
6.02007E-03 7.84347E-27
6.15583E-03 7.09539E-27
6.29310E-03 6.41572E-27
6.43187E-03 5.79834E-27
6.57214E-03 5.23765E-27
6.71392E-03 4.72859E-27
6.85720E-03 4.26653E-27
7.00198E-03 3.84726E-27
7.14827E-03 3.46696E-27
7.29605E-03 3.12214E-27
7.44534E-03 2.80960E-27
7.59612E-03 2.52645E-27
7.97965E-03 1.93041E-27
8.37255E-03 1.46685E-27
8.77480E-03 1.10773E-27
9.18641E-03 8.30770E-28
9.60736E-03 6.18283E-28
1.00376E-02 4.56233E-28
1.04773E-02 3.33496E-28
1.09262E-02 2.41272E-28
1.13844E-02 1.72611E-28
1.18520E-02 1.22038E-28
1.23288E-02 8.52574E-29
1.28150E-02 5.89081E-29
1.33104E-02 4.03740E-29
1.38150E-02 2.76291E-29
1.43290E-02 1.91145E-29
1.48521E-02 1.36395E-29
1.53845E-02 1.03027E-29
1.59262E-02 8.42880E-30
1.64770E-02 7.51859E-30
1.70371E-02 7.20868E-30
1.76063E-02 7.23992E-30
1.81848E-02 7.43236E-30
1.87724E-02 7.66555E-30
1.93692E-02 7.86312E-30
1.99751E-02 7.98081E-30
2.05901E-02 7.99725E-30
2.12143E-02 7.90690E-30
2.18476E-02 7.71467E-30
2.24900E-02 7.43199E-30
2.31415E-02 7.07385E-30
2.38021E-02 6.65676E-30
2.44717E-02 6.19723E-30
2.51504E-02 5.71088E-30
2.58382E-02 5.21176E-30
2.65349E-02 4.71207E-30
2.72407E-02 4.22202E-30
2.79555E-02 3.74983E-30
2.86793E-02 3.30181E-30
2.94120E-02 2.88258E-30
3.01537E-02 2.49518E-30
3.09043E-02 2.14136E-30
3.16639E-02 1.82173E-30
3.24324E-02 1.53601E-30
3.32098E-02 1.28317E-30
3.39961E-02 1.06167E-30
3.47912E-02 8.69530E-31
3.55952E-02 7.04536E-31
3.64081E-02 5.64301E-31
3.72297E-02 4.46378E-31
3.80602E-02 3.48330E-31
3.88995E-02 2.67785E-31
3.97476E-02 2.02485E-31
4.06044E-02 1.50314E-31
4.14700E-02 1.09318E-31
4.23443E-02 7.77213E-32
4.32273E-02 5.39278E-32
4.41190E-02 3.65222E-32
4.50194E-02 2.42639E-32
4.59284E-02 1.60794E-32
4.68461E-02 1.10510E-32
4.87074E-02 7.49448E-33
5.06030E-02 8.87852E-33
5.25328E-02 1.21359E-32
5.44967E-02 1.54408E-32
5.64946E-02 1.78528E-32
5.85262E-02 1.90237E-32
6.05914E-02 1.89698E-32
6.26901E-02 1.79043E-32
6.48222E-02 1.61213E-32
6.69873E-02 1.39202E-32
6.91854E-02 1.15637E-32
7.14163E-02 9.25683E-33
7.36799E-02 7.14266E-33
7.59760E-02 5.30660E-33
7.83043E-02 3.78626E-33
8.06647E-02 2.58293E-33
8.30571E-02 1.67303E-33
8.54812E-02 1.01810E-33
8.79369E-02 5.72945E-34
9.04240E-02 2.91605E-34
9.29422E-02 1.31452E-34
9.54915E-02 5.55756E-35
9.80716E-02 3.38668E-35
1.00682E-01 4.31369E-35
1.03323E-01 6.65978E-35
1.05995E-01 9.29694E-35
1.08696E-01 1.15424E-34
1.11427E-01 1.30518E-34
1.14188E-01 1.37211E-34
1.16978E-01 1.36028E-34
1.19797E-01 1.28384E-34
1.22645E-01 1.16081E-34
1.25522E-01 1.00953E-34
1.28428E-01 8.46443E-35
1.31361E-01 6.84874E-35
1.34323E-01 5.34594E-35
1.37313E-01 4.01919E-35
1.40330E-01 2.90129E-35
1.43375E-01 2.00056E-35
1.46447E-01 1.30729E-35
1.49545E-01 7.99794E-36
1.52671E-01 4.49678E-36
1.55823E-01 2.26110E-36
1.59001E-01 9.89466E-37
1.62205E-01 4.08527E-37
1.65435E-01 2.85273E-37
1.68690E-01 4.32201E-37
1.71970E-01 7.07231E-37
1.75276E-01 1.00993E-36
1.78606E-01 1.27562E-36
1.81961E-01 1.46851E-36
1.85340E-01 1.57463E-36
1.88743E-01 1.59543E-36
1.92169E-01 1.54200E-36
1.95619E-01 1.43066E-36
1.99092E-01 1.27945E-36
2.02589E-01 1.10571E-36
2.06107E-01 9.24561E-37
2.09649E-01 7.48127E-37
2.13212E-01 5.85267E-37
2.16797E-01 4.41725E-37
2.20404E-01 3.20479E-37
2.24032E-01 2.22267E-37
2.27680E-01 1.46116E-37
2.31350E-01 8.98825E-38
2.35040E-01 5.07207E-38
2.38751E-01 2.54862E-38
2.42481E-01 1.10440E-38
2.46231E-01 1.00000E-45
2.50000E-01 1.00000E-45
2.53788E-01 1.00000E-45
2.57595E-01 1.00000E-45
2.61421E-01 1.00000E-45
2.65264E-01 1.00000E-45
2.69126E-01 1.00000E-45
2.73005E-01 1.00000E-45
2.76901E-01 1.00000E-45
2.80814E-01 1.00000E-45
2.84744E-01 1.00000E-45
2.88691E-01 1.00000E-45
2.92653E-01 1.00000E-45
2.96632E-01 1.00000E-45
3.00625E-01 1.00000E-45
3.04634E-01 1.00000E-45
3.08658E-01 1.00000E-45
3.12697E-01 1.00000E-45
3.16749E-01 1.00000E-45
3.20816E-01 1.00000E-45
3.24896E-01 1.00000E-45
3.28990E-01 1.00000E-45
3.33097E-01 1.00000E-45
3.37216E-01 1.00000E-45
3.41348E-01 1.00000E-45
3.45492E-01 1.00000E-45
3.49647E-01 1.00000E-45
3.53814E-01 1.00000E-45
3.57992E-01 1.00000E-45
3.62181E-01 1.00000E-45
3.66381E-01 1.00000E-45
3.70590E-01 1.00000E-45
3.74810E-01 1.00000E-45
3.79039E-01 1.00000E-45
3.83277E-01 1.00000E-45
3.87524E-01 1.00000E-45
3.91780E-01 1.00000E-45
3.96044E-01 1.00000E-45
4.00316E-01 1.00000E-45
4.04596E-01 1.00000E-45
4.08882E-01 1.00000E-45
4.13176E-01 1.00000E-45
4.17476E-01 1.00000E-45
4.21783E-01 1.00000E-45
4.26095E-01 1.00000E-45
4.30413E-01 1.00000E-45
4.34737E-01 1.00000E-45
4.39065E-01 1.00000E-45
4.43398E-01 1.00000E-45
4.47736E-01 1.00000E-45
4.52077E-01 1.00000E-45
4.56422E-01 1.00000E-45
4.60770E-01 1.00000E-45
4.65122E-01 1.00000E-45
4.69476E-01 1.00000E-45
4.73832E-01 1.00000E-45
4.78190E-01 1.00000E-45
4.82550E-01 1.00000E-45
4.86912E-01 1.00000E-45
4.91274E-01 1.00000E-45
4.95637E-01 1.00000E-45
5.00000E-01 1.00000E-45
5.04363E-01 1.00000E-45
5.08726E-01 1.00000E-45
5.13088E-01 1.00000E-45
5.17450E-01 1.00000E-45
5.21810E-01 1.00000E-45
5.26168E-01 1.00000E-45
5.30524E-01 1.00000E-45
5.34878E-01 1.00000E-45
5.39230E-01 1.00000E-45
5.43578E-01 1.00000E-45
5.47923E-01 1.00000E-45
5.52264E-01 1.00000E-45
5.56602E-01 1.00000E-45
5.60935E-01 1.00000E-45
5.65263E-01 1.00000E-45
5.69587E-01 1.00000E-45
5.73905E-01 1.00000E-45
5.78217E-01 1.00000E-45
5.82524E-01 1.00000E-45
5.86824E-01 1.00000E-45
5.91118E-01 1.00000E-45
5.95404E-01 1.00000E-45
5.99684E-01 1.00000E-45
6.03956E-01 1.00000E-45
6.08220E-01 1.00000E-45
6.12476E-01 1.00000E-45
6.16723E-01 1.00000E-45
6.20961E-01 1.00000E-45
6.25190E-01 1.00000E-45
6.29410E-01 1.00000E-45
6.33619E-01 1.00000E-45
6.37819E-01 1.00000E-45
6.42008E-01 1.00000E-45
6.46186E-01 1.00000E-45
6.50353E-01 1.00000E-45
6.54508E-01 1.00000E-45
6.58652E-01 1.00000E-45
6.62784E-01 1.00000E-45
6.66903E-01 1.00000E-45
6.71010E-01 1.00000E-45
6.75104E-01 1.00000E-45
6.79184E-01 1.00000E-45
6.83251E-01 1.00000E-45
6.87303E-01 1.00000E-45
6.91342E-01 1.00000E-45
6.95366E-01 1.00000E-45
6.99375E-01 1.00000E-45
7.03368E-01 1.00000E-45
7.07347E-01 1.00000E-45
7.11309E-01 1.00000E-45
7.15256E-01 1.00000E-45
7.19186E-01 1.00000E-45
7.23099E-01 1.00000E-45
7.26995E-01 1.00000E-45
7.30874E-01 1.00000E-45
7.34736E-01 1.00000E-45
7.38579E-01 1.00000E-45
7.42405E-01 1.00000E-45
7.46212E-01 1.00000E-45
7.50000E-01 1.00000E-45
7.53769E-01 1.00000E-45
7.57519E-01 1.00000E-45
7.61249E-01 1.00000E-45
7.64960E-01 1.00000E-45
7.68650E-01 1.00000E-45
7.72320E-01 1.00000E-45
7.75968E-01 1.00000E-45
7.79596E-01 1.00000E-45
7.83203E-01 1.00000E-45
7.86788E-01 1.00000E-45
7.90351E-01 1.00000E-45
7.93893E-01 1.00000E-45
7.97411E-01 1.00000E-45
8.00908E-01 1.00000E-45
8.04381E-01 1.00000E-45
8.07831E-01 1.00000E-45
8.11257E-01 1.00000E-45
8.14660E-01 1.00000E-45
8.18039E-01 1.00000E-45
8.21394E-01 1.00000E-45
8.24724E-01 1.00000E-45
8.28030E-01 1.00000E-45
8.31310E-01 1.00000E-45
8.34565E-01 1.00000E-45
8.37795E-01 1.00000E-45
8.40999E-01 1.00000E-45
8.44177E-01 1.00000E-45
8.47329E-01 1.00000E-45
8.50455E-01 1.00000E-45
8.53553E-01 1.00000E-45
8.56625E-01 1.00000E-45
8.59670E-01 1.00000E-45
8.62687E-01 1.00000E-45
8.65677E-01 1.00000E-45
8.68639E-01 1.00000E-45
8.71572E-01 1.00000E-45
8.74478E-01 1.00000E-45
8.77355E-01 1.00000E-45
8.80203E-01 1.00000E-45
8.83022E-01 1.00000E-45
8.85812E-01 1.00000E-45
8.88573E-01 1.00000E-45
8.91304E-01 1.00000E-45
8.94005E-01 1.00000E-45
8.96677E-01 1.00000E-45
8.99318E-01 1.00000E-45
9.01928E-01 1.00000E-45
9.04508E-01 1.00000E-45
9.07058E-01 1.00000E-45
9.09576E-01 1.00000E-45
9.12063E-01 1.00000E-45
9.14519E-01 1.00000E-45
9.16943E-01 1.00000E-45
9.19335E-01 1.00000E-45
9.21696E-01 1.00000E-45
9.24024E-01 1.00000E-45
9.26320E-01 1.00000E-45
9.28584E-01 1.00000E-45
9.30815E-01 1.00000E-45
9.33013E-01 1.00000E-45
9.35178E-01 1.00000E-45
9.37310E-01 1.00000E-45
9.39409E-01 1.00000E-45
9.41474E-01 1.00000E-45
9.43505E-01 1.00000E-45
9.45503E-01 1.00000E-45
9.47467E-01 1.00000E-45
9.49397E-01 1.00000E-45
9.51293E-01 1.00000E-45
9.53154E-01 1.00000E-45
9.54981E-01 1.00000E-45
9.56773E-01 1.00000E-45
9.58530E-01 1.00000E-45
9.60252E-01 1.00000E-45
9.61940E-01 1.00000E-45
9.63592E-01 1.00000E-45
9.65209E-01 1.00000E-45
9.66790E-01 1.00000E-45
9.68336E-01 1.00000E-45
9.69846E-01 1.00000E-45
9.71321E-01 1.00000E-45
9.72759E-01 1.00000E-45
9.74162E-01 1.00000E-45
9.75528E-01 1.00000E-45
9.76858E-01 1.00000E-45
9.78152E-01 1.00000E-45
9.79410E-01 1.00000E-45
9.80631E-01 1.00000E-45
9.81815E-01 1.00000E-45
9.82963E-01 1.00000E-45
9.84074E-01 1.00000E-45
9.85148E-01 1.00000E-45
9.86185E-01 1.00000E-45
9.87185E-01 1.00000E-45
9.88148E-01 1.00000E-45
9.89074E-01 1.00000E-45
9.89962E-01 1.00000E-45
9.90814E-01 1.00000E-45
9.91627E-01 1.00000E-45
9.92404E-01 1.00000E-45
9.93143E-01 1.00000E-45
9.93844E-01 1.00000E-45
9.94508E-01 1.00000E-45
9.95134E-01 1.00000E-45
9.95722E-01 1.00000E-45
9.96273E-01 1.00000E-45
9.96786E-01 1.00000E-45
9.97261E-01 1.00000E-45
9.97698E-01 1.00000E-45
9.98097E-01 1.00000E-45
9.98459E-01 1.00000E-45
9.98782E-01 1.00000E-45
9.99067E-01 1.00000E-45
9.99315E-01 1.00000E-45
9.99524E-01 1.00000E-45
9.99695E-01 1.00000E-45
9.99829E-01 1.00000E-45
9.99924E-01 1.00000E-45
9.99981E-01 1.00000E-45
1.00000E+00 1.00000E-45
