 #
 # Subroutine ELSEPA. Elastic scattering of electrons and positrons
 #                    by neutral atoms and positive ions
 #
 # Projectile: electron
 # Kinetic energy = 1.25000E+07 eV = 4.59367E+05 a.u.
 #
 # WARNING: High-energy factorization with free-atom DF screening.
 #          Absorption, polarization and exchange corrections are
 #          switched off.
 #          Phase shifts are calculated for the bare nucleus.
 #          Scattering amplitudes are not evaluated.
 #
 # Element: Ca,  Z =  20,  atomic weight = 4.00780E+01 g/mol
 #
 # Nuclear model: Fermi distribution
 #                Average radius = 3.66173E-13 cm
 #                Skin thickness = 5.46000E-14 cm
 #
 # Number of electrons = 20
 #
 # Total elastic cross section = 1.81481E-18 cm**2 = 6.48081E-02 a0**2
 # 1st transport cross section = 4.22384E-24 cm**2 = 1.50836E-07 a0**2
 # 2nd transport cross section = 1.21347E-23 cm**2 = 4.33338E-07 a0**2
 #
 #
 # Differential cross section:                       MU=(1-COS(THETA))/2
 #
 #  THETA        MU          DCS          DCS        Sherman      error
 #  (deg)                 (cm**2/sr)   (a0**2/sr)    function
 #----------------------------------------------------------------------
0.00000E+00 6.33796E-12
7.61557E-13 6.33736E-12
1.18994E-12 6.33702E-12
1.71346E-12 6.33661E-12
2.33225E-12 6.33613E-12
3.04617E-12 6.33557E-12
3.85530E-12 6.33494E-12
4.75964E-12 6.33423E-12
5.75917E-12 6.33346E-12
6.85391E-12 6.33260E-12
8.04379E-12 6.33168E-12
9.32893E-12 6.33068E-12
1.07092E-11 6.32961E-12
1.21847E-11 6.32846E-12
1.37554E-11 6.32725E-12
1.54213E-11 6.32595E-12
1.71823E-11 6.32459E-12
1.90386E-11 6.32315E-12
2.09900E-11 6.32164E-12
2.30367E-11 6.32006E-12
2.51785E-11 6.31840E-12
2.74156E-11 6.31667E-12
2.97478E-11 6.31487E-12
3.21752E-11 6.31300E-12
3.46979E-11 6.31105E-12
3.73157E-11 6.30903E-12
4.00286E-11 6.30694E-12
4.28368E-11 6.30477E-12
4.57402E-11 6.30254E-12
4.87388E-11 6.30023E-12
5.18325E-11 6.29785E-12
5.50215E-11 6.29540E-12
5.83057E-11 6.29288E-12
6.16850E-11 6.29028E-12
6.51595E-11 6.28762E-12
6.87293E-11 6.28488E-12
7.23943E-11 6.28207E-12
7.61544E-11 6.27919E-12
1.18991E-10 6.24654E-12
1.71347E-10 6.20698E-12
2.33223E-10 6.16070E-12
3.04617E-10 6.10793E-12
3.85531E-10 6.04892E-12
4.75965E-10 5.98395E-12
5.75917E-10 5.91333E-12
6.85389E-10 5.83738E-12
8.04380E-10 5.75646E-12
9.32891E-10 5.67091E-12
1.07092E-09 5.58110E-12
1.21847E-09 5.48740E-12
1.37554E-09 5.39018E-12
1.54213E-09 5.28984E-12
1.71823E-09 5.18676E-12
1.90386E-09 5.08130E-12
2.09900E-09 4.97384E-12
2.30367E-09 4.86475E-12
2.51785E-09 4.75438E-12
2.74156E-09 4.64311E-12
2.97478E-09 4.53125E-12
3.21752E-09 4.41909E-12
3.46978E-09 4.30693E-12
3.73156E-09 4.19506E-12
4.00286E-09 4.08373E-12
4.28368E-09 3.97319E-12
4.57402E-09 3.86366E-12
4.87388E-09 3.75535E-12
5.18326E-09 3.64844E-12
5.50215E-09 3.54310E-12
5.83057E-09 3.43949E-12
6.16850E-09 3.33781E-12
6.51596E-09 3.23811E-12
6.87293E-09 3.14048E-12
7.23942E-09 3.04501E-12
7.61544E-09 2.95178E-12
1.18991E-08 2.15711E-12
1.71347E-08 1.57675E-12
2.33223E-08 1.17386E-12
3.04617E-08 8.96112E-13
3.85531E-08 7.01868E-13
4.75965E-08 5.62364E-13
5.75917E-08 4.58978E-13
6.85389E-08 3.79892E-13
8.04380E-08 3.17593E-13
9.32891E-08 2.67549E-13
1.07092E-07 2.26716E-13
1.21847E-07 1.93008E-13
1.37554E-07 1.64943E-13
1.54213E-07 1.41433E-13
1.71823E-07 1.21649E-13
1.90386E-07 1.04945E-13
2.09900E-07 9.08053E-14
2.30367E-07 7.88115E-14
2.51785E-07 6.86071E-14
2.74156E-07 5.99043E-14
2.97478E-07 5.24786E-14
3.21752E-07 4.61337E-14
3.46978E-07 4.06984E-14
3.73156E-07 3.60298E-14
4.00286E-07 3.20083E-14
4.28368E-07 2.85342E-14
4.57402E-07 2.55240E-14
4.87388E-07 2.29080E-14
5.18325E-07 2.06274E-14
5.50215E-07 1.86333E-14
5.83057E-07 1.68840E-14
6.16850E-07 1.53444E-14
6.51596E-07 1.39852E-14
6.87293E-07 1.27814E-14
7.23942E-07 1.17117E-14
7.61543E-07 1.07581E-14
1.18991E-06 5.13142E-15
1.71347E-06 2.80409E-15
2.33223E-06 1.65917E-15
3.04617E-06 1.03429E-15
3.85531E-06 6.72775E-16
4.75964E-06 4.53671E-16
5.75916E-06 3.15682E-16
6.85388E-06 2.25901E-16
8.04378E-06 1.65738E-16
9.32888E-06 1.24309E-16
1.07092E-05 9.50654E-17
1.21846E-05 7.39669E-17
1.37553E-05 5.84372E-17
1.54212E-05 4.67984E-17
1.71822E-05 3.79338E-17
1.90385E-05 3.10812E-17
2.09899E-05 2.57197E-17
2.30365E-05 2.14707E-17
2.51783E-05 1.80671E-17
2.74153E-05 1.53138E-17
2.97475E-05 1.30665E-17
3.21749E-05 1.12173E-17
3.46974E-05 9.68443E-18
3.73152E-05 8.40502E-18
4.00281E-05 7.33015E-18
4.28362E-05 6.42181E-18
4.57395E-05 5.64988E-18
4.87380E-05 4.99037E-18
5.18317E-05 4.42417E-18
5.50205E-05 3.93590E-18
5.83045E-05 3.51302E-18
6.16838E-05 3.14531E-18
6.51582E-05 2.82439E-18
6.87277E-05 2.54332E-18
7.23925E-05 2.29628E-18
7.61524E-05 2.07846E-18
9.21439E-05 1.42733E-18
1.09658E-04 1.01197E-18
1.28695E-04 7.37093E-19
1.49255E-04 5.49401E-19
1.71338E-04 4.17767E-19
1.94942E-04 3.23261E-19
2.20070E-04 2.54010E-19
2.46720E-04 2.02341E-19
2.74892E-04 1.63159E-19
3.04586E-04 1.33016E-19
3.35803E-04 1.09523E-19
3.68542E-04 9.09944E-20
4.02802E-04 7.62239E-20
4.38585E-04 6.43327E-20
4.75889E-04 5.46733E-20
5.14715E-04 4.67611E-20
5.55063E-04 4.02304E-20
5.96931E-04 3.48016E-20
6.40321E-04 3.02589E-20
6.85233E-04 2.64342E-20
7.31665E-04 2.31956E-20
7.79618E-04 2.04384E-20
8.29092E-04 1.80794E-20
8.80086E-04 1.60513E-20
9.32601E-04 1.43001E-20
9.86636E-04 1.27815E-20
1.04219E-03 1.14595E-20
1.09927E-03 1.03042E-20
1.15786E-03 9.29104E-21
1.21797E-03 8.39955E-21
1.27961E-03 7.61248E-21
1.34276E-03 6.91549E-21
1.40743E-03 6.29658E-21
1.47362E-03 5.74547E-21
1.54133E-03 5.25344E-21
1.61056E-03 4.81304E-21
1.68131E-03 4.41790E-21
1.75357E-03 4.06255E-21
1.82735E-03 3.74227E-21
1.90265E-03 3.45299E-21
1.97947E-03 3.19117E-21
2.05780E-03 2.95374E-21
2.13765E-03 2.73802E-21
2.21902E-03 2.54167E-21
2.30190E-03 2.36263E-21
2.38630E-03 2.19912E-21
2.47222E-03 2.04953E-21
2.55965E-03 1.91247E-21
2.64859E-03 1.78669E-21
2.73905E-03 1.67111E-21
2.83103E-03 1.56474E-21
2.92452E-03 1.46671E-21
3.01952E-03 1.37626E-21
3.11604E-03 1.29269E-21
3.21407E-03 1.21537E-21
3.31362E-03 1.14376E-21
3.41468E-03 1.07736E-21
3.51725E-03 1.01572E-21
3.62133E-03 9.58432E-22
3.72692E-03 9.05134E-22
3.83403E-03 8.55498E-22
3.94265E-03 8.09225E-22
4.05278E-03 7.66045E-22
4.16442E-03 7.25713E-22
4.27757E-03 6.88007E-22
4.39223E-03 6.52722E-22
4.50840E-03 6.19676E-22
4.62608E-03 5.88700E-22
4.74527E-03 5.59639E-22
4.86597E-03 5.32353E-22
4.98817E-03 5.06714E-22
5.11188E-03 4.82603E-22
5.23711E-03 4.59913E-22
5.36383E-03 4.38543E-22
5.49207E-03 4.18404E-22
5.62181E-03 3.99409E-22
5.75306E-03 3.81483E-22
5.88581E-03 3.64554E-22
6.02007E-03 3.48556E-22
6.15583E-03 3.33428E-22
6.29310E-03 3.19113E-22
6.43187E-03 3.05561E-22
6.57214E-03 2.92722E-22
6.71392E-03 2.80552E-22
6.85720E-03 2.69009E-22
7.00198E-03 2.58055E-22
7.14827E-03 2.47655E-22
7.29605E-03 2.37775E-22
7.44534E-03 2.28383E-22
7.59612E-03 2.19452E-22
7.97965E-03 1.98966E-22
8.37255E-03 1.80821E-22
8.77480E-03 1.64703E-22
9.18641E-03 1.50346E-22
9.60736E-03 1.37523E-22
1.00376E-02 1.26042E-22
1.04773E-02 1.15737E-22
1.09262E-02 1.06467E-22
1.13844E-02 9.81089E-23
1.18520E-02 9.05570E-23
1.23288E-02 8.37197E-23
1.28150E-02 7.75172E-23
1.33104E-02 7.18801E-23
1.38150E-02 6.67474E-23
1.43290E-02 6.20660E-23
1.48521E-02 5.77888E-23
1.53845E-02 5.38747E-23
1.59262E-02 5.02873E-23
1.64770E-02 4.69943E-23
1.70371E-02 4.39671E-23
1.76063E-02 4.11803E-23
1.81848E-02 3.86115E-23
1.87724E-02 3.62403E-23
1.93692E-02 3.40488E-23
1.99751E-02 3.20208E-23
2.05901E-02 3.01420E-23
2.12143E-02 2.83993E-23
2.18476E-02 2.67810E-23
2.24900E-02 2.52766E-23
2.31415E-02 2.38766E-23
2.38021E-02 2.25724E-23
2.44717E-02 2.13562E-23
2.51504E-02 2.02211E-23
2.58382E-02 1.91605E-23
2.65349E-02 1.81686E-23
2.72407E-02 1.72403E-23
2.79555E-02 1.63706E-23
2.86793E-02 1.55552E-23
2.94120E-02 1.47900E-23
3.01537E-02 1.40713E-23
3.09043E-02 1.33959E-23
3.16639E-02 1.27605E-23
3.24324E-02 1.21625E-23
3.32098E-02 1.15991E-23
3.39961E-02 1.10680E-23
3.47912E-02 1.05670E-23
3.55952E-02 1.00941E-23
3.64081E-02 9.64736E-24
3.72297E-02 9.22510E-24
3.80602E-02 8.82572E-24
3.88995E-02 8.44773E-24
3.97476E-02 8.08979E-24
4.06044E-02 7.75062E-24
4.14700E-02 7.42905E-24
4.23443E-02 7.12400E-24
4.32273E-02 6.83445E-24
4.41190E-02 6.55948E-24
4.50194E-02 6.29820E-24
4.59284E-02 6.04980E-24
4.68461E-02 5.81353E-24
4.87074E-02 5.37460E-24
5.06030E-02 4.97633E-24
5.25328E-02 4.61425E-24
5.44967E-02 4.28450E-24
5.64946E-02 3.98367E-24
5.85262E-02 3.70875E-24
6.05914E-02 3.45712E-24
6.26901E-02 3.22644E-24
6.48222E-02 3.01464E-24
6.69873E-02 2.81992E-24
6.91854E-02 2.64062E-24
7.14163E-02 2.47532E-24
7.36799E-02 2.32272E-24
7.59760E-02 2.18166E-24
7.83043E-02 2.05111E-24
8.06647E-02 1.93014E-24
8.30571E-02 1.81793E-24
8.54812E-02 1.71372E-24
8.79369E-02 1.61683E-24
9.04240E-02 1.52666E-24
9.29422E-02 1.44266E-24
9.54915E-02 1.36432E-24
9.80716E-02 1.29119E-24
1.00682E-01 1.22287E-24
1.03323E-01 1.15898E-24
1.05995E-01 1.09917E-24
1.08696E-01 1.04314E-24
1.11427E-01 9.90612E-25
1.14188E-01 9.41318E-25
1.16978E-01 8.95024E-25
1.19797E-01 8.51516E-25
1.22645E-01 8.10592E-25
1.25522E-01 7.72073E-25
1.28428E-01 7.35790E-25
1.31361E-01 7.01590E-25
1.34323E-01 6.69330E-25
1.37313E-01 6.38881E-25
1.40330E-01 6.10122E-25
1.43375E-01 5.82941E-25
1.46447E-01 5.57236E-25
1.49545E-01 5.32913E-25
1.52671E-01 5.09882E-25
1.55823E-01 4.88064E-25
1.59001E-01 4.67381E-25
1.62205E-01 4.47764E-25
1.65435E-01 4.29148E-25
1.68690E-01 4.11473E-25
1.71970E-01 3.94681E-25
1.75276E-01 3.78721E-25
1.78606E-01 3.63545E-25
1.81961E-01 3.49105E-25
1.85340E-01 3.35361E-25
1.88743E-01 3.22271E-25
1.92169E-01 3.09801E-25
1.95619E-01 2.97913E-25
1.99092E-01 2.86578E-25
2.02589E-01 2.75763E-25
2.06107E-01 2.65441E-25
2.09649E-01 2.55585E-25
2.13212E-01 2.46171E-25
2.16797E-01 2.37174E-25
2.20404E-01 2.28573E-25
2.24032E-01 2.20348E-25
2.27680E-01 2.12478E-25
2.31350E-01 2.04946E-25
2.35040E-01 1.97735E-25
2.38751E-01 1.90828E-25
2.42481E-01 1.84211E-25
2.46231E-01 1.77868E-25
2.50000E-01 1.71786E-25
2.53788E-01 1.65954E-25
2.57595E-01 1.60358E-25
2.61421E-01 1.54987E-25
2.65264E-01 1.49831E-25
2.69126E-01 1.44879E-25
2.73005E-01 1.40122E-25
2.76901E-01 1.35551E-25
2.80814E-01 1.31157E-25
2.84744E-01 1.26933E-25
2.88691E-01 1.22870E-25
2.92653E-01 1.18961E-25
2.96632E-01 1.15199E-25
3.00625E-01 1.11578E-25
3.04634E-01 1.08091E-25
3.08658E-01 1.04733E-25
3.12697E-01 1.01499E-25
3.16749E-01 9.83815E-26
3.20816E-01 9.53770E-26
3.24896E-01 9.24804E-26
3.28990E-01 8.96872E-26
3.33097E-01 8.69929E-26
3.37216E-01 8.43934E-26
3.41348E-01 8.18848E-26
3.45492E-01 7.94635E-26
3.49647E-01 7.71257E-26
3.53814E-01 7.48681E-26
3.57992E-01 7.26875E-26
3.62181E-01 7.05808E-26
3.66381E-01 6.85451E-26
3.70590E-01 6.65774E-26
3.74810E-01 6.46753E-26
3.79039E-01 6.28360E-26
3.83277E-01 6.10572E-26
3.87524E-01 5.93365E-26
3.91780E-01 5.76718E-26
3.96044E-01 5.60607E-26
4.00316E-01 5.45015E-26
4.04596E-01 5.29920E-26
4.08882E-01 5.15304E-26
4.13176E-01 5.01150E-26
4.17476E-01 4.87439E-26
4.21783E-01 4.74157E-26
4.26095E-01 4.61288E-26
4.30413E-01 4.48815E-26
4.34737E-01 4.36726E-26
4.39065E-01 4.25006E-26
4.43398E-01 4.13642E-26
4.47736E-01 4.02621E-26
4.52077E-01 3.91932E-26
4.56422E-01 3.81562E-26
4.60770E-01 3.71501E-26
4.65122E-01 3.61738E-26
4.69476E-01 3.52262E-26
4.73832E-01 3.43064E-26
4.78190E-01 3.34134E-26
4.82550E-01 3.25463E-26
4.86912E-01 3.17042E-26
4.91274E-01 3.08863E-26
4.95637E-01 3.00918E-26
5.00000E-01 2.93199E-26
5.04363E-01 2.85699E-26
5.08726E-01 2.78410E-26
5.13088E-01 2.71325E-26
5.17450E-01 2.64438E-26
5.21810E-01 2.57743E-26
5.26168E-01 2.51233E-26
5.30524E-01 2.44902E-26
5.34878E-01 2.38744E-26
5.39230E-01 2.32755E-26
5.43578E-01 2.26928E-26
5.47923E-01 2.21259E-26
5.52264E-01 2.15743E-26
5.56602E-01 2.10374E-26
5.60935E-01 2.05149E-26
5.65263E-01 2.00063E-26
5.69587E-01 1.95111E-26
5.73905E-01 1.90290E-26
5.78217E-01 1.85596E-26
5.82524E-01 1.81024E-26
5.86824E-01 1.76572E-26
5.91118E-01 1.72235E-26
5.95404E-01 1.68010E-26
5.99684E-01 1.63893E-26
6.03956E-01 1.59882E-26
6.08220E-01 1.55974E-26
6.12476E-01 1.52165E-26
6.16723E-01 1.48452E-26
6.20961E-01 1.44833E-26
6.25190E-01 1.41306E-26
6.29410E-01 1.37866E-26
6.33619E-01 1.34513E-26
6.37819E-01 1.31243E-26
6.42008E-01 1.28053E-26
6.46186E-01 1.24943E-26
6.50353E-01 1.21909E-26
6.54508E-01 1.18950E-26
6.58652E-01 1.16063E-26
6.62784E-01 1.13246E-26
6.66903E-01 1.10498E-26
6.71010E-01 1.07816E-26
6.75104E-01 1.05199E-26
6.79184E-01 1.02645E-26
6.83251E-01 1.00152E-26
6.87303E-01 9.77181E-27
6.91342E-01 9.53426E-27
6.95366E-01 9.30235E-27
6.99375E-01 9.07593E-27
7.03368E-01 8.85486E-27
7.07347E-01 8.63899E-27
7.11309E-01 8.42818E-27
7.15256E-01 8.22230E-27
7.19186E-01 8.02123E-27
7.23099E-01 7.82484E-27
7.26995E-01 7.63301E-27
7.30874E-01 7.44562E-27
7.34736E-01 7.26255E-27
7.38579E-01 7.08370E-27
7.42405E-01 6.90896E-27
7.46212E-01 6.73823E-27
7.50000E-01 6.57139E-27
7.53769E-01 6.40837E-27
7.57519E-01 6.24905E-27
7.61249E-01 6.09335E-27
7.64960E-01 5.94118E-27
7.68650E-01 5.79245E-27
7.72320E-01 5.64708E-27
7.75968E-01 5.50498E-27
7.79596E-01 5.36608E-27
7.83203E-01 5.23029E-27
7.86788E-01 5.09755E-27
7.90351E-01 4.96777E-27
7.93893E-01 4.84089E-27
7.97411E-01 4.71684E-27
8.00908E-01 4.59555E-27
8.04381E-01 4.47696E-27
8.07831E-01 4.36100E-27
8.11257E-01 4.24761E-27
8.14660E-01 4.13673E-27
8.18039E-01 4.02831E-27
8.21394E-01 3.92228E-27
8.24724E-01 3.81859E-27
8.28030E-01 3.71719E-27
8.31310E-01 3.61802E-27
8.34565E-01 3.52104E-27
8.37795E-01 3.42619E-27
8.40999E-01 3.33344E-27
8.44177E-01 3.24272E-27
8.47329E-01 3.15400E-27
8.50455E-01 3.06723E-27
8.53553E-01 2.98237E-27
8.56625E-01 2.89937E-27
8.59670E-01 2.81821E-27
8.62687E-01 2.73883E-27
8.65677E-01 2.66120E-27
8.68639E-01 2.58527E-27
8.71572E-01 2.51103E-27
8.74478E-01 2.43842E-27
8.77355E-01 2.36742E-27
8.80203E-01 2.29799E-27
8.83022E-01 2.23010E-27
8.85812E-01 2.16371E-27
8.88573E-01 2.09880E-27
8.91304E-01 2.03534E-27
8.94005E-01 1.97329E-27
8.96677E-01 1.91263E-27
8.99318E-01 1.85333E-27
9.01928E-01 1.79536E-27
9.04508E-01 1.73871E-27
9.07058E-01 1.68333E-27
9.09576E-01 1.62921E-27
9.12063E-01 1.57632E-27
9.14519E-01 1.52464E-27
9.16943E-01 1.47414E-27
9.19335E-01 1.42481E-27
9.21696E-01 1.37662E-27
9.24024E-01 1.32955E-27
9.26320E-01 1.28358E-27
9.28584E-01 1.23869E-27
9.30815E-01 1.19487E-27
9.33013E-01 1.15208E-27
9.35178E-01 1.11031E-27
9.37310E-01 1.06956E-27
9.39409E-01 1.02978E-27
9.41474E-01 9.90985E-28
9.43505E-01 9.53139E-28
9.45503E-01 9.16232E-28
9.47467E-01 8.80247E-28
9.49397E-01 8.45171E-28
9.51293E-01 8.10987E-28
9.53154E-01 7.77682E-28
9.54981E-01 7.45242E-28
9.56773E-01 7.13654E-28
9.58530E-01 6.82904E-28
9.60252E-01 6.52980E-28
9.61940E-01 6.23869E-28
9.63592E-01 5.95559E-28
9.65209E-01 5.68040E-28
9.66790E-01 5.41299E-28
9.68336E-01 5.15326E-28
9.69846E-01 4.90110E-28
9.71321E-01 4.65641E-28
9.72759E-01 4.41910E-28
9.74162E-01 4.18906E-28
9.75528E-01 3.96620E-28
9.76858E-01 3.75044E-28
9.78152E-01 3.54169E-28
9.79410E-01 3.33986E-28
9.80631E-01 3.14488E-28
9.81815E-01 2.95667E-28
9.82963E-01 2.77515E-28
9.84074E-01 2.60024E-28
9.85148E-01 2.43190E-28
9.86185E-01 2.27003E-28
9.87185E-01 2.11459E-28
9.88148E-01 1.96551E-28
9.89074E-01 1.82273E-28
9.89962E-01 1.68620E-28
9.90814E-01 1.55586E-28
9.91627E-01 1.43167E-28
9.92404E-01 1.31356E-28
9.93143E-01 1.20151E-28
9.93844E-01 1.09546E-28
9.94508E-01 9.95368E-29
9.95134E-01 9.01204E-29
9.95722E-01 8.12927E-29
9.96273E-01 7.30504E-29
9.96786E-01 6.53903E-29
9.97261E-01 5.83094E-29
9.97698E-01 5.18049E-29
9.98097E-01 4.58744E-29
9.98459E-01 4.05156E-29
9.98782E-01 3.57263E-29
9.99067E-01 3.15049E-29
9.99315E-01 2.78496E-29
9.99524E-01 2.47590E-29
9.99695E-01 2.22319E-29
9.99829E-01 2.02674E-29
9.99924E-01 1.88647E-29
9.99981E-01 1.80234E-29
1.00000E+00 1.77429E-29
