 #
 # Subroutine ELSEPA. Elastic scattering of electrons and positrons
 #                    by neutral atoms and positive ions
 #
 # Projectile: electron
 # Kinetic energy = 1.00000E+09 eV = 3.67493E+07 a.u.
 #
 # WARNING: High-energy factorization with free-atom DF screening.
 #          Absorption, polarization and exchange corrections are
 #          switched off.
 #          Phase shifts are calculated for the bare nucleus.
 #          Scattering amplitudes are not evaluated.
 #
 # Element: Ca,  Z =  20,  atomic weight = 4.00780E+01 g/mol
 #
 # Nuclear model: Fermi distribution
 #                Average radius = 3.66173E-13 cm
 #                Skin thickness = 5.46000E-14 cm
 #
 # Number of electrons = 20
 #
 # Total elastic cross section = 1.75262E-18 cm**2 = 6.25871E-02 a0**2
 # 1st transport cross section = 8.49259E-28 cm**2 = 3.03276E-11 a0**2
 # 2nd transport cross section = 2.54742E-27 cm**2 = 9.09701E-11 a0**2
 #
 #
 # Differential cross section:                       MU=(1-COS(THETA))/2
 #
 #  THETA        MU          DCS          DCS        Sherman      error
 #  (deg)                 (cm**2/sr)   (a0**2/sr)    function
 #----------------------------------------------------------------------
0.00000E+00 3.74776E-08
7.61557E-13 2.29857E-08
1.18994E-12 1.82976E-08
1.71346E-12 1.43935E-08
2.33225E-12 1.12511E-08
3.04617E-12 8.88792E-09
3.85530E-12 7.08603E-09
4.75964E-12 5.72619E-09
5.75917E-12 4.71575E-09
6.85391E-12 3.93365E-09
8.04379E-12 3.32201E-09
9.32893E-12 2.83762E-09
1.07092E-11 2.44404E-09
1.21847E-11 2.12054E-09
1.37554E-11 1.85134E-09
1.54213E-11 1.62130E-09
1.71823E-11 1.42592E-09
1.90386E-11 1.25885E-09
2.09900E-11 1.11268E-09
2.30367E-11 9.85787E-10
2.51785E-11 8.75743E-10
2.74156E-11 7.79177E-10
2.97478E-11 6.94008E-10
3.21752E-11 6.19646E-10
3.46979E-11 5.54466E-10
3.73157E-11 4.96454E-10
4.00286E-11 4.45549E-10
4.28368E-11 4.00739E-10
4.57402E-11 3.60965E-10
4.87388E-11 3.25778E-10
5.18325E-11 2.94694E-10
5.50215E-11 2.67110E-10
5.83057E-11 2.42542E-10
6.16850E-11 2.20732E-10
6.51595E-11 2.01320E-10
6.87293E-11 1.83947E-10
7.23943E-11 1.68432E-10
7.61544E-11 1.54549E-10
1.18991E-10 7.24364E-11
1.71347E-10 3.94371E-11
2.33223E-10 2.37183E-11
3.04617E-10 1.52062E-11
3.85531E-10 1.01675E-11
4.75965E-10 7.02086E-12
5.75917E-10 4.97915E-12
6.85389E-10 3.61330E-12
8.04380E-10 2.67579E-12
9.32891E-10 2.01882E-12
1.07092E-09 1.54951E-12
1.21847E-09 1.20797E-12
1.37554E-09 9.55133E-13
1.54213E-09 7.65012E-13
1.71823E-09 6.19988E-13
1.90386E-09 5.07859E-13
2.09900E-09 4.20074E-13
2.30367E-09 3.50553E-13
2.51785E-09 2.94918E-13
2.74156E-09 2.49959E-13
2.97478E-09 2.13300E-13
3.21752E-09 1.83155E-13
3.46978E-09 1.58181E-13
3.73156E-09 1.37343E-13
4.00286E-09 1.19841E-13
4.28368E-09 1.05049E-13
4.57402E-09 9.24772E-14
4.87388E-09 8.17366E-14
5.18326E-09 7.25144E-14
5.50215E-09 6.45583E-14
5.83057E-09 5.76651E-14
6.16850E-09 5.16685E-14
6.51596E-09 4.64318E-14
6.87293E-09 4.18417E-14
7.23942E-09 3.78045E-14
7.61544E-09 3.42423E-14
1.18991E-08 1.42665E-14
1.71347E-08 6.94612E-15
2.33223E-08 3.77015E-15
3.04617E-08 2.21737E-15
3.85531E-08 1.38720E-15
4.75965E-08 9.11384E-16
5.75917E-08 6.23064E-16
6.85389E-08 4.40210E-16
8.04380E-08 3.19752E-16
9.32891E-08 2.37807E-16
1.07092E-07 1.80503E-16
1.21847E-07 1.39462E-16
1.37554E-07 1.09449E-16
1.54213E-07 8.70908E-17
1.71823E-07 7.01607E-17
1.90386E-07 5.71513E-17
2.09900E-07 4.70220E-17
2.30367E-07 3.90387E-17
2.51785E-07 3.26798E-17
2.74156E-07 2.75646E-17
2.97478E-07 2.34121E-17
3.21752E-07 2.00130E-17
3.46978E-07 1.72090E-17
3.73156E-07 1.48793E-17
4.00286E-07 1.29309E-17
4.28368E-07 1.12912E-17
4.57402E-07 9.90334E-18
4.87388E-07 8.72234E-18
5.18325E-07 7.71226E-18
5.50215E-07 6.84425E-18
5.83057E-07 6.09500E-18
6.16850E-07 5.44553E-18
6.51596E-07 4.88031E-18
6.87293E-07 4.38656E-18
7.23942E-07 3.95371E-18
7.61543E-07 3.57295E-18
1.18991E-06 1.46362E-18
1.71347E-06 7.05903E-19
2.33223E-06 3.81065E-19
3.04617E-06 2.23394E-19
3.85531E-06 1.39477E-19
4.75964E-06 9.15193E-20
5.75916E-06 6.25148E-20
6.85388E-06 4.41437E-20
8.04378E-06 3.20524E-20
9.32888E-06 2.38321E-20
1.07092E-05 1.80863E-20
1.21846E-05 1.39726E-20
1.37553E-05 1.09648E-20
1.54212E-05 8.72463E-21
1.71822E-05 7.02851E-21
1.90385E-05 5.72485E-21
2.09899E-05 4.71060E-21
2.30365E-05 3.91137E-21
2.51783E-05 3.27463E-21
2.74153E-05 2.76229E-21
2.97475E-05 2.34630E-21
3.21749E-05 2.00575E-21
3.46974E-05 1.72482E-21
3.73152E-05 1.49142E-21
4.00281E-05 1.29623E-21
4.28362E-05 1.13198E-21
4.57395E-05 9.92948E-22
4.87380E-05 8.74624E-22
5.18317E-05 7.73410E-22
5.50205E-05 6.86419E-22
5.83045E-05 6.11320E-22
6.16838E-05 5.46218E-22
6.51582E-05 4.89560E-22
6.87277E-05 4.40066E-22
7.23925E-05 3.96677E-22
7.61524E-05 3.48937E-22
9.21439E-05 2.36939E-22
1.09658E-04 1.66202E-22
1.28695E-04 1.19803E-22
1.49255E-04 8.83696E-23
1.71338E-04 6.64873E-23
1.94942E-04 5.08884E-23
2.20070E-04 3.95369E-23
2.46720E-04 3.11256E-23
2.74892E-04 2.47916E-23
3.04586E-04 1.99535E-23
3.35803E-04 1.62101E-23
3.68542E-04 1.32801E-23
4.02802E-04 1.09626E-23
4.38585E-04 9.11203E-24
4.75889E-04 7.62151E-24
5.14715E-04 6.41136E-24
5.55063E-04 5.42168E-24
5.96931E-04 4.60685E-24
6.40321E-04 3.93180E-24
6.85233E-04 3.36935E-24
7.31665E-04 2.89822E-24
7.79618E-04 2.50163E-24
8.29092E-04 2.16626E-24
8.80086E-04 1.88144E-24
9.32601E-04 1.63858E-24
9.86636E-04 1.43074E-24
1.04219E-03 1.25223E-24
1.09927E-03 1.09843E-24
1.15786E-03 9.65499E-25
1.21797E-03 8.50284E-25
1.27961E-03 7.50152E-25
1.34276E-03 6.62911E-25
1.40743E-03 5.86718E-25
1.47362E-03 5.20028E-25
1.54133E-03 4.61532E-25
1.61056E-03 4.10123E-25
1.68131E-03 3.64858E-25
1.75357E-03 3.24933E-25
1.82735E-03 2.89662E-25
1.90265E-03 2.58454E-25
1.97947E-03 2.30800E-25
2.05780E-03 2.06263E-25
2.13765E-03 1.84464E-25
2.21902E-03 1.65075E-25
2.30190E-03 1.47809E-25
2.38630E-03 1.32419E-25
2.47222E-03 1.18686E-25
2.55965E-03 1.06422E-25
2.64859E-03 9.54609E-26
2.73905E-03 8.56556E-26
2.83103E-03 7.68782E-26
2.92452E-03 6.90159E-26
3.01952E-03 6.19688E-26
3.11604E-03 5.56490E-26
3.21407E-03 4.99785E-26
3.31362E-03 4.48883E-26
3.41468E-03 4.03170E-26
3.51725E-03 3.62104E-26
3.62133E-03 3.25199E-26
3.72692E-03 2.92026E-26
3.83403E-03 2.62199E-26
3.94265E-03 2.35377E-26
4.05278E-03 2.11252E-26
4.16442E-03 1.89552E-26
4.27757E-03 1.70031E-26
4.39223E-03 1.52471E-26
4.50840E-03 1.36673E-26
4.62608E-03 1.22463E-26
4.74527E-03 1.09682E-26
4.86597E-03 9.81869E-27
4.98817E-03 8.78509E-27
5.11188E-03 7.85588E-27
5.23711E-03 7.02072E-27
5.36383E-03 6.27031E-27
5.49207E-03 5.59627E-27
5.62181E-03 4.99104E-27
5.75306E-03 4.44782E-27
5.88581E-03 3.96047E-27
6.02007E-03 3.52347E-27
6.15583E-03 3.13182E-27
6.29310E-03 2.78101E-27
6.43187E-03 2.46699E-27
6.57214E-03 2.18607E-27
6.71392E-03 1.93496E-27
6.85720E-03 1.71067E-27
7.00198E-03 1.51049E-27
7.14827E-03 1.33199E-27
7.29605E-03 1.17297E-27
7.44534E-03 1.03145E-27
7.59612E-03 9.05631E-28
7.97965E-03 6.49576E-28
8.37255E-03 4.60777E-28
8.77480E-03 3.22846E-28
9.18641E-03 2.23165E-28
9.60736E-03 1.52044E-28
1.00376E-02 1.02074E-28
1.04773E-02 6.76138E-29
1.09262E-02 4.43936E-29
1.13844E-02 2.92017E-29
1.18520E-02 1.96429E-29
1.23288E-02 1.39478E-29
1.28150E-02 1.08249E-29
1.33104E-02 9.34507E-30
1.38150E-02 8.85195E-30
1.43290E-02 8.89285E-30
1.48521E-02 9.16527E-30
1.53845E-02 9.47608E-30
1.59262E-02 9.71043E-30
1.64770E-02 9.80820E-30
1.70371E-02 9.74652E-30
1.76063E-02 9.52673E-30
1.81848E-02 9.16498E-30
1.87724E-02 8.68546E-30
1.93692E-02 8.11571E-30
1.99751E-02 7.48351E-30
2.05901E-02 6.81479E-30
2.12143E-02 6.13250E-30
2.18476E-02 5.45602E-30
2.24900E-02 4.80099E-30
2.31415E-02 4.17939E-30
2.38021E-02 3.59985E-30
2.44717E-02 3.06803E-30
2.51504E-02 2.58705E-30
2.58382E-02 2.15791E-30
2.65349E-02 1.77996E-30
2.72407E-02 1.45124E-30
2.79555E-02 1.16885E-30
2.86793E-02 9.29241E-31
2.94120E-02 7.28492E-31
3.01537E-02 5.62491E-31
3.09043E-02 4.27115E-31
3.16639E-02 3.18352E-31
3.24324E-02 2.32396E-31
3.32098E-02 1.65715E-31
3.39961E-02 1.15087E-31
3.47912E-02 7.76269E-32
3.55952E-02 5.07886E-32
3.64081E-02 3.23607E-32
3.72297E-02 2.04509E-32
3.80602E-02 1.34652E-32
3.88995E-02 1.00820E-32
3.97476E-02 9.22448E-33
4.06044E-02 1.00321E-32
4.14700E-02 1.18322E-32
4.23443E-02 1.41130E-32
4.32273E-02 1.64979E-32
4.41190E-02 1.87218E-32
4.50194E-02 2.06104E-32
4.59284E-02 2.20616E-32
4.68461E-02 2.30286E-32
4.87074E-02 2.35204E-32
5.06030E-02 2.23509E-32
5.25328E-02 1.99986E-32
5.44967E-02 1.69769E-32
5.64946E-02 1.37342E-32
5.85262E-02 1.06098E-32
6.05914E-02 7.82572E-33
6.26901E-02 5.49877E-33
6.48222E-02 3.66301E-33
6.69873E-02 2.29440E-33
6.91854E-02 1.33355E-33
7.14163E-02 7.04416E-34
7.36799E-02 3.28005E-34
7.59760E-02 1.31472E-34
7.83043E-02 5.31737E-35
8.06647E-02 4.46707E-35
8.30571E-02 7.05826E-35
8.54812E-02 1.07123E-34
8.79369E-02 1.39968E-34
9.04240E-02 1.61949E-34
9.29422E-02 1.70876E-34
9.54915E-02 1.67682E-34
9.80716E-02 1.54965E-34
1.00682E-01 1.35932E-34
1.03323E-01 1.13694E-34
1.05995E-01 9.08725E-35
1.08696E-01 6.94146E-35
1.11427E-01 5.05769E-35
1.14188E-01 3.49990E-35
1.16978E-01 2.28292E-35
1.19797E-01 1.38653E-35
1.22645E-01 7.68750E-36
1.25522E-01 3.77064E-36
1.28428E-01 1.56969E-36
1.31361E-01 5.78716E-37
1.34323E-01 3.65743E-37
1.37313E-01 5.88330E-37
1.40330E-01 9.94809E-37
1.43375E-01 1.41613E-36
1.46447E-01 1.75232E-36
1.49545E-01 1.95677E-36
1.52671E-01 2.02084E-36
1.55823E-01 1.96001E-36
1.59001E-01 1.80269E-36
1.62205E-01 1.58166E-36
1.65435E-01 1.32836E-36
1.68690E-01 1.06935E-36
1.71970E-01 8.24788E-37
1.75276E-01 6.08094E-37
1.78606E-01 4.26591E-37
1.81961E-01 2.82566E-37
1.85340E-01 1.74555E-37
1.88743E-01 9.85911E-38
1.92169E-01 4.93054E-38
1.95619E-01 2.08442E-38
1.99092E-01 1.00000E-45
2.02589E-01 1.00000E-45
2.06107E-01 1.00000E-45
2.09649E-01 1.00000E-45
2.13212E-01 1.00000E-45
2.16797E-01 1.00000E-45
2.20404E-01 1.00000E-45
2.24032E-01 1.00000E-45
2.27680E-01 1.00000E-45
2.31350E-01 1.00000E-45
2.35040E-01 1.00000E-45
2.38751E-01 1.00000E-45
2.42481E-01 1.00000E-45
2.46231E-01 1.00000E-45
2.50000E-01 1.00000E-45
2.53788E-01 1.00000E-45
2.57595E-01 1.00000E-45
2.61421E-01 1.00000E-45
2.65264E-01 1.00000E-45
2.69126E-01 1.00000E-45
2.73005E-01 1.00000E-45
2.76901E-01 1.00000E-45
2.80814E-01 1.00000E-45
2.84744E-01 1.00000E-45
2.88691E-01 1.00000E-45
2.92653E-01 1.00000E-45
2.96632E-01 1.00000E-45
3.00625E-01 1.00000E-45
3.04634E-01 1.00000E-45
3.08658E-01 1.00000E-45
3.12697E-01 1.00000E-45
3.16749E-01 1.00000E-45
3.20816E-01 1.00000E-45
3.24896E-01 1.00000E-45
3.28990E-01 1.00000E-45
3.33097E-01 1.00000E-45
3.37216E-01 1.00000E-45
3.41348E-01 1.00000E-45
3.45492E-01 1.00000E-45
3.49647E-01 1.00000E-45
3.53814E-01 1.00000E-45
3.57992E-01 1.00000E-45
3.62181E-01 1.00000E-45
3.66381E-01 1.00000E-45
3.70590E-01 1.00000E-45
3.74810E-01 1.00000E-45
3.79039E-01 1.00000E-45
3.83277E-01 1.00000E-45
3.87524E-01 1.00000E-45
3.91780E-01 1.00000E-45
3.96044E-01 1.00000E-45
4.00316E-01 1.00000E-45
4.04596E-01 1.00000E-45
4.08882E-01 1.00000E-45
4.13176E-01 1.00000E-45
4.17476E-01 1.00000E-45
4.21783E-01 1.00000E-45
4.26095E-01 1.00000E-45
4.30413E-01 1.00000E-45
4.34737E-01 1.00000E-45
4.39065E-01 1.00000E-45
4.43398E-01 1.00000E-45
4.47736E-01 1.00000E-45
4.52077E-01 1.00000E-45
4.56422E-01 1.00000E-45
4.60770E-01 1.00000E-45
4.65122E-01 1.00000E-45
4.69476E-01 1.00000E-45
4.73832E-01 1.00000E-45
4.78190E-01 1.00000E-45
4.82550E-01 1.00000E-45
4.86912E-01 1.00000E-45
4.91274E-01 1.00000E-45
4.95637E-01 1.00000E-45
5.00000E-01 1.00000E-45
5.04363E-01 1.00000E-45
5.08726E-01 1.00000E-45
5.13088E-01 1.00000E-45
5.17450E-01 1.00000E-45
5.21810E-01 1.00000E-45
5.26168E-01 1.00000E-45
5.30524E-01 1.00000E-45
5.34878E-01 1.00000E-45
5.39230E-01 1.00000E-45
5.43578E-01 1.00000E-45
5.47923E-01 1.00000E-45
5.52264E-01 1.00000E-45
5.56602E-01 1.00000E-45
5.60935E-01 1.00000E-45
5.65263E-01 1.00000E-45
5.69587E-01 1.00000E-45
5.73905E-01 1.00000E-45
5.78217E-01 1.00000E-45
5.82524E-01 1.00000E-45
5.86824E-01 1.00000E-45
5.91118E-01 1.00000E-45
5.95404E-01 1.00000E-45
5.99684E-01 1.00000E-45
6.03956E-01 1.00000E-45
6.08220E-01 1.00000E-45
6.12476E-01 1.00000E-45
6.16723E-01 1.00000E-45
6.20961E-01 1.00000E-45
6.25190E-01 1.00000E-45
6.29410E-01 1.00000E-45
6.33619E-01 1.00000E-45
6.37819E-01 1.00000E-45
6.42008E-01 1.00000E-45
6.46186E-01 1.00000E-45
6.50353E-01 1.00000E-45
6.54508E-01 1.00000E-45
6.58652E-01 1.00000E-45
6.62784E-01 1.00000E-45
6.66903E-01 1.00000E-45
6.71010E-01 1.00000E-45
6.75104E-01 1.00000E-45
6.79184E-01 1.00000E-45
6.83251E-01 1.00000E-45
6.87303E-01 1.00000E-45
6.91342E-01 1.00000E-45
6.95366E-01 1.00000E-45
6.99375E-01 1.00000E-45
7.03368E-01 1.00000E-45
7.07347E-01 1.00000E-45
7.11309E-01 1.00000E-45
7.15256E-01 1.00000E-45
7.19186E-01 1.00000E-45
7.23099E-01 1.00000E-45
7.26995E-01 1.00000E-45
7.30874E-01 1.00000E-45
7.34736E-01 1.00000E-45
7.38579E-01 1.00000E-45
7.42405E-01 1.00000E-45
7.46212E-01 1.00000E-45
7.50000E-01 1.00000E-45
7.53769E-01 1.00000E-45
7.57519E-01 1.00000E-45
7.61249E-01 1.00000E-45
7.64960E-01 1.00000E-45
7.68650E-01 1.00000E-45
7.72320E-01 1.00000E-45
7.75968E-01 1.00000E-45
7.79596E-01 1.00000E-45
7.83203E-01 1.00000E-45
7.86788E-01 1.00000E-45
7.90351E-01 1.00000E-45
7.93893E-01 1.00000E-45
7.97411E-01 1.00000E-45
8.00908E-01 1.00000E-45
8.04381E-01 1.00000E-45
8.07831E-01 1.00000E-45
8.11257E-01 1.00000E-45
8.14660E-01 1.00000E-45
8.18039E-01 1.00000E-45
8.21394E-01 1.00000E-45
8.24724E-01 1.00000E-45
8.28030E-01 1.00000E-45
8.31310E-01 1.00000E-45
8.34565E-01 1.00000E-45
8.37795E-01 1.00000E-45
8.40999E-01 1.00000E-45
8.44177E-01 1.00000E-45
8.47329E-01 1.00000E-45
8.50455E-01 1.00000E-45
8.53553E-01 1.00000E-45
8.56625E-01 1.00000E-45
8.59670E-01 1.00000E-45
8.62687E-01 1.00000E-45
8.65677E-01 1.00000E-45
8.68639E-01 1.00000E-45
8.71572E-01 1.00000E-45
8.74478E-01 1.00000E-45
8.77355E-01 1.00000E-45
8.80203E-01 1.00000E-45
8.83022E-01 1.00000E-45
8.85812E-01 1.00000E-45
8.88573E-01 1.00000E-45
8.91304E-01 1.00000E-45
8.94005E-01 1.00000E-45
8.96677E-01 1.00000E-45
8.99318E-01 1.00000E-45
9.01928E-01 1.00000E-45
9.04508E-01 1.00000E-45
9.07058E-01 1.00000E-45
9.09576E-01 1.00000E-45
9.12063E-01 1.00000E-45
9.14519E-01 1.00000E-45
9.16943E-01 1.00000E-45
9.19335E-01 1.00000E-45
9.21696E-01 1.00000E-45
9.24024E-01 1.00000E-45
9.26320E-01 1.00000E-45
9.28584E-01 1.00000E-45
9.30815E-01 1.00000E-45
9.33013E-01 1.00000E-45
9.35178E-01 1.00000E-45
9.37310E-01 1.00000E-45
9.39409E-01 1.00000E-45
9.41474E-01 1.00000E-45
9.43505E-01 1.00000E-45
9.45503E-01 1.00000E-45
9.47467E-01 1.00000E-45
9.49397E-01 1.00000E-45
9.51293E-01 1.00000E-45
9.53154E-01 1.00000E-45
9.54981E-01 1.00000E-45
9.56773E-01 1.00000E-45
9.58530E-01 1.00000E-45
9.60252E-01 1.00000E-45
9.61940E-01 1.00000E-45
9.63592E-01 1.00000E-45
9.65209E-01 1.00000E-45
9.66790E-01 1.00000E-45
9.68336E-01 1.00000E-45
9.69846E-01 1.00000E-45
9.71321E-01 1.00000E-45
9.72759E-01 1.00000E-45
9.74162E-01 1.00000E-45
9.75528E-01 1.00000E-45
9.76858E-01 1.00000E-45
9.78152E-01 1.00000E-45
9.79410E-01 1.00000E-45
9.80631E-01 1.00000E-45
9.81815E-01 1.00000E-45
9.82963E-01 1.00000E-45
9.84074E-01 1.00000E-45
9.85148E-01 1.00000E-45
9.86185E-01 1.00000E-45
9.87185E-01 1.00000E-45
9.88148E-01 1.00000E-45
9.89074E-01 1.00000E-45
9.89962E-01 1.00000E-45
9.90814E-01 1.00000E-45
9.91627E-01 1.00000E-45
9.92404E-01 1.00000E-45
9.93143E-01 1.00000E-45
9.93844E-01 1.00000E-45
9.94508E-01 1.00000E-45
9.95134E-01 1.00000E-45
9.95722E-01 1.00000E-45
9.96273E-01 1.00000E-45
9.96786E-01 1.00000E-45
9.97261E-01 1.00000E-45
9.97698E-01 1.00000E-45
9.98097E-01 1.00000E-45
9.98459E-01 1.00000E-45
9.98782E-01 1.00000E-45
9.99067E-01 1.00000E-45
9.99315E-01 1.00000E-45
9.99524E-01 1.00000E-45
9.99695E-01 1.00000E-45
9.99829E-01 1.00000E-45
9.99924E-01 1.00000E-45
9.99981E-01 1.00000E-45
1.00000E+00 1.00000E-45
