 #
 # Subroutine ELSEPA. Elastic scattering of electrons and positrons
 #                    by neutral atoms and positive ions
 #
 # Projectile: electron
 # Kinetic energy = 9.00000E+07 eV = 3.30744E+06 a.u.
 #
 # WARNING: High-energy factorization with free-atom DF screening.
 #          Absorption, polarization and exchange corrections are
 #          switched off.
 #          Phase shifts are calculated for the bare nucleus.
 #          Scattering amplitudes are not evaluated.
 #
 # Element: Ca,  Z =  20,  atomic weight = 4.00780E+01 g/mol
 #
 # Nuclear model: Fermi distribution
 #                Average radius = 3.66173E-13 cm
 #                Skin thickness = 5.46000E-14 cm
 #
 # Number of electrons = 20
 #
 # Total elastic cross section = 1.81157E-18 cm**2 = 6.46923E-02 a0**2
 # 1st transport cross section = 1.02831E-25 cm**2 = 3.67218E-09 a0**2
 # 2nd transport cross section = 3.04569E-25 cm**2 = 1.08764E-08 a0**2
 #
 #
 # Differential cross section:                       MU=(1-COS(THETA))/2
 #
 #  THETA        MU          DCS          DCS        Sherman      error
 #  (deg)                 (cm**2/sr)   (a0**2/sr)    function
 #----------------------------------------------------------------------
0.00000E+00 3.06712E-10
7.61557E-13 3.05327E-10
1.18994E-12 3.04553E-10
1.71346E-12 3.03612E-10
2.33225E-12 3.02506E-10
3.04617E-12 3.01237E-10
3.85530E-12 2.99808E-10
4.75964E-12 2.98224E-10
5.75917E-12 2.96486E-10
6.85391E-12 2.94601E-10
8.04379E-12 2.92571E-10
9.32893E-12 2.90402E-10
1.07092E-11 2.88099E-10
1.21847E-11 2.85666E-10
1.37554E-11 2.83109E-10
1.54213E-11 2.80435E-10
1.71823E-11 2.77646E-10
1.90386E-11 2.74753E-10
2.09900E-11 2.71759E-10
2.30367E-11 2.68668E-10
2.51785E-11 2.65492E-10
2.74156E-11 2.62232E-10
2.97478E-11 2.58895E-10
3.21752E-11 2.55491E-10
3.46979E-11 2.52021E-10
3.73157E-11 2.48495E-10
4.00286E-11 2.44919E-10
4.28368E-11 2.41294E-10
4.57402E-11 2.37634E-10
4.87388E-11 2.33940E-10
5.18325E-11 2.30214E-10
5.50215E-11 2.26473E-10
5.83057E-11 2.22711E-10
6.16850E-11 2.18937E-10
6.51595E-11 2.15161E-10
6.87293E-11 2.11379E-10
7.23943E-11 2.07601E-10
7.61544E-11 2.03834E-10
1.18991E-10 1.67397E-10
1.71347E-10 1.35123E-10
2.33223E-10 1.08692E-10
3.04617E-10 8.69588E-11
3.85531E-10 7.03519E-11
4.75965E-10 5.74148E-11
5.75917E-10 4.73194E-11
6.85389E-10 3.96728E-11
8.04380E-10 3.35736E-11
9.32891E-10 2.87312E-11
1.07092E-09 2.48252E-11
1.21847E-09 2.16141E-11
1.37554E-09 1.89452E-11
1.54213E-09 1.66850E-11
1.71823E-09 1.47725E-11
1.90386E-09 1.31116E-11
2.09900E-09 1.16738E-11
2.30367E-09 1.04319E-11
2.51785E-09 9.32128E-12
2.74156E-09 8.35421E-12
2.97478E-09 7.50228E-12
3.21752E-09 6.73944E-12
3.46978E-09 6.06964E-12
3.73156E-09 5.47194E-12
4.00286E-09 4.93869E-12
4.28368E-09 4.46746E-12
4.57402E-09 4.04389E-12
4.87388E-09 3.66679E-12
5.18326E-09 3.33160E-12
5.50215E-09 3.02895E-12
5.83057E-09 2.75969E-12
6.16850E-09 2.51869E-12
6.51596E-09 2.30169E-12
6.87293E-09 2.10762E-12
7.23942E-09 1.93292E-12
7.61544E-09 1.77558E-12
1.18991E-08 8.32172E-13
1.71347E-08 4.50337E-13
2.33223E-08 2.70268E-13
3.04617E-08 1.73862E-13
3.85531E-08 1.17223E-13
4.75965E-08 8.17659E-14
5.75917E-08 5.84763E-14
6.85389E-08 4.27753E-14
8.04380E-08 3.18709E-14
9.32891E-08 2.41658E-14
1.07092E-07 1.86147E-14
1.21847E-07 1.45462E-14
1.37554E-07 1.15217E-14
1.54213E-07 9.23768E-15
1.71823E-07 7.49116E-15
1.90386E-07 6.13816E-15
2.09900E-07 5.07761E-15
2.30367E-07 4.23731E-15
2.51785E-07 3.56447E-15
2.74156E-07 3.02076E-15
2.97478E-07 2.57744E-15
3.21752E-07 2.21301E-15
3.46978E-07 1.91118E-15
3.73156E-07 1.65936E-15
4.00286E-07 1.44793E-15
4.28368E-07 1.26929E-15
4.57402E-07 1.11751E-15
4.87388E-07 9.87853E-16
5.18325E-07 8.76525E-16
5.50215E-07 7.80509E-16
5.83057E-07 6.97318E-16
6.16850E-07 6.24947E-16
6.51596E-07 5.61746E-16
6.87293E-07 5.06341E-16
7.23942E-07 4.57613E-16
7.61543E-07 4.14606E-16
1.18991E-06 1.73209E-16
1.71347E-06 8.45173E-17
2.33223E-06 4.59434E-17
3.04617E-06 2.70498E-17
3.85531E-06 1.69349E-17
4.75964E-06 1.11321E-17
5.75916E-06 7.61340E-18
6.85388E-06 5.38069E-18
8.04378E-06 3.90929E-18
9.32888E-06 2.90801E-18
1.07092E-05 2.20766E-18
1.21846E-05 1.70596E-18
1.37553E-05 1.33901E-18
1.54212E-05 1.06561E-18
1.71822E-05 8.58560E-19
1.90385E-05 6.99386E-19
2.09899E-05 5.75528E-19
2.30365E-05 4.77914E-19
2.51783E-05 4.00138E-19
2.74153E-05 3.37539E-19
2.97475E-05 2.86708E-19
3.21749E-05 2.45094E-19
3.46974E-05 2.10766E-19
3.73152E-05 1.82246E-19
4.00281E-05 1.58395E-19
4.28362E-05 1.38324E-19
4.57395E-05 1.21335E-19
4.87380E-05 1.06877E-19
5.18317E-05 9.45085E-20
5.50205E-05 8.38785E-20
5.83045E-05 7.47018E-20
6.16838E-05 6.67465E-20
6.51582E-05 5.98231E-20
6.87277E-05 5.37751E-20
7.23925E-05 4.84730E-20
7.61524E-05 4.38034E-20
9.21439E-05 2.99290E-20
1.09658E-04 2.11386E-20
1.28695E-04 1.53525E-20
1.49255E-04 1.14177E-20
1.71338E-04 8.66694E-21
1.94942E-04 6.69712E-21
2.20070E-04 5.25660E-21
2.46720E-04 4.18354E-21
2.74892E-04 3.37091E-21
3.04586E-04 2.74643E-21
3.35803E-04 2.26014E-21
3.68542E-04 1.87691E-21
4.02802E-04 1.57160E-21
4.38585E-04 1.32593E-21
4.75889E-04 1.12647E-21
5.14715E-04 9.63155E-22
5.55063E-04 8.28404E-22
5.96931E-04 7.16422E-22
6.40321E-04 6.22745E-22
6.85233E-04 5.43897E-22
7.31665E-04 4.77144E-22
7.79618E-04 4.20329E-22
8.29092E-04 3.71726E-22
8.80086E-04 3.29952E-22
9.32601E-04 2.93885E-22
9.86636E-04 2.62616E-22
1.04219E-03 2.35398E-22
1.09927E-03 2.11616E-22
1.15786E-03 1.90764E-22
1.21797E-03 1.72419E-22
1.27961E-03 1.56227E-22
1.34276E-03 1.41891E-22
1.40743E-03 1.29163E-22
1.47362E-03 1.17831E-22
1.54133E-03 1.07714E-22
1.61056E-03 9.86604E-23
1.68131E-03 9.05379E-23
1.75357E-03 8.32341E-23
1.82735E-03 7.66520E-23
1.90265E-03 7.07076E-23
1.97947E-03 6.53282E-23
2.05780E-03 6.04505E-23
2.13765E-03 5.60194E-23
2.21902E-03 5.19868E-23
2.30190E-03 4.83103E-23
2.38630E-03 4.49529E-23
2.47222E-03 4.18820E-23
2.55965E-03 3.90686E-23
2.64859E-03 3.64873E-23
2.73905E-03 3.41155E-23
2.83103E-03 3.19331E-23
2.92452E-03 2.99223E-23
3.01952E-03 2.80671E-23
3.11604E-03 2.63532E-23
3.21407E-03 2.47680E-23
3.31362E-03 2.33001E-23
3.41468E-03 2.19391E-23
3.51725E-03 2.06759E-23
3.62133E-03 1.95021E-23
3.72692E-03 1.84103E-23
3.83403E-03 1.73937E-23
3.94265E-03 1.64461E-23
4.05278E-03 1.55621E-23
4.16442E-03 1.47365E-23
4.27757E-03 1.39649E-23
4.39223E-03 1.32429E-23
4.50840E-03 1.25669E-23
4.62608E-03 1.19334E-23
4.74527E-03 1.13391E-23
4.86597E-03 1.07813E-23
4.98817E-03 1.02573E-23
5.11188E-03 9.76457E-24
5.23711E-03 9.30101E-24
5.36383E-03 8.86453E-24
5.49207E-03 8.45327E-24
5.62181E-03 8.06549E-24
5.75306E-03 7.69961E-24
5.88581E-03 7.35416E-24
6.02007E-03 7.02778E-24
6.15583E-03 6.71923E-24
6.29310E-03 6.42736E-24
6.43187E-03 6.15108E-24
6.57214E-03 5.88943E-24
6.71392E-03 5.64147E-24
6.85720E-03 5.40635E-24
7.00198E-03 5.18330E-24
7.14827E-03 4.97157E-24
7.29605E-03 4.77048E-24
7.44534E-03 4.57939E-24
7.59612E-03 4.39773E-24
7.97965E-03 3.98123E-24
8.37255E-03 3.61260E-24
8.77480E-03 3.28540E-24
9.18641E-03 2.99416E-24
9.60736E-03 2.73427E-24
1.00376E-02 2.50175E-24
1.04773E-02 2.29324E-24
1.09262E-02 2.10581E-24
1.13844E-02 1.93698E-24
1.18520E-02 1.78457E-24
1.23288E-02 1.64672E-24
1.28150E-02 1.52178E-24
1.33104E-02 1.40834E-24
1.38150E-02 1.30515E-24
1.43290E-02 1.21113E-24
1.48521E-02 1.12532E-24
1.53845E-02 1.04687E-24
1.59262E-02 9.75050E-25
1.64770E-02 9.09195E-25
1.70371E-02 8.48725E-25
1.76063E-02 7.93121E-25
1.81848E-02 7.41924E-25
1.87724E-02 6.94723E-25
1.93692E-02 6.51152E-25
1.99751E-02 6.10882E-25
2.05901E-02 5.73619E-25
2.12143E-02 5.39100E-25
2.18476E-02 5.07088E-25
2.24900E-02 4.77367E-25
2.31415E-02 4.49746E-25
2.38021E-02 4.24051E-25
2.44717E-02 4.00123E-25
2.51504E-02 3.77820E-25
2.58382E-02 3.57012E-25
2.65349E-02 3.37581E-25
2.72407E-02 3.19421E-25
2.79555E-02 3.02434E-25
2.86793E-02 2.86530E-25
2.94120E-02 2.71630E-25
3.01537E-02 2.57658E-25
3.09043E-02 2.44547E-25
3.16639E-02 2.32234E-25
3.24324E-02 2.20663E-25
3.32098E-02 2.09781E-25
3.39961E-02 1.99539E-25
3.47912E-02 1.89895E-25
3.55952E-02 1.80807E-25
3.64081E-02 1.72237E-25
3.72297E-02 1.64151E-25
3.80602E-02 1.56516E-25
3.88995E-02 1.49304E-25
3.97476E-02 1.42487E-25
4.06044E-02 1.36040E-25
4.14700E-02 1.29938E-25
4.23443E-02 1.24162E-25
4.32273E-02 1.18689E-25
4.41190E-02 1.13502E-25
4.50194E-02 1.08583E-25
4.59284E-02 1.03917E-25
4.68461E-02 9.94868E-26
4.87074E-02 9.12825E-26
5.06030E-02 8.38694E-26
5.25328E-02 7.71593E-26
5.44967E-02 7.10751E-26
5.64946E-02 6.55495E-26
5.85262E-02 6.05232E-26
6.05914E-02 5.59442E-26
6.26901E-02 5.17667E-26
6.48222E-02 4.79502E-26
6.69873E-02 4.44586E-26
6.91854E-02 4.12603E-26
7.14163E-02 3.83269E-26
7.36799E-02 3.56332E-26
7.59760E-02 3.31568E-26
7.83043E-02 3.08775E-26
8.06647E-02 2.87775E-26
8.30571E-02 2.68405E-26
8.54812E-02 2.50522E-26
8.79369E-02 2.33995E-26
9.04240E-02 2.18706E-26
9.29422E-02 2.04550E-26
9.54915E-02 1.91432E-26
9.80716E-02 1.79264E-26
1.00682E-01 1.67969E-26
1.03323E-01 1.57475E-26
1.05995E-01 1.47719E-26
1.08696E-01 1.38641E-26
1.11427E-01 1.30189E-26
1.14188E-01 1.22313E-26
1.16978E-01 1.14969E-26
1.19797E-01 1.08116E-26
1.22645E-01 1.01718E-26
1.25522E-01 9.57410E-27
1.28428E-01 9.01535E-27
1.31361E-01 8.49270E-27
1.34323E-01 8.00355E-27
1.37313E-01 7.54550E-27
1.40330E-01 7.11633E-27
1.43375E-01 6.71402E-27
1.46447E-01 6.33668E-27
1.49545E-01 5.98260E-27
1.52671E-01 5.65018E-27
1.55823E-01 5.33795E-27
1.59001E-01 5.04455E-27
1.62205E-01 4.76872E-27
1.65435E-01 4.50929E-27
1.68690E-01 4.26520E-27
1.71970E-01 4.03544E-27
1.75276E-01 3.81908E-27
1.78606E-01 3.61526E-27
1.81961E-01 3.42318E-27
1.85340E-01 3.24211E-27
1.88743E-01 3.07135E-27
1.92169E-01 2.91025E-27
1.95619E-01 2.75822E-27
1.99092E-01 2.61471E-27
2.02589E-01 2.47919E-27
2.06107E-01 2.35117E-27
2.09649E-01 2.23022E-27
2.13212E-01 2.11589E-27
2.16797E-01 2.00780E-27
2.20404E-01 1.90558E-27
2.24032E-01 1.80889E-27
2.27680E-01 1.71740E-27
2.31350E-01 1.63081E-27
2.35040E-01 1.54884E-27
2.38751E-01 1.47122E-27
2.42481E-01 1.39770E-27
2.46231E-01 1.32805E-27
2.50000E-01 1.26206E-27
2.53788E-01 1.19951E-27
2.57595E-01 1.14022E-27
2.61421E-01 1.08400E-27
2.65264E-01 1.03068E-27
2.69126E-01 9.80113E-28
2.73005E-01 9.32135E-28
2.76901E-01 8.86609E-28
2.80814E-01 8.43402E-28
2.84744E-01 8.02389E-28
2.88691E-01 7.63451E-28
2.92653E-01 7.26478E-28
2.96632E-01 6.91365E-28
3.00625E-01 6.58012E-28
3.04634E-01 6.26327E-28
3.08658E-01 5.96223E-28
3.12697E-01 5.67615E-28
3.16749E-01 5.40426E-28
3.20816E-01 5.14582E-28
3.24896E-01 4.90013E-28
3.28990E-01 4.66653E-28
3.33097E-01 4.44440E-28
3.37216E-01 4.23315E-28
3.41348E-01 4.03222E-28
3.45492E-01 3.84109E-28
3.49647E-01 3.65926E-28
3.53814E-01 3.48626E-28
3.57992E-01 3.32164E-28
3.62181E-01 3.16498E-28
3.66381E-01 3.01587E-28
3.70590E-01 2.87395E-28
3.74810E-01 2.73886E-28
3.79039E-01 2.61024E-28
3.83277E-01 2.48779E-28
3.87524E-01 2.37119E-28
3.91780E-01 2.26016E-28
3.96044E-01 2.15442E-28
4.00316E-01 2.05372E-28
4.04596E-01 1.95780E-28
4.08882E-01 1.86643E-28
4.13176E-01 1.77939E-28
4.17476E-01 1.69647E-28
4.21783E-01 1.61747E-28
4.26095E-01 1.54220E-28
4.30413E-01 1.47048E-28
4.34737E-01 1.40213E-28
4.39065E-01 1.33700E-28
4.43398E-01 1.27492E-28
4.47736E-01 1.21576E-28
4.52077E-01 1.15937E-28
4.56422E-01 1.10562E-28
4.60770E-01 1.05439E-28
4.65122E-01 1.00555E-28
4.69476E-01 9.58993E-29
4.73832E-01 9.14607E-29
4.78190E-01 8.72289E-29
4.82550E-01 8.31942E-29
4.86912E-01 7.93473E-29
4.91274E-01 7.56792E-29
4.95637E-01 7.21816E-29
5.00000E-01 6.88465E-29
5.04363E-01 6.56661E-29
5.08726E-01 6.26332E-29
5.13088E-01 5.97409E-29
5.17450E-01 5.69826E-29
5.21810E-01 5.43519E-29
5.26168E-01 5.18430E-29
5.30524E-01 4.94502E-29
5.34878E-01 4.71680E-29
5.39230E-01 4.49912E-29
5.43578E-01 4.29150E-29
5.47923E-01 4.09346E-29
5.52264E-01 3.90457E-29
5.56602E-01 3.72439E-29
5.60935E-01 3.55252E-29
5.65263E-01 3.38858E-29
5.69587E-01 3.23219E-29
5.73905E-01 3.08301E-29
5.78217E-01 2.94071E-29
5.82524E-01 2.80496E-29
5.86824E-01 2.67546E-29
5.91118E-01 2.55193E-29
5.95404E-01 2.43409E-29
5.99684E-01 2.32167E-29
6.03956E-01 2.21442E-29
6.08220E-01 2.11211E-29
6.12476E-01 2.01451E-29
6.16723E-01 1.92140E-29
6.20961E-01 1.83258E-29
6.25190E-01 1.74784E-29
6.29410E-01 1.66701E-29
6.33619E-01 1.58989E-29
6.37819E-01 1.51632E-29
6.42008E-01 1.44614E-29
6.46186E-01 1.37918E-29
6.50353E-01 1.31531E-29
6.54508E-01 1.25438E-29
6.58652E-01 1.19625E-29
6.62784E-01 1.14080E-29
6.66903E-01 1.08790E-29
6.71010E-01 1.03744E-29
6.75104E-01 9.89304E-30
6.79184E-01 9.43382E-30
6.83251E-01 8.99577E-30
6.87303E-01 8.57789E-30
6.91342E-01 8.17928E-30
6.95366E-01 7.79903E-30
6.99375E-01 7.43632E-30
7.03368E-01 7.09033E-30
7.07347E-01 6.76030E-30
7.11309E-01 6.44550E-30
7.15256E-01 6.14522E-30
7.19186E-01 5.85880E-30
7.23099E-01 5.58560E-30
7.26995E-01 5.32502E-30
7.30874E-01 5.07647E-30
7.34736E-01 4.83941E-30
7.38579E-01 4.61331E-30
7.42405E-01 4.39766E-30
7.46212E-01 4.19198E-30
7.50000E-01 3.99581E-30
7.53769E-01 3.80872E-30
7.57519E-01 3.63030E-30
7.61249E-01 3.46013E-30
7.64960E-01 3.29784E-30
7.68650E-01 3.14307E-30
7.72320E-01 2.99548E-30
7.75968E-01 2.85472E-30
7.79596E-01 2.72050E-30
7.83203E-01 2.59250E-30
7.86788E-01 2.47044E-30
7.90351E-01 2.35405E-30
7.93893E-01 2.24306E-30
7.97411E-01 2.13723E-30
8.00908E-01 2.03631E-30
8.04381E-01 1.94009E-30
8.07831E-01 1.84834E-30
8.11257E-01 1.76086E-30
8.14660E-01 1.67745E-30
8.18039E-01 1.59792E-30
8.21394E-01 1.52209E-30
8.24724E-01 1.44980E-30
8.28030E-01 1.38087E-30
8.31310E-01 1.31516E-30
8.34565E-01 1.25251E-30
8.37795E-01 1.19278E-30
8.40999E-01 1.13583E-30
8.44177E-01 1.08155E-30
8.47329E-01 1.02980E-30
8.50455E-01 9.80462E-31
8.53553E-01 9.33430E-31
8.56625E-01 8.88597E-31
8.59670E-01 8.45858E-31
8.62687E-01 8.05117E-31
8.65677E-01 7.66281E-31
8.68639E-01 7.29262E-31
8.71572E-01 6.93974E-31
8.74478E-01 6.60338E-31
8.77355E-01 6.28275E-31
8.80203E-01 5.97714E-31
8.83022E-01 5.68584E-31
8.85812E-01 5.40819E-31
8.88573E-01 5.14354E-31
8.91304E-01 4.89129E-31
8.94005E-01 4.65087E-31
8.96677E-01 4.42172E-31
8.99318E-01 4.20331E-31
9.01928E-01 3.99515E-31
9.04508E-01 3.79675E-31
9.07058E-01 3.60766E-31
9.09576E-01 3.42745E-31
9.12063E-01 3.25569E-31
9.14519E-01 3.09200E-31
9.16943E-01 2.93600E-31
9.19335E-01 2.78733E-31
9.21696E-01 2.64564E-31
9.24024E-01 2.51061E-31
9.26320E-01 2.38193E-31
9.28584E-01 2.25930E-31
9.30815E-01 2.14244E-31
9.33013E-01 2.03109E-31
9.35178E-01 1.92497E-31
9.37310E-01 1.82385E-31
9.39409E-01 1.72750E-31
9.41474E-01 1.63570E-31
9.43505E-01 1.54822E-31
9.45503E-01 1.46488E-31
9.47467E-01 1.38547E-31
9.49397E-01 1.30982E-31
9.51293E-01 1.23775E-31
9.53154E-01 1.16910E-31
9.54981E-01 1.10370E-31
9.56773E-01 1.04141E-31
9.58530E-01 9.82090E-32
9.60252E-01 9.25594E-32
9.61940E-01 8.71796E-32
9.63592E-01 8.20572E-32
9.65209E-01 7.71806E-32
9.66790E-01 7.25384E-32
9.68336E-01 6.81203E-32
9.69846E-01 6.39158E-32
9.71321E-01 5.99156E-32
9.72759E-01 5.61104E-32
9.74162E-01 5.24915E-32
9.75528E-01 4.90507E-32
9.76858E-01 4.57802E-32
9.78152E-01 4.26724E-32
9.79410E-01 3.97204E-32
9.80631E-01 3.69174E-32
9.81815E-01 3.42570E-32
9.82963E-01 3.17334E-32
9.84074E-01 2.93405E-32
9.85148E-01 2.70733E-32
9.86185E-01 2.49264E-32
9.87185E-01 2.28950E-32
9.88148E-01 2.09745E-32
9.89074E-01 1.91607E-32
9.89962E-01 1.74494E-32
9.90814E-01 1.58368E-32
9.91627E-01 1.43193E-32
9.92404E-01 1.28934E-32
9.93143E-01 1.15560E-32
9.93844E-01 1.03041E-32
9.94508E-01 9.13485E-33
9.95134E-01 8.04567E-33
9.95722E-01 7.03413E-33
9.96273E-01 6.09798E-33
9.96786E-01 5.23512E-33
9.97261E-01 4.44364E-33
9.97698E-01 3.72177E-33
9.98097E-01 3.06793E-33
9.98459E-01 2.48064E-33
9.98782E-01 1.95860E-33
9.99067E-01 1.50068E-33
9.99315E-01 1.10583E-33
9.99524E-01 7.73214E-34
9.99695E-01 5.02059E-34
9.99829E-01 2.91786E-34
9.99924E-01 1.41912E-34
9.99981E-01 5.21324E-35
1.00000E+00 2.22033E-35
