 #
 # Subroutine ELSEPA. Elastic scattering of electrons and positrons
 #                    by neutral atoms and positive ions
 #
 # Projectile: electron
 # Kinetic energy = 4.00000E+06 eV = 1.46997E+05 a.u.
 #
 # WARNING: High-energy factorization with free-atom DF screening.
 #          Absorption, polarization and exchange corrections are
 #          switched off.
 #          Phase shifts are calculated for the bare nucleus.
 #          Scattering amplitudes are not evaluated.
 #
 # Element: Ca,  Z =  20,  atomic weight = 4.00780E+01 g/mol
 #
 # Nuclear model: Fermi distribution
 #                Average radius = 3.66173E-13 cm
 #                Skin thickness = 5.46000E-14 cm
 #
 # Number of electrons = 20
 #
 # Total elastic cross section = 1.83532E-18 cm**2 = 6.55406E-02 a0**2
 # 1st transport cross section = 3.05002E-23 cm**2 = 1.08918E-06 a0**2
 # 2nd transport cross section = 8.67513E-23 cm**2 = 3.09794E-06 a0**2
 #
 #
 # Differential cross section:                       MU=(1-COS(THETA))/2
 #
 #  THETA        MU          DCS          DCS        Sherman      error
 #  (deg)                 (cm**2/sr)   (a0**2/sr)    function
 #----------------------------------------------------------------------
0.00000E+00 7.61858E-13
7.61557E-13 7.61849E-13
1.18994E-12 7.61844E-13
1.71346E-12 7.61838E-13
2.33225E-12 7.61831E-13
3.04617E-12 7.61823E-13
3.85530E-12 7.61814E-13
4.75964E-12 7.61804E-13
5.75917E-12 7.61792E-13
6.85391E-12 7.61780E-13
8.04379E-12 7.61767E-13
9.32893E-12 7.61753E-13
1.07092E-11 7.61737E-13
1.21847E-11 7.61721E-13
1.37554E-11 7.61703E-13
1.54213E-11 7.61685E-13
1.71823E-11 7.61665E-13
1.90386E-11 7.61644E-13
2.09900E-11 7.61623E-13
2.30367E-11 7.61600E-13
2.51785E-11 7.61576E-13
2.74156E-11 7.61551E-13
2.97478E-11 7.61525E-13
3.21752E-11 7.61498E-13
3.46979E-11 7.61470E-13
3.73157E-11 7.61441E-13
4.00286E-11 7.61411E-13
4.28368E-11 7.61380E-13
4.57402E-11 7.61348E-13
4.87388E-11 7.61314E-13
5.18325E-11 7.61280E-13
5.50215E-11 7.61245E-13
5.83057E-11 7.61208E-13
6.16850E-11 7.61171E-13
6.51595E-11 7.61132E-13
6.87293E-11 7.61092E-13
7.23943E-11 7.61052E-13
7.61544E-11 7.61010E-13
1.18991E-10 7.60536E-13
1.71347E-10 7.59957E-13
2.33223E-10 7.59274E-13
3.04617E-10 7.58487E-13
3.85531E-10 7.57596E-13
4.75965E-10 7.56603E-13
5.75917E-10 7.55508E-13
6.85389E-10 7.54311E-13
8.04380E-10 7.53014E-13
9.32891E-10 7.51617E-13
1.07092E-09 7.50120E-13
1.21847E-09 7.48524E-13
1.37554E-09 7.46832E-13
1.54213E-09 7.45043E-13
1.71823E-09 7.43158E-13
1.90386E-09 7.41181E-13
2.09900E-09 7.39109E-13
2.30367E-09 7.36945E-13
2.51785E-09 7.34691E-13
2.74156E-09 7.32348E-13
2.97478E-09 7.29915E-13
3.21752E-09 7.27397E-13
3.46978E-09 7.24794E-13
3.73156E-09 7.22106E-13
4.00286E-09 7.19336E-13
4.28368E-09 7.16487E-13
4.57402E-09 7.13557E-13
4.87388E-09 7.10548E-13
5.18326E-09 7.07467E-13
5.50215E-09 7.04309E-13
5.83057E-09 7.01076E-13
6.16850E-09 6.97778E-13
6.51596E-09 6.94408E-13
6.87293E-09 6.90967E-13
7.23942E-09 6.87466E-13
7.61544E-09 6.83900E-13
1.18991E-08 6.45120E-13
1.71347E-08 6.02001E-13
2.33223E-08 5.56380E-13
3.04617E-08 5.09943E-13
3.85531E-08 4.64109E-13
4.75965E-08 4.20004E-13
5.75917E-08 3.78442E-13
6.85389E-08 3.39945E-13
8.04380E-08 3.05179E-13
9.32891E-08 2.74058E-13
1.07092E-07 2.45414E-13
1.21847E-07 2.19551E-13
1.37554E-07 1.97777E-13
1.54213E-07 1.78030E-13
1.71823E-07 1.60193E-13
1.90386E-07 1.45343E-13
2.09900E-07 1.31991E-13
2.30367E-07 1.19966E-13
2.51785E-07 1.09690E-13
2.74156E-07 1.00561E-13
2.97478E-07 9.23301E-14
3.21752E-07 8.50973E-14
3.46978E-07 7.86741E-14
3.73156E-07 7.28656E-14
4.00286E-07 6.76468E-14
4.28368E-07 6.29619E-14
4.57402E-07 5.87103E-14
4.87388E-07 5.48394E-14
5.18325E-07 5.12986E-14
5.50215E-07 4.80738E-14
5.83057E-07 4.51248E-14
6.16850E-07 4.23651E-14
6.51596E-07 3.98433E-14
6.87293E-07 3.75354E-14
7.23942E-07 3.53386E-14
7.61543E-07 3.33188E-14
1.18991E-06 1.91229E-14
1.71347E-06 1.14285E-14
2.33223E-06 7.07796E-15
3.04617E-06 4.55932E-15
3.85531E-06 3.06080E-15
4.75964E-06 2.13795E-15
5.75916E-06 1.54816E-15
6.85388E-06 1.15646E-15
8.04378E-06 8.86050E-16
9.32888E-06 6.94124E-16
1.07092E-05 5.52778E-16
1.21846E-05 4.46473E-16
1.37553E-05 3.64976E-16
1.54212E-05 3.01393E-16
1.71822E-05 2.50982E-16
1.90385E-05 2.10294E-16
2.09899E-05 1.77437E-16
2.30365E-05 1.50634E-16
2.51783E-05 1.28589E-16
2.74153E-05 1.10289E-16
2.97475E-05 9.50112E-17
3.21749E-05 8.22344E-17
3.46974E-05 7.14897E-17
3.73152E-05 6.24077E-17
4.00281E-05 5.46801E-17
4.28362E-05 4.80901E-17
4.57395E-05 4.24508E-17
4.87380E-05 3.76040E-17
5.18317E-05 3.34216E-17
5.50205E-05 2.97944E-17
5.83045E-05 2.66433E-17
6.16838E-05 2.38962E-17
6.51582E-05 2.14931E-17
6.87277E-05 1.93838E-17
7.23925E-05 1.75261E-17
7.61524E-05 1.58861E-17
9.21439E-05 1.09710E-17
1.09658E-04 7.82390E-18
1.28695E-04 5.73385E-18
1.49255E-04 4.30075E-18
1.71338E-04 3.29092E-18
1.94942E-04 2.56214E-18
2.20070E-04 2.02513E-18
2.46720E-04 1.62215E-18
2.74892E-04 1.31481E-18
3.04586E-04 1.07704E-18
3.35803E-04 8.90697E-19
3.68542E-04 7.42977E-19
4.02802E-04 6.24641E-19
4.38585E-04 5.28938E-19
4.75889E-04 4.50864E-19
5.14715E-04 3.86660E-19
5.55063E-04 3.33472E-19
5.96931E-04 2.89110E-19
6.40321E-04 2.51873E-19
6.85233E-04 2.20435E-19
7.31665E-04 1.93744E-19
7.79618E-04 1.70965E-19
8.29092E-04 1.51434E-19
8.80086E-04 1.34612E-19
9.32601E-04 1.20058E-19
9.86636E-04 1.07416E-19
1.04219E-03 9.63935E-20
1.09927E-03 8.67484E-20
1.15786E-03 7.82781E-20
1.21797E-03 7.08163E-20
1.27961E-03 6.42223E-20
1.34276E-03 5.83779E-20
1.40743E-03 5.31828E-20
1.47362E-03 4.85529E-20
1.54133E-03 4.44160E-20
1.61056E-03 4.07103E-20
1.68131E-03 3.73830E-20
1.75357E-03 3.43889E-20
1.82735E-03 3.16887E-20
1.90265E-03 2.92484E-20
1.97947E-03 2.70386E-20
2.05780E-03 2.50338E-20
2.13765E-03 2.32114E-20
2.21902E-03 2.15520E-20
2.30190E-03 2.00383E-20
2.38630E-03 1.86553E-20
2.47222E-03 1.73897E-20
2.55965E-03 1.62297E-20
2.64859E-03 1.51649E-20
2.73905E-03 1.41861E-20
2.83103E-03 1.32851E-20
2.92452E-03 1.24546E-20
3.01952E-03 1.16881E-20
3.11604E-03 1.09797E-20
3.21407E-03 1.03242E-20
3.31362E-03 9.71701E-21
3.41468E-03 9.15386E-21
3.51725E-03 8.63097E-21
3.62133E-03 8.14495E-21
3.72692E-03 7.69271E-21
3.83403E-03 7.27148E-21
3.94265E-03 6.87874E-21
4.05278E-03 6.51220E-21
4.16442E-03 6.16979E-21
4.27757E-03 5.84963E-21
4.39223E-03 5.55001E-21
4.50840E-03 5.26937E-21
4.62608E-03 5.00627E-21
4.74527E-03 4.75942E-21
4.86597E-03 4.52763E-21
4.98817E-03 4.30981E-21
5.11188E-03 4.10496E-21
5.23711E-03 3.91216E-21
5.36383E-03 3.73057E-21
5.49207E-03 3.55942E-21
5.62181E-03 3.39799E-21
5.75306E-03 3.24562E-21
5.88581E-03 3.10173E-21
6.02007E-03 2.96573E-21
6.15583E-03 2.83713E-21
6.29310E-03 2.71544E-21
6.43187E-03 2.60022E-21
6.57214E-03 2.49106E-21
6.71392E-03 2.38758E-21
6.85720E-03 2.28943E-21
7.00198E-03 2.19628E-21
7.14827E-03 2.10784E-21
7.29605E-03 2.02381E-21
7.44534E-03 1.94394E-21
7.59612E-03 1.86798E-21
7.97965E-03 1.69374E-21
8.37255E-03 1.53940E-21
8.77480E-03 1.40228E-21
9.18641E-03 1.28013E-21
9.60736E-03 1.17103E-21
1.00376E-02 1.07334E-21
1.04773E-02 9.85652E-22
1.09262E-02 9.06745E-22
1.13844E-02 8.35595E-22
1.18520E-02 7.71308E-22
1.23288E-02 7.13104E-22
1.28150E-02 6.60302E-22
1.33104E-02 6.12312E-22
1.38150E-02 5.68616E-22
1.43290E-02 5.28760E-22
1.48521E-02 4.92346E-22
1.53845E-02 4.59021E-22
1.59262E-02 4.28477E-22
1.64770E-02 4.00439E-22
1.70371E-02 3.74664E-22
1.76063E-02 3.50936E-22
1.81848E-02 3.29062E-22
1.87724E-02 3.08871E-22
1.93692E-02 2.90209E-22
1.99751E-02 2.72940E-22
2.05901E-02 2.56940E-22
2.12143E-02 2.42099E-22
2.18476E-02 2.28317E-22
2.24900E-02 2.15505E-22
2.31415E-02 2.03581E-22
2.38021E-02 1.92473E-22
2.44717E-02 1.82115E-22
2.51504E-02 1.72446E-22
2.58382E-02 1.63412E-22
2.65349E-02 1.54963E-22
2.72407E-02 1.47055E-22
2.79555E-02 1.39646E-22
2.86793E-02 1.32700E-22
2.94120E-02 1.26181E-22
3.01537E-02 1.20058E-22
3.09043E-02 1.14303E-22
3.16639E-02 1.08890E-22
3.24324E-02 1.03795E-22
3.32098E-02 9.89942E-23
3.39961E-02 9.44688E-23
3.47912E-02 9.01996E-23
3.55952E-02 8.61695E-23
3.64081E-02 8.23624E-23
3.72297E-02 7.87637E-23
3.80602E-02 7.53598E-23
3.88995E-02 7.21383E-23
3.97476E-02 6.90874E-23
4.06044E-02 6.61963E-23
4.14700E-02 6.34553E-23
4.23443E-02 6.08549E-23
4.32273E-02 5.83865E-23
4.41190E-02 5.60423E-23
4.50194E-02 5.38147E-23
4.59284E-02 5.16969E-23
4.68461E-02 4.96824E-23
4.87074E-02 4.59398E-23
5.06030E-02 4.25434E-23
5.25328E-02 3.94554E-23
5.44967E-02 3.66429E-23
5.64946E-02 3.40767E-23
5.85262E-02 3.17314E-23
6.05914E-02 2.95845E-23
6.26901E-02 2.76162E-23
6.48222E-02 2.58088E-23
6.69873E-02 2.41469E-23
6.91854E-02 2.26165E-23
7.14163E-02 2.12054E-23
7.36799E-02 1.99026E-23
7.59760E-02 1.86981E-23
7.83043E-02 1.75833E-23
8.06647E-02 1.65502E-23
8.30571E-02 1.55917E-23
8.54812E-02 1.47015E-23
8.79369E-02 1.38737E-23
9.04240E-02 1.31032E-23
9.29422E-02 1.23853E-23
9.54915E-02 1.17158E-23
9.80716E-02 1.10907E-23
1.00682E-01 1.05065E-23
1.03323E-01 9.96021E-24
1.05995E-01 9.44876E-24
1.08696E-01 8.96956E-24
1.11427E-01 8.52019E-24
1.14188E-01 8.09844E-24
1.16978E-01 7.70232E-24
1.19797E-01 7.32996E-24
1.22645E-01 6.97968E-24
1.25522E-01 6.64992E-24
1.28428E-01 6.33926E-24
1.31361E-01 6.04638E-24
1.34323E-01 5.77008E-24
1.37313E-01 5.50924E-24
1.40330E-01 5.26283E-24
1.43375E-01 5.02991E-24
1.46447E-01 4.80960E-24
1.49545E-01 4.60110E-24
1.52671E-01 4.40364E-24
1.55823E-01 4.21654E-24
1.59001E-01 4.03914E-24
1.62205E-01 3.87086E-24
1.65435E-01 3.71114E-24
1.68690E-01 3.55946E-24
1.71970E-01 3.41533E-24
1.75276E-01 3.27832E-24
1.78606E-01 3.14800E-24
1.81961E-01 3.02399E-24
1.85340E-01 2.90593E-24
1.88743E-01 2.79347E-24
1.92169E-01 2.68631E-24
1.95619E-01 2.58414E-24
1.99092E-01 2.48669E-24
2.02589E-01 2.39370E-24
2.06107E-01 2.30492E-24
2.09649E-01 2.22014E-24
2.13212E-01 2.13914E-24
2.16797E-01 2.06171E-24
2.20404E-01 1.98768E-24
2.24032E-01 1.91686E-24
2.27680E-01 1.84909E-24
2.31350E-01 1.78421E-24
2.35040E-01 1.72208E-24
2.38751E-01 1.66256E-24
2.42481E-01 1.60552E-24
2.46231E-01 1.55084E-24
2.50000E-01 1.49839E-24
2.53788E-01 1.44808E-24
2.57595E-01 1.39980E-24
2.61421E-01 1.35345E-24
2.65264E-01 1.30894E-24
2.69126E-01 1.26619E-24
2.73005E-01 1.22511E-24
2.76901E-01 1.18562E-24
2.80814E-01 1.14766E-24
2.84744E-01 1.11114E-24
2.88691E-01 1.07602E-24
2.92653E-01 1.04222E-24
2.96632E-01 1.00968E-24
3.00625E-01 9.78350E-25
3.04634E-01 9.48178E-25
3.08658E-01 9.19110E-25
3.12697E-01 8.91100E-25
3.16749E-01 8.64102E-25
3.20816E-01 8.38073E-25
3.24896E-01 8.12971E-25
3.28990E-01 7.88757E-25
3.33097E-01 7.65395E-25
3.37216E-01 7.42849E-25
3.41348E-01 7.21085E-25
3.45492E-01 7.00072E-25
3.49647E-01 6.79778E-25
3.53814E-01 6.60174E-25
3.57992E-01 6.41233E-25
3.62181E-01 6.22929E-25
3.66381E-01 6.05236E-25
3.70590E-01 5.88130E-25
3.74810E-01 5.71588E-25
3.79039E-01 5.55587E-25
3.83277E-01 5.40109E-25
3.87524E-01 5.25131E-25
3.91780E-01 5.10635E-25
3.96044E-01 4.96603E-25
4.00316E-01 4.83018E-25
4.04596E-01 4.69862E-25
4.08882E-01 4.57119E-25
4.13176E-01 4.44775E-25
4.17476E-01 4.32814E-25
4.21783E-01 4.21223E-25
4.26095E-01 4.09988E-25
4.30413E-01 3.99096E-25
4.34737E-01 3.88535E-25
4.39065E-01 3.78293E-25
4.43398E-01 3.68360E-25
4.47736E-01 3.58723E-25
4.52077E-01 3.49372E-25
4.56422E-01 3.40298E-25
4.60770E-01 3.31491E-25
4.65122E-01 3.22942E-25
4.69476E-01 3.14641E-25
4.73832E-01 3.06581E-25
4.78190E-01 2.98753E-25
4.82550E-01 2.91149E-25
4.86912E-01 2.83763E-25
4.91274E-01 2.76585E-25
4.95637E-01 2.69611E-25
5.00000E-01 2.62832E-25
5.04363E-01 2.56243E-25
5.08726E-01 2.49837E-25
5.13088E-01 2.43609E-25
5.17450E-01 2.37552E-25
5.21810E-01 2.31662E-25
5.26168E-01 2.25932E-25
5.30524E-01 2.20357E-25
5.34878E-01 2.14934E-25
5.39230E-01 2.09656E-25
5.43578E-01 2.04520E-25
5.47923E-01 1.99521E-25
5.52264E-01 1.94655E-25
5.56602E-01 1.89917E-25
5.60935E-01 1.85304E-25
5.65263E-01 1.80812E-25
5.69587E-01 1.76437E-25
5.73905E-01 1.72175E-25
5.78217E-01 1.68024E-25
5.82524E-01 1.63980E-25
5.86824E-01 1.60040E-25
5.91118E-01 1.56200E-25
5.95404E-01 1.52458E-25
5.99684E-01 1.48810E-25
6.03956E-01 1.45255E-25
6.08220E-01 1.41789E-25
6.12476E-01 1.38410E-25
6.16723E-01 1.35115E-25
6.20961E-01 1.31902E-25
6.25190E-01 1.28768E-25
6.29410E-01 1.25712E-25
6.33619E-01 1.22731E-25
6.37819E-01 1.19822E-25
6.42008E-01 1.16985E-25
6.46186E-01 1.14216E-25
6.50353E-01 1.11515E-25
6.54508E-01 1.08878E-25
6.58652E-01 1.06305E-25
6.62784E-01 1.03794E-25
6.66903E-01 1.01342E-25
6.71010E-01 9.89487E-26
6.75104E-01 9.66121E-26
6.79184E-01 9.43307E-26
6.83251E-01 9.21031E-26
6.87303E-01 8.99276E-26
6.91342E-01 8.78031E-26
6.95366E-01 8.57281E-26
6.99375E-01 8.37013E-26
7.03368E-01 8.17215E-26
7.07347E-01 7.97875E-26
7.11309E-01 7.78980E-26
7.15256E-01 7.60519E-26
7.19186E-01 7.42481E-26
7.23099E-01 7.24854E-26
7.26995E-01 7.07630E-26
7.30874E-01 6.90796E-26
7.34736E-01 6.74344E-26
7.38579E-01 6.58263E-26
7.42405E-01 6.42545E-26
7.46212E-01 6.27181E-26
7.50000E-01 6.12161E-26
7.53769E-01 5.97477E-26
7.57519E-01 5.83121E-26
7.61249E-01 5.69084E-26
7.64960E-01 5.55360E-26
7.68650E-01 5.41940E-26
7.72320E-01 5.28816E-26
7.75968E-01 5.15983E-26
7.79596E-01 5.03433E-26
7.83203E-01 4.91159E-26
7.86788E-01 4.79154E-26
7.90351E-01 4.67412E-26
7.93893E-01 4.55928E-26
7.97411E-01 4.44695E-26
8.00908E-01 4.33706E-26
8.04381E-01 4.22957E-26
8.07831E-01 4.12443E-26
8.11257E-01 4.02156E-26
8.14660E-01 3.92093E-26
8.18039E-01 3.82248E-26
8.21394E-01 3.72617E-26
8.24724E-01 3.63194E-26
8.28030E-01 3.53975E-26
8.31310E-01 3.44955E-26
8.34565E-01 3.36130E-26
8.37795E-01 3.27496E-26
8.40999E-01 3.19048E-26
8.44177E-01 3.10782E-26
8.47329E-01 3.02695E-26
8.50455E-01 2.94782E-26
8.53553E-01 2.87039E-26
8.56625E-01 2.79464E-26
8.59670E-01 2.72053E-26
8.62687E-01 2.64801E-26
8.65677E-01 2.57707E-26
8.68639E-01 2.50765E-26
8.71572E-01 2.43974E-26
8.74478E-01 2.37330E-26
8.77355E-01 2.30831E-26
8.80203E-01 2.24472E-26
8.83022E-01 2.18252E-26
8.85812E-01 2.12167E-26
8.88573E-01 2.06216E-26
8.91304E-01 2.00394E-26
8.94005E-01 1.94700E-26
8.96677E-01 1.89131E-26
8.99318E-01 1.83685E-26
9.01928E-01 1.78359E-26
9.04508E-01 1.73152E-26
9.07058E-01 1.68060E-26
9.09576E-01 1.63082E-26
9.12063E-01 1.58215E-26
9.14519E-01 1.53458E-26
9.16943E-01 1.48808E-26
9.19335E-01 1.44263E-26
9.21696E-01 1.39822E-26
9.24024E-01 1.35483E-26
9.26320E-01 1.31243E-26
9.28584E-01 1.27102E-26
9.30815E-01 1.23057E-26
9.33013E-01 1.19107E-26
9.35178E-01 1.15250E-26
9.37310E-01 1.11484E-26
9.39409E-01 1.07809E-26
9.41474E-01 1.04222E-26
9.43505E-01 1.00722E-26
9.45503E-01 9.73077E-27
9.47467E-01 9.39778E-27
9.49397E-01 9.07309E-27
9.51293E-01 8.75656E-27
9.53154E-01 8.44807E-27
9.54981E-01 8.14750E-27
9.56773E-01 7.85474E-27
9.58530E-01 7.56966E-27
9.60252E-01 7.29215E-27
9.61940E-01 7.02212E-27
9.63592E-01 6.75944E-27
9.65209E-01 6.50402E-27
9.66790E-01 6.25576E-27
9.68336E-01 6.01457E-27
9.69846E-01 5.78035E-27
9.71321E-01 5.55301E-27
9.72759E-01 5.33246E-27
9.74162E-01 5.11863E-27
9.75528E-01 4.91142E-27
9.76858E-01 4.71077E-27
9.78152E-01 4.51659E-27
9.79410E-01 4.32880E-27
9.80631E-01 4.14735E-27
9.81815E-01 3.97216E-27
9.82963E-01 3.80317E-27
9.84074E-01 3.64030E-27
9.85148E-01 3.48351E-27
9.86185E-01 3.33273E-27
9.87185E-01 3.18791E-27
9.88148E-01 3.04899E-27
9.89074E-01 2.91592E-27
9.89962E-01 2.78865E-27
9.90814E-01 2.66713E-27
9.91627E-01 2.55133E-27
9.92404E-01 2.44119E-27
9.93143E-01 2.33667E-27
9.93844E-01 2.23775E-27
9.94508E-01 2.14437E-27
9.95134E-01 2.05652E-27
9.95722E-01 1.97414E-27
9.96273E-01 1.89722E-27
9.96786E-01 1.82573E-27
9.97261E-01 1.75964E-27
9.97698E-01 1.69892E-27
9.98097E-01 1.64356E-27
9.98459E-01 1.59352E-27
9.98782E-01 1.54881E-27
9.99067E-01 1.50939E-27
9.99315E-01 1.47526E-27
9.99524E-01 1.44640E-27
9.99695E-01 1.42280E-27
9.99829E-01 1.40446E-27
9.99924E-01 1.39136E-27
9.99981E-01 1.38350E-27
1.00000E+00 1.38088E-27
