 #
 # Subroutine ELSEPA. Elastic scattering of electrons and positrons
 #                    by neutral atoms and positive ions
 #
 # Projectile: electron
 # Kinetic energy = 7.00000E+07 eV = 2.57245E+06 a.u.
 #
 # WARNING: High-energy factorization with free-atom DF screening.
 #          Absorption, polarization and exchange corrections are
 #          switched off.
 #          Phase shifts are calculated for the bare nucleus.
 #          Scattering amplitudes are not evaluated.
 #
 # Element: Ca,  Z =  20,  atomic weight = 4.00780E+01 g/mol
 #
 # Nuclear model: Fermi distribution
 #                Average radius = 3.66173E-13 cm
 #                Skin thickness = 5.46000E-14 cm
 #
 # Number of electrons = 20
 #
 # Total elastic cross section = 1.81141E-18 cm**2 = 6.46867E-02 a0**2
 # 1st transport cross section = 1.68231E-25 cm**2 = 6.00765E-09 a0**2
 # 2nd transport cross section = 4.95728E-25 cm**2 = 1.77028E-08 a0**2
 #
 #
 # Differential cross section:                       MU=(1-COS(THETA))/2
 #
 #  THETA        MU          DCS          DCS        Sherman      error
 #  (deg)                 (cm**2/sr)   (a0**2/sr)    function
 #----------------------------------------------------------------------
0.00000E+00 1.86141E-10
7.61557E-13 1.85629E-10
1.18994E-12 1.85343E-10
1.71346E-12 1.84995E-10
2.33225E-12 1.84584E-10
3.04617E-12 1.84113E-10
3.85530E-12 1.83580E-10
4.75964E-12 1.82988E-10
5.75917E-12 1.82336E-10
6.85391E-12 1.81627E-10
8.04379E-12 1.80860E-10
9.32893E-12 1.80037E-10
1.07092E-11 1.79160E-10
1.21847E-11 1.78229E-10
1.37554E-11 1.77246E-10
1.54213E-11 1.76212E-10
1.71823E-11 1.75129E-10
1.90386E-11 1.73997E-10
2.09900E-11 1.72819E-10
2.30367E-11 1.71596E-10
2.51785E-11 1.70330E-10
2.74156E-11 1.69022E-10
2.97478E-11 1.67674E-10
3.21752E-11 1.66288E-10
3.46979E-11 1.64866E-10
3.73157E-11 1.63408E-10
4.00286E-11 1.61918E-10
4.28368E-11 1.60396E-10
4.57402E-11 1.58846E-10
4.87388E-11 1.57267E-10
5.18325E-11 1.55663E-10
5.50215E-11 1.54034E-10
5.83057E-11 1.52384E-10
6.16850E-11 1.50713E-10
6.51595E-11 1.49024E-10
6.87293E-11 1.47316E-10
7.23943E-11 1.45595E-10
7.61544E-11 1.43858E-10
1.18991E-10 1.26103E-10
1.71347E-10 1.08587E-10
2.33223E-10 9.23342E-11
3.04617E-10 7.79205E-11
3.85531E-10 6.58007E-11
4.75965E-10 5.52183E-11
5.75917E-10 4.67924E-11
6.85389E-10 3.96400E-11
8.04380E-10 3.39907E-11
9.32891E-10 2.92371E-11
1.07092E-09 2.54341E-11
1.21847E-09 2.22306E-11
1.37554E-09 1.96044E-11
1.54213E-09 1.73774E-11
1.71823E-09 1.54993E-11
1.90386E-09 1.38920E-11
2.09900E-09 1.24998E-11
2.30367E-09 1.12963E-11
2.51785E-09 1.02307E-11
2.74156E-09 9.30075E-12
2.97478E-09 8.46398E-12
3.21752E-09 7.72732E-12
3.46978E-09 7.05730E-12
3.73156E-09 6.46308E-12
4.00286E-09 5.91905E-12
4.28368E-09 5.43355E-12
4.57402E-09 4.98748E-12
4.87388E-09 4.58734E-12
5.18326E-09 4.21913E-12
5.50215E-09 3.88739E-12
5.83057E-09 3.58198E-12
6.16850E-09 3.30582E-12
6.51596E-09 3.05162E-12
6.87293E-09 2.82104E-12
7.23942E-09 2.60892E-12
7.61544E-09 2.41601E-12
1.18991E-08 1.17798E-12
1.71347E-08 6.35315E-13
2.33223E-08 3.76484E-13
3.04617E-08 2.40884E-13
3.85531E-08 1.63156E-13
4.75965E-08 1.15205E-13
5.75917E-08 8.39037E-14
6.85389E-08 6.25613E-14
8.04380E-08 4.74879E-14
9.32891E-08 3.65868E-14
1.07092E-07 2.85765E-14
1.21847E-07 2.25937E-14
1.37554E-07 1.80589E-14
1.54213E-07 1.45782E-14
1.71823E-07 1.18832E-14
1.90386E-07 9.77419E-15
2.09900E-07 8.10728E-15
2.30367E-07 6.77686E-15
2.51785E-07 5.70702E-15
2.74156E-07 4.83953E-15
2.97478E-07 4.13056E-15
3.21752E-07 3.54664E-15
3.46978E-07 3.06259E-15
3.73156E-07 2.65867E-15
4.00286E-07 2.31949E-15
4.28368E-07 2.03295E-15
4.57402E-07 1.78957E-15
4.87388E-07 1.58177E-15
5.18325E-07 1.40347E-15
5.50215E-07 1.24974E-15
5.83057E-07 1.11662E-15
6.16850E-07 1.00088E-15
6.51596E-07 8.99842E-16
6.87293E-07 8.11304E-16
7.23942E-07 7.33444E-16
7.61543E-07 6.64752E-16
1.18991E-06 2.79108E-16
1.71347E-06 1.36925E-16
2.33223E-06 7.47600E-17
3.04617E-06 4.41593E-17
3.85531E-06 2.77115E-17
4.75964E-06 1.82468E-17
5.75916E-06 1.24945E-17
6.85388E-06 8.83822E-18
8.04378E-06 6.42555E-18
9.32888E-06 4.78216E-18
1.07092E-05 3.63180E-18
1.21846E-05 2.80729E-18
1.37553E-05 2.20393E-18
1.54212E-05 1.75425E-18
1.71822E-05 1.41360E-18
1.90385E-05 1.15165E-18
2.09899E-05 9.47787E-19
2.30365E-05 7.87096E-19
2.51783E-05 6.59045E-19
2.74153E-05 5.55991E-19
2.97475E-05 4.72303E-19
3.21749E-05 4.03781E-19
3.46974E-05 3.47249E-19
3.73152E-05 3.00277E-19
4.00281E-05 2.60992E-19
4.28362E-05 2.27928E-19
4.57395E-05 1.99935E-19
4.87380E-05 1.76110E-19
5.18317E-05 1.55730E-19
5.50205E-05 1.38214E-19
5.83045E-05 1.23093E-19
6.16838E-05 1.09985E-19
6.51582E-05 9.85762E-20
6.87277E-05 8.86104E-20
7.23925E-05 7.98737E-20
7.61524E-05 7.21830E-20
9.21439E-05 4.93203E-20
1.09658E-04 3.48352E-20
1.28695E-04 2.53005E-20
1.49255E-04 1.88165E-20
1.71338E-04 1.42835E-20
1.94942E-04 1.10375E-20
2.20070E-04 8.66360E-21
2.46720E-04 6.89526E-21
2.74892E-04 5.55607E-21
3.04586E-04 4.52694E-21
3.35803E-04 3.72552E-21
3.68542E-04 3.09393E-21
4.02802E-04 2.59076E-21
4.38585E-04 2.18588E-21
4.75889E-04 1.85714E-21
5.14715E-04 1.58797E-21
5.55063E-04 1.36587E-21
5.96931E-04 1.18130E-21
6.40321E-04 1.02689E-21
6.85233E-04 8.96923E-22
7.31665E-04 7.86891E-22
7.79618E-04 6.93237E-22
8.29092E-04 6.13117E-22
8.80086E-04 5.44251E-22
9.32601E-04 4.84794E-22
9.86636E-04 4.33242E-22
1.04219E-03 3.88369E-22
1.09927E-03 3.49160E-22
1.15786E-03 3.14780E-22
1.21797E-03 2.84531E-22
1.27961E-03 2.57832E-22
1.34276E-03 2.34193E-22
1.40743E-03 2.13204E-22
1.47362E-03 1.94516E-22
1.54133E-03 1.77832E-22
1.61056E-03 1.62900E-22
1.68131E-03 1.49504E-22
1.75357E-03 1.37457E-22
1.82735E-03 1.26600E-22
1.90265E-03 1.16794E-22
1.97947E-03 1.07920E-22
2.05780E-03 9.98734E-23
2.13765E-03 9.25630E-23
2.21902E-03 8.59096E-23
2.30190E-03 7.98435E-23
2.38630E-03 7.43036E-23
2.47222E-03 6.92361E-23
2.55965E-03 6.45933E-23
2.64859E-03 6.03332E-23
2.73905E-03 5.64187E-23
2.83103E-03 5.28166E-23
2.92452E-03 4.94973E-23
3.01952E-03 4.64348E-23
3.11604E-03 4.36054E-23
3.21407E-03 4.09883E-23
3.31362E-03 3.85646E-23
3.41468E-03 3.63173E-23
3.51725E-03 3.42313E-23
3.62133E-03 3.22929E-23
3.72692E-03 3.04898E-23
3.83403E-03 2.88106E-23
3.94265E-03 2.72455E-23
4.05278E-03 2.57851E-23
4.16442E-03 2.44212E-23
4.27757E-03 2.31463E-23
4.39223E-03 2.19534E-23
4.50840E-03 2.08363E-23
4.62608E-03 1.97893E-23
4.74527E-03 1.88071E-23
4.86597E-03 1.78851E-23
4.98817E-03 1.70189E-23
5.11188E-03 1.62044E-23
5.23711E-03 1.54380E-23
5.36383E-03 1.47163E-23
5.49207E-03 1.40362E-23
5.62181E-03 1.33949E-23
5.75306E-03 1.27898E-23
5.88581E-03 1.22184E-23
6.02007E-03 1.16784E-23
6.15583E-03 1.11680E-23
6.29310E-03 1.06851E-23
6.43187E-03 1.02279E-23
6.57214E-03 9.79487E-24
6.71392E-03 9.38448E-24
6.85720E-03 8.99531E-24
7.00198E-03 8.62606E-24
7.14827E-03 8.27551E-24
7.29605E-03 7.94255E-24
7.44534E-03 7.62612E-24
7.59612E-03 7.32525E-24
7.97965E-03 6.63533E-24
8.37255E-03 6.02453E-24
8.77480E-03 5.48221E-24
9.18641E-03 4.99936E-24
9.60736E-03 4.56832E-24
1.00376E-02 4.18258E-24
1.04773E-02 3.83653E-24
1.09262E-02 3.52539E-24
1.13844E-02 3.24501E-24
1.18520E-02 2.99182E-24
1.23288E-02 2.76271E-24
1.28150E-02 2.55500E-24
1.33104E-02 2.36633E-24
1.38150E-02 2.19465E-24
1.43290E-02 2.03815E-24
1.48521E-02 1.89526E-24
1.53845E-02 1.76459E-24
1.59262E-02 1.64489E-24
1.64770E-02 1.53510E-24
1.70371E-02 1.43423E-24
1.76063E-02 1.34145E-24
1.81848E-02 1.25597E-24
1.87724E-02 1.17713E-24
1.93692E-02 1.10432E-24
1.99751E-02 1.03699E-24
2.05901E-02 9.74664E-25
2.12143E-02 9.16895E-25
2.18476E-02 8.63292E-25
2.24900E-02 8.13502E-25
2.31415E-02 7.67204E-25
2.38021E-02 7.24111E-25
2.44717E-02 6.83960E-25
2.51504E-02 6.46514E-25
2.58382E-02 6.11559E-25
2.65349E-02 5.78899E-25
2.72407E-02 5.48357E-25
2.79555E-02 5.19770E-25
2.86793E-02 4.92991E-25
2.94120E-02 4.67886E-25
3.01537E-02 4.44330E-25
3.09043E-02 4.22212E-25
3.16639E-02 4.01427E-25
3.24324E-02 3.81881E-25
3.32098E-02 3.63487E-25
3.39961E-02 3.46165E-25
3.47912E-02 3.29842E-25
3.55952E-02 3.14449E-25
3.64081E-02 2.99923E-25
3.72297E-02 2.86208E-25
3.80602E-02 2.73251E-25
3.88995E-02 2.61001E-25
3.97476E-02 2.49413E-25
4.06044E-02 2.38445E-25
4.14700E-02 2.28059E-25
4.23443E-02 2.18217E-25
4.32273E-02 2.08887E-25
4.41190E-02 2.00036E-25
4.50194E-02 1.91637E-25
4.59284E-02 1.83661E-25
4.68461E-02 1.76084E-25
4.87074E-02 1.62033E-25
5.06030E-02 1.49316E-25
5.25328E-02 1.37786E-25
5.44967E-02 1.27312E-25
5.64946E-02 1.17782E-25
5.85262E-02 1.09098E-25
6.05914E-02 1.01171E-25
6.26901E-02 9.39254E-26
6.48222E-02 8.72925E-26
6.69873E-02 8.12123E-26
6.91854E-02 7.56311E-26
7.14163E-02 7.05014E-26
7.36799E-02 6.57807E-26
7.59760E-02 6.14312E-26
7.83043E-02 5.74191E-26
8.06647E-02 5.37139E-26
8.30571E-02 5.02885E-26
8.54812E-02 4.71184E-26
8.79369E-02 4.41815E-26
9.04240E-02 4.14580E-26
9.29422E-02 3.89300E-26
9.54915E-02 3.65813E-26
9.80716E-02 3.43971E-26
1.00682E-01 3.23641E-26
1.03323E-01 3.04703E-26
1.05995E-01 2.87047E-26
1.08696E-01 2.70573E-26
1.11427E-01 2.55190E-26
1.14188E-01 2.40815E-26
1.16978E-01 2.27371E-26
1.19797E-01 2.14790E-26
1.22645E-01 2.03008E-26
1.25522E-01 1.91966E-26
1.28428E-01 1.81612E-26
1.31361E-01 1.71896E-26
1.34323E-01 1.62774E-26
1.37313E-01 1.54203E-26
1.40330E-01 1.46146E-26
1.43375E-01 1.38568E-26
1.46447E-01 1.31436E-26
1.49545E-01 1.24720E-26
1.52671E-01 1.18393E-26
1.55823E-01 1.12429E-26
1.59001E-01 1.06804E-26
1.62205E-01 1.01496E-26
1.65435E-01 9.64856E-27
1.68690E-01 9.17534E-27
1.71970E-01 8.72818E-27
1.75276E-01 8.30548E-27
1.78606E-01 7.90572E-27
1.81961E-01 7.52748E-27
1.85340E-01 7.16947E-27
1.88743E-01 6.83046E-27
1.92169E-01 6.50933E-27
1.95619E-01 6.20500E-27
1.99092E-01 5.91649E-27
2.02589E-01 5.64287E-27
2.06107E-01 5.38329E-27
2.09649E-01 5.13694E-27
2.13212E-01 4.90305E-27
2.16797E-01 4.68094E-27
2.20404E-01 4.46993E-27
2.24032E-01 4.26940E-27
2.27680E-01 4.07878E-27
2.31350E-01 3.89751E-27
2.35040E-01 3.72510E-27
2.38751E-01 3.56105E-27
2.42481E-01 3.40491E-27
2.46231E-01 3.25627E-27
2.50000E-01 3.11472E-27
2.53788E-01 2.97989E-27
2.57595E-01 2.85143E-27
2.61421E-01 2.72900E-27
2.65264E-01 2.61229E-27
2.69126E-01 2.50100E-27
2.73005E-01 2.39487E-27
2.76901E-01 2.29362E-27
2.80814E-01 2.19701E-27
2.84744E-01 2.10480E-27
2.88691E-01 2.01677E-27
2.92653E-01 1.93273E-27
2.96632E-01 1.85246E-27
3.00625E-01 1.77578E-27
3.04634E-01 1.70253E-27
3.08658E-01 1.63252E-27
3.12697E-01 1.56561E-27
3.16749E-01 1.50164E-27
3.20816E-01 1.44047E-27
3.24896E-01 1.38197E-27
3.28990E-01 1.32602E-27
3.33097E-01 1.27249E-27
3.37216E-01 1.22127E-27
3.41348E-01 1.17225E-27
3.45492E-01 1.12533E-27
3.49647E-01 1.08041E-27
3.53814E-01 1.03739E-27
3.57992E-01 9.96203E-28
3.62181E-01 9.56751E-28
3.66381E-01 9.18957E-28
3.70590E-01 8.82747E-28
3.74810E-01 8.48050E-28
3.79039E-01 8.14797E-28
3.83277E-01 7.82924E-28
3.87524E-01 7.52369E-28
3.91780E-01 7.23074E-28
3.96044E-01 6.94983E-28
4.00316E-01 6.68044E-28
4.04596E-01 6.42205E-28
4.08882E-01 6.17418E-28
4.13176E-01 5.93638E-28
4.17476E-01 5.70822E-28
4.21783E-01 5.48926E-28
4.26095E-01 5.27913E-28
4.30413E-01 5.07743E-28
4.34737E-01 4.88382E-28
4.39065E-01 4.69794E-28
4.43398E-01 4.51947E-28
4.47736E-01 4.34809E-28
4.52077E-01 4.18350E-28
4.56422E-01 4.02542E-28
4.60770E-01 3.87358E-28
4.65122E-01 3.72771E-28
4.69476E-01 3.58758E-28
4.73832E-01 3.45292E-28
4.78190E-01 3.32354E-28
4.82550E-01 3.19919E-28
4.86912E-01 3.07969E-28
4.91274E-01 2.96482E-28
4.95637E-01 2.85440E-28
5.00000E-01 2.74825E-28
5.04363E-01 2.64619E-28
5.08726E-01 2.54806E-28
5.13088E-01 2.45370E-28
5.17450E-01 2.36296E-28
5.21810E-01 2.27569E-28
5.26168E-01 2.19175E-28
5.30524E-01 2.11101E-28
5.34878E-01 2.03334E-28
5.39230E-01 1.95862E-28
5.43578E-01 1.88673E-28
5.47923E-01 1.81756E-28
5.52264E-01 1.75101E-28
5.56602E-01 1.68696E-28
5.60935E-01 1.62532E-28
5.65263E-01 1.56600E-28
5.69587E-01 1.50890E-28
5.73905E-01 1.45394E-28
5.78217E-01 1.40103E-28
5.82524E-01 1.35010E-28
5.86824E-01 1.30107E-28
5.91118E-01 1.25386E-28
5.95404E-01 1.20840E-28
5.99684E-01 1.16463E-28
6.03956E-01 1.12248E-28
6.08220E-01 1.08189E-28
6.12476E-01 1.04279E-28
6.16723E-01 1.00514E-28
6.20961E-01 9.68875E-29
6.25190E-01 9.33943E-29
6.29410E-01 9.00293E-29
6.33619E-01 8.67876E-29
6.37819E-01 8.36647E-29
6.42008E-01 8.06559E-29
6.46186E-01 7.77571E-29
6.50353E-01 7.49639E-29
6.54508E-01 7.22725E-29
6.58652E-01 6.96789E-29
6.62784E-01 6.71796E-29
6.66903E-01 6.47710E-29
6.71010E-01 6.24497E-29
6.75104E-01 6.02124E-29
6.79184E-01 5.80560E-29
6.83251E-01 5.59775E-29
6.87303E-01 5.39739E-29
6.91342E-01 5.20426E-29
6.95366E-01 5.01807E-29
6.99375E-01 4.83858E-29
7.03368E-01 4.66553E-29
7.07347E-01 4.49870E-29
7.11309E-01 4.33784E-29
7.15256E-01 4.18274E-29
7.19186E-01 4.03318E-29
7.23099E-01 3.88897E-29
7.26995E-01 3.74990E-29
7.30874E-01 3.61579E-29
7.34736E-01 3.48646E-29
7.38579E-01 3.36173E-29
7.42405E-01 3.24144E-29
7.46212E-01 3.12541E-29
7.50000E-01 3.01350E-29
7.53769E-01 2.90556E-29
7.57519E-01 2.80144E-29
7.61249E-01 2.70101E-29
7.64960E-01 2.60412E-29
7.68650E-01 2.51066E-29
7.72320E-01 2.42049E-29
7.75968E-01 2.33351E-29
7.79596E-01 2.24959E-29
7.83203E-01 2.16862E-29
7.86788E-01 2.09050E-29
7.90351E-01 2.01513E-29
7.93893E-01 1.94240E-29
7.97411E-01 1.87222E-29
8.00908E-01 1.80451E-29
8.04381E-01 1.73917E-29
8.07831E-01 1.67611E-29
8.11257E-01 1.61526E-29
8.14660E-01 1.55654E-29
8.18039E-01 1.49987E-29
8.21394E-01 1.44518E-29
8.24724E-01 1.39239E-29
8.28030E-01 1.34145E-29
8.31310E-01 1.29228E-29
8.34565E-01 1.24482E-29
8.37795E-01 1.19902E-29
8.40999E-01 1.15481E-29
8.44177E-01 1.11213E-29
8.47329E-01 1.07094E-29
8.50455E-01 1.03118E-29
8.53553E-01 9.92799E-30
8.56625E-01 9.55750E-30
8.59670E-01 9.19985E-30
8.62687E-01 8.85461E-30
8.65677E-01 8.52133E-30
8.68639E-01 8.19959E-30
8.71572E-01 7.88900E-30
8.74478E-01 7.58916E-30
8.77355E-01 7.29970E-30
8.80203E-01 7.02026E-30
8.83022E-01 6.75049E-30
8.85812E-01 6.49005E-30
8.88573E-01 6.23862E-30
8.91304E-01 5.99589E-30
8.94005E-01 5.76156E-30
8.96677E-01 5.53533E-30
8.99318E-01 5.31693E-30
9.01928E-01 5.10609E-30
9.04508E-01 4.90256E-30
9.07058E-01 4.70607E-30
9.09576E-01 4.51638E-30
9.12063E-01 4.33328E-30
9.14519E-01 4.15652E-30
9.16943E-01 3.98590E-30
9.19335E-01 3.82120E-30
9.21696E-01 3.66223E-30
9.24024E-01 3.50879E-30
9.26320E-01 3.36070E-30
9.28584E-01 3.21777E-30
9.30815E-01 3.07983E-30
9.33013E-01 2.94672E-30
9.35178E-01 2.81827E-30
9.37310E-01 2.69433E-30
9.39409E-01 2.57475E-30
9.41474E-01 2.45938E-30
9.43505E-01 2.34809E-30
9.45503E-01 2.24074E-30
9.47467E-01 2.13720E-30
9.49397E-01 2.03735E-30
9.51293E-01 1.94107E-30
9.53154E-01 1.84824E-30
9.54981E-01 1.75876E-30
9.56773E-01 1.67251E-30
9.58530E-01 1.58939E-30
9.60252E-01 1.50931E-30
9.61940E-01 1.43217E-30
9.63592E-01 1.35787E-30
9.65209E-01 1.28633E-30
9.66790E-01 1.21746E-30
9.68336E-01 1.15119E-30
9.69846E-01 1.08743E-30
9.71321E-01 1.02611E-30
9.72759E-01 9.67152E-31
9.74162E-01 9.10490E-31
9.75528E-01 8.56059E-31
9.76858E-01 8.03792E-31
9.78152E-01 7.53628E-31
9.79410E-01 7.05508E-31
9.80631E-01 6.59377E-31
9.81815E-01 6.15178E-31
9.82963E-01 5.72862E-31
9.84074E-01 5.32378E-31
9.85148E-01 4.93678E-31
9.86185E-01 4.56718E-31
9.87185E-01 4.21453E-31
9.88148E-01 3.87844E-31
9.89074E-01 3.55850E-31
9.89962E-01 3.25435E-31
9.90814E-01 2.96562E-31
9.91627E-01 2.69199E-31
9.92404E-01 2.43312E-31
9.93143E-01 2.18873E-31
9.93844E-01 1.95852E-31
9.94508E-01 1.74223E-31
9.95134E-01 1.53961E-31
9.95722E-01 1.35042E-31
9.96273E-01 1.17445E-31
9.96786E-01 1.01148E-31
9.97261E-01 8.61325E-32
9.97698E-01 7.23817E-32
9.98097E-01 5.98794E-32
9.98459E-01 4.86110E-32
9.98782E-01 3.85635E-32
9.99067E-01 2.97254E-32
9.99315E-01 2.20862E-32
9.99524E-01 1.56372E-32
9.99695E-01 1.03709E-32
9.99829E-01 6.28120E-33
9.99924E-01 3.36331E-33
9.99981E-01 1.61403E-33
1.00000E+00 1.03097E-33
