 #
 # Subroutine ELSEPA. Elastic scattering of electrons and positrons
 #                    by neutral atoms and positive ions
 #
 # Projectile: electron
 # Kinetic energy = 9.00000E+05 eV = 3.30744E+04 a.u.
 #
 # Element: Ca,  Z =  20,  atomic weight = 4.00780E+01 g/mol
 #
 # Nuclear model: Fermi distribution
 #                Average radius = 3.66173E-13 cm
 #                Skin thickness = 5.46000E-14 cm
 #
 # Number of electrons = 20
 #
 # Electron density: Read from file Data/z_020.d
 #                   Number of data points =  809
 #                   Volume integral = 2.00000E+01
 #
 # Furness-McCarthy exchange potential
 #
 # LDA absorption potential (only electron-hole excitations):
 #                           Delta = 1.88000E+00 eV
 #                            Aabs = 2.00000E+00
 #
 # Total elastic cross section = 2.08453E-18 cm**2 = 7.44401E-02 a0**2
 # 1st transport cross section = 3.19336E-22 cm**2 = 1.14037E-05 a0**2
 # 2nd transport cross section = 8.89682E-22 cm**2 = 3.17711E-05 a0**2
 #
 #    Absorption cross section = 6.30730E-19 cm**2 = 2.25238E-02 a0**2
 #   Grand total cross section = 2.71744E-18 cm**2 = 9.70414E-02 a0**2
 #
 #
 # Differential cross section:                       MU=(1-COS(THETA))/2
 #
 #  THETA        MU          DCS          DCS        Sherman      error
 #  (deg)                 (cm**2/sr)   (a0**2/sr)    function
 #----------------------------------------------------------------------
0.00000E+00 7.45565E-14
7.61557E-13 7.45564E-14
1.18994E-12 7.45564E-14
1.71346E-12 7.45563E-14
2.33225E-12 7.45563E-14
3.04617E-12 7.45562E-14
3.85530E-12 7.45561E-14
4.75964E-12 7.45561E-14
5.75917E-12 7.45560E-14
6.85391E-12 7.45559E-14
8.04379E-12 7.45558E-14
9.32893E-12 7.45556E-14
1.07092E-11 7.45555E-14
1.21847E-11 7.45554E-14
1.37554E-11 7.45552E-14
1.54213E-11 7.45551E-14
1.71823E-11 7.45549E-14
1.90386E-11 7.45547E-14
2.09900E-11 7.45545E-14
2.30367E-11 7.45544E-14
2.51785E-11 7.45542E-14
2.74156E-11 7.45539E-14
2.97478E-11 7.45537E-14
3.21752E-11 7.45535E-14
3.46979E-11 7.45533E-14
3.73157E-11 7.45530E-14
4.00286E-11 7.45528E-14
4.28368E-11 7.45525E-14
4.57402E-11 7.45522E-14
4.87388E-11 7.45520E-14
5.18325E-11 7.45517E-14
5.50215E-11 7.45514E-14
5.83057E-11 7.45511E-14
6.16850E-11 7.45507E-14
6.51595E-11 7.45504E-14
6.87293E-11 7.45501E-14
7.23943E-11 7.45497E-14
7.61544E-11 7.45494E-14
1.18991E-10 7.45454E-14
1.71347E-10 7.45405E-14
2.33223E-10 7.45347E-14
3.04617E-10 7.45281E-14
3.85531E-10 7.45205E-14
4.75965E-10 7.45121E-14
5.75917E-10 7.45028E-14
6.85389E-10 7.44926E-14
8.04380E-10 7.44815E-14
9.32891E-10 7.44695E-14
1.07092E-09 7.44566E-14
1.21847E-09 7.44429E-14
1.37554E-09 7.44283E-14
1.54213E-09 7.44128E-14
1.71823E-09 7.43964E-14
1.90386E-09 7.43791E-14
2.09900E-09 7.43610E-14
2.30367E-09 7.43419E-14
2.51785E-09 7.43220E-14
2.74156E-09 7.43012E-14
2.97478E-09 7.42796E-14
3.21752E-09 7.42571E-14
3.46978E-09 7.42337E-14
3.73156E-09 7.42094E-14
4.00286E-09 7.41842E-14
4.28368E-09 7.41582E-14
4.57402E-09 7.41313E-14
4.87388E-09 7.41036E-14
5.18326E-09 7.40750E-14
5.50215E-09 7.40455E-14
5.83057E-09 7.40152E-14
6.16850E-09 7.39840E-14
6.51596E-09 7.39519E-14
6.87293E-09 7.39190E-14
7.23942E-09 7.38852E-14
7.61544E-09 7.38506E-14
1.18991E-08 7.34578E-14
1.71347E-08 7.29818E-14
2.33223E-08 7.24251E-14
3.04617E-08 7.17904E-14
3.85531E-08 7.10808E-14
4.75965E-08 7.02999E-14
5.75917E-08 6.94513E-14
6.85389E-08 6.85391E-14
8.04380E-08 6.75673E-14
9.32891E-08 6.65404E-14
1.07092E-07 6.54629E-14
1.21847E-07 6.43393E-14
1.37554E-07 6.31744E-14
1.54213E-07 6.19726E-14
1.71823E-07 6.07388E-14
1.90386E-07 5.94775E-14
2.09900E-07 5.81932E-14
2.30367E-07 5.68904E-14
2.51785E-07 5.55733E-14
2.74156E-07 5.42460E-14
2.97478E-07 5.29126E-14
3.21752E-07 5.15767E-14
3.46978E-07 5.02420E-14
3.73156E-07 4.89118E-14
4.00286E-07 4.75891E-14
4.28368E-07 4.62770E-14
4.57402E-07 4.49780E-14
4.87388E-07 4.36947E-14
5.18325E-07 4.24292E-14
5.50215E-07 4.11834E-14
5.83057E-07 3.99592E-14
6.16850E-07 3.87581E-14
6.51596E-07 3.75814E-14
6.87293E-07 3.64303E-14
7.23942E-07 3.53057E-14
7.61543E-07 3.42084E-14
1.18991E-06 2.48030E-14
1.71347E-06 1.80810E-14
2.33223E-06 1.34509E-14
3.04617E-06 1.02720E-14
3.85531E-06 8.05029E-15
4.75964E-06 6.45201E-15
5.75916E-06 5.26441E-15
6.85388E-06 4.35437E-15
8.04378E-06 3.63835E-15
9.32888E-06 3.06298E-15
1.07092E-05 2.59327E-15
1.21846E-05 2.20537E-15
1.37553E-05 1.88244E-15
1.54212E-05 1.61208E-15
1.71822E-05 1.38480E-15
1.90385E-05 1.19317E-15
2.09899E-05 1.03121E-15
2.30365E-05 8.94026E-16
2.51783E-05 7.77607E-16
2.74153E-05 6.78612E-16
2.97475E-05 5.94259E-16
3.21749E-05 5.22220E-16
3.46974E-05 4.60547E-16
3.73152E-05 4.07609E-16
4.00281E-05 3.62043E-16
4.28362E-05 3.22711E-16
4.57395E-05 2.88660E-16
4.87380E-05 2.59087E-16
5.18317E-05 2.33320E-16
5.50205E-05 2.10793E-16
5.83045E-05 1.91035E-16
6.16838E-05 1.73648E-16
6.51582E-05 1.58299E-16
6.87277E-05 1.44703E-16
7.23925E-05 1.32618E-16
7.61524E-05 1.21843E-16
9.21439E-05 8.87598E-17
1.09658E-04 6.66128E-17
1.28695E-04 5.11757E-17
1.49255E-04 4.00486E-17
1.71338E-04 3.18071E-17
1.94942E-04 2.55709E-17
2.20070E-04 2.07706E-17
2.46720E-04 1.70230E-17
2.74892E-04 1.40633E-17
3.04586E-04 1.17034E-17
3.35803E-04 9.80545E-18
3.68542E-04 8.26711E-18
4.02802E-04 7.01177E-18
4.38585E-04 5.98084E-18
4.75889E-04 5.12887E-18
5.14715E-04 4.42069E-18
5.55063E-04 3.82891E-18
5.96931E-04 3.33180E-18
6.40321E-04 2.91199E-18
6.85233E-04 2.55577E-18
7.31665E-04 2.25220E-18
7.79618E-04 1.99225E-18
8.29092E-04 1.76866E-18
8.80086E-04 1.57561E-18
9.32601E-04 1.40827E-18
9.86636E-04 1.26263E-18
1.04219E-03 1.13540E-18
1.09927E-03 1.02391E-18
1.15786E-03 9.25853E-19
1.21797E-03 8.39325E-19
1.27961E-03 7.62741E-19
1.34276E-03 6.94770E-19
1.40743E-03 6.34258E-19
1.47362E-03 5.80240E-19
1.54133E-03 5.31899E-19
1.61056E-03 4.88529E-19
1.68131E-03 4.49521E-19
1.75357E-03 4.14358E-19
1.82735E-03 3.82594E-19
1.90265E-03 3.53838E-19
1.97947E-03 3.27751E-19
2.05780E-03 3.04041E-19
2.13765E-03 2.82451E-19
2.21902E-03 2.62755E-19
2.30190E-03 2.44756E-19
2.38630E-03 2.28280E-19
2.47222E-03 2.13176E-19
2.55965E-03 1.99307E-19
2.64859E-03 1.86553E-19
2.73905E-03 1.74806E-19
2.83103E-03 1.63974E-19
2.92452E-03 1.53971E-19
3.01952E-03 1.44723E-19
3.11604E-03 1.36160E-19
3.21407E-03 1.28224E-19
3.31362E-03 1.20859E-19
3.41468E-03 1.14017E-19
3.51725E-03 1.07653E-19
3.62133E-03 1.01728E-19
3.72692E-03 9.62055E-20
3.83403E-03 9.10539E-20
3.94265E-03 8.62430E-20
4.05278E-03 8.17460E-20
4.16442E-03 7.75386E-20
4.27757E-03 7.35988E-20
4.39223E-03 6.99065E-20
4.50840E-03 6.64432E-20
4.62608E-03 6.31917E-20
4.74527E-03 6.01369E-20
4.86597E-03 5.72645E-20
4.98817E-03 5.45616E-20
5.11188E-03 5.20164E-20
5.23711E-03 4.96181E-20
5.36383E-03 4.73565E-20
5.49207E-03 4.52223E-20
5.62181E-03 4.32069E-20
5.75306E-03 4.13025E-20
5.88581E-03 3.95019E-20
6.02007E-03 3.77985E-20
6.15583E-03 3.61860E-20
6.29310E-03 3.46585E-20
6.43187E-03 3.32108E-20
6.57214E-03 3.18378E-20
6.71392E-03 3.05350E-20
6.85720E-03 2.92982E-20
7.00198E-03 2.81235E-20
7.14827E-03 2.70071E-20
7.29605E-03 2.59454E-20
7.44534E-03 2.49355E-20
7.59612E-03 2.39742E-20
7.97965E-03 2.17660E-20
8.37255E-03 1.98064E-20
8.77480E-03 1.80623E-20
9.18641E-03 1.65062E-20
9.60736E-03 1.51142E-20
1.00376E-02 1.38658E-20
1.04773E-02 1.27438E-20
1.09262E-02 1.17331E-20
1.13844E-02 1.08206E-20
1.18520E-02 9.99526E-21
1.23288E-02 9.24712E-21
1.28150E-02 8.56779E-21
1.33104E-02 7.94973E-21
1.38150E-02 7.38647E-21
1.43290E-02 6.87230E-21
1.48521E-02 6.40211E-21
1.53845E-02 5.97153E-21
1.59262E-02 5.57659E-21
1.64770E-02 5.21380E-21
1.70371E-02 4.88009E-21
1.76063E-02 4.57269E-21
1.81848E-02 4.28916E-21
1.87724E-02 4.02731E-21
1.93692E-02 3.78517E-21
1.99751E-02 3.56099E-21
2.05901E-02 3.35320E-21
2.12143E-02 3.16037E-21
2.18476E-02 2.98124E-21
2.24900E-02 2.81464E-21
2.31415E-02 2.65954E-21
2.38021E-02 2.51501E-21
2.44717E-02 2.38018E-21
2.51504E-02 2.25428E-21
2.58382E-02 2.13663E-21
2.65349E-02 2.02656E-21
2.72407E-02 1.92351E-21
2.79555E-02 1.82694E-21
2.86793E-02 1.73637E-21
2.94120E-02 1.65136E-21
3.01537E-02 1.57150E-21
3.09043E-02 1.49642E-21
3.16639E-02 1.42579E-21
3.24324E-02 1.35928E-21
3.32098E-02 1.29661E-21
3.39961E-02 1.23753E-21
3.47912E-02 1.18178E-21
3.55952E-02 1.12914E-21
3.64081E-02 1.07941E-21
3.72297E-02 1.03239E-21
3.80602E-02 9.87912E-22
3.88995E-02 9.45809E-22
3.97476E-02 9.05932E-22
4.06044E-02 8.68139E-22
4.14700E-02 8.32301E-22
4.23443E-02 7.98299E-22
4.32273E-02 7.66019E-22
4.41190E-02 7.35359E-22
4.50194E-02 7.06220E-22
4.59284E-02 6.78514E-22
4.68461E-02 6.52158E-22
4.87074E-02 6.03182E-22
5.06030E-02 5.58729E-22
5.25328E-02 5.18305E-22
5.44967E-02 4.81479E-22
5.64946E-02 4.47872E-22
5.85262E-02 4.17153E-22
6.05914E-02 3.89027E-22
6.26901E-02 3.63237E-22
6.48222E-02 3.39552E-22
6.69873E-02 3.17770E-22
6.91854E-02 2.97708E-22
7.14163E-02 2.79207E-22
7.36799E-02 2.62123E-22
7.59760E-02 2.46327E-22
7.83043E-02 2.31704E-22
8.06647E-02 2.18152E-22
8.30571E-02 2.05576E-22
8.54812E-02 1.93894E-22
8.79369E-02 1.83030E-22
9.04240E-02 1.72916E-22
9.29422E-02 1.63491E-22
9.54915E-02 1.54700E-22
9.80716E-02 1.46491E-22
1.00682E-01 1.38820E-22
1.03323E-01 1.31643E-22
1.05995E-01 1.24924E-22
1.08696E-01 1.18627E-22
1.11427E-01 1.12722E-22
1.14188E-01 1.07179E-22
1.16978E-01 1.01971E-22
1.19797E-01 9.70760E-23
1.22645E-01 9.24699E-23
1.25522E-01 8.81331E-23
1.28428E-01 8.40468E-23
1.31361E-01 8.01938E-23
1.34323E-01 7.65583E-23
1.37313E-01 7.31257E-23
1.40330E-01 6.98825E-23
1.43375E-01 6.68164E-23
1.46447E-01 6.39157E-23
1.49545E-01 6.11700E-23
1.52671E-01 5.85693E-23
1.55823E-01 5.61046E-23
1.59001E-01 5.37675E-23
1.62205E-01 5.15500E-23
1.65435E-01 4.94448E-23
1.68690E-01 4.74453E-23
1.71970E-01 4.55451E-23
1.75276E-01 4.37383E-23
1.78606E-01 4.20195E-23
1.81961E-01 4.03836E-23
1.85340E-01 3.88259E-23
1.88743E-01 3.73418E-23
1.92169E-01 3.59273E-23
1.95619E-01 3.45784E-23
1.99092E-01 3.32916E-23
2.02589E-01 3.20635E-23
2.06107E-01 3.08908E-23
2.09649E-01 2.97707E-23
2.13212E-01 2.87002E-23
2.16797E-01 2.76768E-23
2.20404E-01 2.66980E-23
2.24032E-01 2.57615E-23
2.27680E-01 2.48652E-23
2.31350E-01 2.40069E-23
2.35040E-01 2.31848E-23
2.38751E-01 2.23971E-23
2.42481E-01 2.16420E-23
2.46231E-01 2.09179E-23
2.50000E-01 2.02233E-23
2.53788E-01 1.95569E-23
2.57595E-01 1.89171E-23
2.61421E-01 1.83029E-23
2.65264E-01 1.77129E-23
2.69126E-01 1.71460E-23
2.73005E-01 1.66011E-23
2.76901E-01 1.60773E-23
2.80814E-01 1.55735E-23
2.84744E-01 1.50889E-23
2.88691E-01 1.46226E-23
2.92653E-01 1.41738E-23
2.96632E-01 1.37416E-23
3.00625E-01 1.33254E-23
3.04634E-01 1.29244E-23
3.08658E-01 1.25380E-23
3.12697E-01 1.21656E-23
3.16749E-01 1.18065E-23
3.20816E-01 1.14602E-23
3.24896E-01 1.11262E-23
3.28990E-01 1.08039E-23
3.33097E-01 1.04929E-23
3.37216E-01 1.01926E-23
3.41348E-01 9.90267E-24
3.45492E-01 9.62266E-24
3.49647E-01 9.35215E-24
3.53814E-01 9.09077E-24
3.57992E-01 8.83816E-24
3.62181E-01 8.59397E-24
3.66381E-01 8.35787E-24
3.70590E-01 8.12953E-24
3.74810E-01 7.90865E-24
3.79039E-01 7.69494E-24
3.83277E-01 7.48814E-24
3.87524E-01 7.28796E-24
3.91780E-01 7.09418E-24
3.96044E-01 6.90653E-24
4.00316E-01 6.72480E-24
4.04596E-01 6.54876E-24
4.08882E-01 6.37819E-24
4.13176E-01 6.21291E-24
4.17476E-01 6.05271E-24
4.21783E-01 5.89741E-24
4.26095E-01 5.74683E-24
4.30413E-01 5.60081E-24
4.34737E-01 5.45917E-24
4.39065E-01 5.32177E-24
4.43398E-01 5.18846E-24
4.47736E-01 5.05908E-24
4.52077E-01 4.93351E-24
4.56422E-01 4.81162E-24
4.60770E-01 4.69326E-24
4.65122E-01 4.57834E-24
4.69476E-01 4.46671E-24
4.73832E-01 4.35829E-24
4.78190E-01 4.25294E-24
4.82550E-01 4.15059E-24
4.86912E-01 4.05111E-24
4.91274E-01 3.95443E-24
4.95637E-01 3.86044E-24
5.00000E-01 3.76906E-24
5.04363E-01 3.68020E-24
5.08726E-01 3.59378E-24
5.13088E-01 3.50973E-24
5.17450E-01 3.42796E-24
5.21810E-01 3.34840E-24
5.26168E-01 3.27098E-24
5.30524E-01 3.19564E-24
5.34878E-01 3.12231E-24
5.39230E-01 3.05093E-24
5.43578E-01 2.98144E-24
5.47923E-01 2.91377E-24
5.52264E-01 2.84787E-24
5.56602E-01 2.78369E-24
5.60935E-01 2.72118E-24
5.65263E-01 2.66028E-24
5.69587E-01 2.60094E-24
5.73905E-01 2.54313E-24
5.78217E-01 2.48678E-24
5.82524E-01 2.43187E-24
5.86824E-01 2.37835E-24
5.91118E-01 2.32617E-24
5.95404E-01 2.27530E-24
5.99684E-01 2.22569E-24
6.03956E-01 2.17732E-24
6.08220E-01 2.13015E-24
6.12476E-01 2.08414E-24
6.16723E-01 2.03926E-24
6.20961E-01 1.99547E-24
6.25190E-01 1.95275E-24
6.29410E-01 1.91107E-24
6.33619E-01 1.87039E-24
6.37819E-01 1.83069E-24
6.42008E-01 1.79194E-24
6.46186E-01 1.75412E-24
6.50353E-01 1.71720E-24
6.54508E-01 1.68115E-24
6.58652E-01 1.64596E-24
6.62784E-01 1.61159E-24
6.66903E-01 1.57803E-24
6.71010E-01 1.54525E-24
6.75104E-01 1.51323E-24
6.79184E-01 1.48196E-24
6.83251E-01 1.45141E-24
6.87303E-01 1.42157E-24
6.91342E-01 1.39241E-24
6.95366E-01 1.36392E-24
6.99375E-01 1.33608E-24
7.03368E-01 1.30887E-24
7.07347E-01 1.28228E-24
7.11309E-01 1.25629E-24
7.15256E-01 1.23089E-24
7.19186E-01 1.20605E-24
7.23099E-01 1.18178E-24
7.26995E-01 1.15805E-24
7.30874E-01 1.13484E-24
7.34736E-01 1.11215E-24
7.38579E-01 1.08997E-24
7.42405E-01 1.06827E-24
7.46212E-01 1.04706E-24
7.50000E-01 1.02631E-24
7.53769E-01 1.00601E-24
7.57519E-01 9.86165E-25
7.61249E-01 9.66750E-25
7.64960E-01 9.47757E-25
7.68650E-01 9.29178E-25
7.72320E-01 9.11001E-25
7.75968E-01 8.93219E-25
7.79596E-01 8.75821E-25
7.83203E-01 8.58798E-25
7.86788E-01 8.42142E-25
7.90351E-01 8.25844E-25
7.93893E-01 8.09896E-25
7.97411E-01 7.94290E-25
8.00908E-01 7.79018E-25
8.04381E-01 7.64071E-25
8.07831E-01 7.49444E-25
8.11257E-01 7.35129E-25
8.14660E-01 7.21119E-25
8.18039E-01 7.07406E-25
8.21394E-01 6.93985E-25
8.24724E-01 6.80848E-25
8.28030E-01 6.67991E-25
8.31310E-01 6.55406E-25
8.34565E-01 6.43088E-25
8.37795E-01 6.31030E-25
8.40999E-01 6.19228E-25
8.44177E-01 6.07676E-25
8.47329E-01 5.96368E-25
8.50455E-01 5.85300E-25
8.53553E-01 5.74466E-25
8.56625E-01 5.63861E-25
8.59670E-01 5.53481E-25
8.62687E-01 5.43321E-25
8.65677E-01 5.33376E-25
8.68639E-01 5.23643E-25
8.71572E-01 5.14116E-25
8.74478E-01 5.04792E-25
8.77355E-01 4.95667E-25
8.80203E-01 4.86736E-25
8.83022E-01 4.77997E-25
8.85812E-01 4.69444E-25
8.88573E-01 4.61075E-25
8.91304E-01 4.52886E-25
8.94005E-01 4.44873E-25
8.96677E-01 4.37033E-25
8.99318E-01 4.29364E-25
9.01928E-01 4.21860E-25
9.04508E-01 4.14521E-25
9.07058E-01 4.07342E-25
9.09576E-01 4.00320E-25
9.12063E-01 3.93453E-25
9.14519E-01 3.86738E-25
9.16943E-01 3.80173E-25
9.19335E-01 3.73754E-25
9.21696E-01 3.67479E-25
9.24024E-01 3.61345E-25
9.26320E-01 3.55351E-25
9.28584E-01 3.49493E-25
9.30815E-01 3.43770E-25
9.33013E-01 3.38179E-25
9.35178E-01 3.32718E-25
9.37310E-01 3.27385E-25
9.39409E-01 3.22177E-25
9.41474E-01 3.17094E-25
9.43505E-01 3.12132E-25
9.45503E-01 3.07290E-25
9.47467E-01 3.02567E-25
9.49397E-01 2.97959E-25
9.51293E-01 2.93466E-25
9.53154E-01 2.89086E-25
9.54981E-01 2.84817E-25
9.56773E-01 2.80658E-25
9.58530E-01 2.76607E-25
9.60252E-01 2.72662E-25
9.61940E-01 2.68823E-25
9.63592E-01 2.65087E-25
9.65209E-01 2.61454E-25
9.66790E-01 2.57921E-25
9.68336E-01 2.54488E-25
9.69846E-01 2.51154E-25
9.71321E-01 2.47917E-25
9.72759E-01 2.44775E-25
9.74162E-01 2.41729E-25
9.75528E-01 2.38776E-25
9.76858E-01 2.35916E-25
9.78152E-01 2.33148E-25
9.79410E-01 2.30470E-25
9.80631E-01 2.27882E-25
9.81815E-01 2.25383E-25
9.82963E-01 2.22972E-25
9.84074E-01 2.20648E-25
9.85148E-01 2.18410E-25
9.86185E-01 2.16258E-25
9.87185E-01 2.14190E-25
9.88148E-01 2.12207E-25
9.89074E-01 2.10306E-25
9.89962E-01 2.08488E-25
9.90814E-01 2.06752E-25
9.91627E-01 2.05098E-25
9.92404E-01 2.03524E-25
9.93143E-01 2.02030E-25
9.93844E-01 2.00616E-25
9.94508E-01 1.99281E-25
9.95134E-01 1.98025E-25
9.95722E-01 1.96847E-25
9.96273E-01 1.95747E-25
9.96786E-01 1.94725E-25
9.97261E-01 1.93779E-25
9.97698E-01 1.92911E-25
9.98097E-01 1.92119E-25
9.98459E-01 1.91403E-25
9.98782E-01 1.90764E-25
9.99067E-01 1.90200E-25
9.99315E-01 1.89712E-25
9.99524E-01 1.89299E-25
9.99695E-01 1.88961E-25
9.99829E-01 1.88699E-25
9.99924E-01 1.88512E-25
9.99981E-01 1.88399E-25
1.00000E+00 1.88370E-25
