 #
 # Subroutine ELSEPA. Elastic scattering of electrons and positrons
 #                    by neutral atoms and positive ions
 #
 # Projectile: electron
 # Kinetic energy = 3.50000E+06 eV = 1.28623E+05 a.u.
 #
 # WARNING: High-energy factorization with free-atom DF screening.
 #          Absorption, polarization and exchange corrections are
 #          switched off.
 #          Phase shifts are calculated for the bare nucleus.
 #          Scattering amplitudes are not evaluated.
 #
 # Element: Ca,  Z =  20,  atomic weight = 4.00780E+01 g/mol
 #
 # Nuclear model: Fermi distribution
 #                Average radius = 3.66173E-13 cm
 #                Skin thickness = 5.46000E-14 cm
 #
 # Number of electrons = 20
 #
 # Total elastic cross section = 1.84198E-18 cm**2 = 6.57781E-02 a0**2
 # 1st transport cross section = 3.80603E-23 cm**2 = 1.35916E-06 a0**2
 # 2nd transport cross section = 1.08111E-22 cm**2 = 3.86072E-06 a0**2
 #
 #
 # Differential cross section:                       MU=(1-COS(THETA))/2
 #
 #  THETA        MU          DCS          DCS        Sherman      error
 #  (deg)                 (cm**2/sr)   (a0**2/sr)    function
 #----------------------------------------------------------------------
0.00000E+00 6.02329E-13
7.61557E-13 6.02323E-13
1.18994E-12 6.02320E-13
1.71346E-12 6.02316E-13
2.33225E-12 6.02312E-13
3.04617E-12 6.02307E-13
3.85530E-12 6.02301E-13
4.75964E-12 6.02295E-13
5.75917E-12 6.02288E-13
6.85391E-12 6.02280E-13
8.04379E-12 6.02272E-13
9.32893E-12 6.02263E-13
1.07092E-11 6.02253E-13
1.21847E-11 6.02243E-13
1.37554E-11 6.02232E-13
1.54213E-11 6.02221E-13
1.71823E-11 6.02209E-13
1.90386E-11 6.02196E-13
2.09900E-11 6.02182E-13
2.30367E-11 6.02168E-13
2.51785E-11 6.02153E-13
2.74156E-11 6.02138E-13
2.97478E-11 6.02121E-13
3.21752E-11 6.02105E-13
3.46979E-11 6.02087E-13
3.73157E-11 6.02069E-13
4.00286E-11 6.02050E-13
4.28368E-11 6.02031E-13
4.57402E-11 6.02011E-13
4.87388E-11 6.01990E-13
5.18325E-11 6.01969E-13
5.50215E-11 6.01946E-13
5.83057E-11 6.01924E-13
6.16850E-11 6.01900E-13
6.51595E-11 6.01876E-13
6.87293E-11 6.01852E-13
7.23943E-11 6.01826E-13
7.61544E-11 6.01800E-13
1.18991E-10 6.01505E-13
1.71347E-10 6.01144E-13
2.33223E-10 6.00718E-13
3.04617E-10 6.00227E-13
3.85531E-10 5.99671E-13
4.75965E-10 5.99052E-13
5.75917E-10 5.98368E-13
6.85389E-10 5.97620E-13
8.04380E-10 5.96809E-13
9.32891E-10 5.95935E-13
1.07092E-09 5.94999E-13
1.21847E-09 5.94000E-13
1.37554E-09 5.92940E-13
1.54213E-09 5.91818E-13
1.71823E-09 5.90636E-13
1.90386E-09 5.89393E-13
2.09900E-09 5.88091E-13
2.30367E-09 5.86730E-13
2.51785E-09 5.85311E-13
2.74156E-09 5.83834E-13
2.97478E-09 5.82299E-13
3.21752E-09 5.80710E-13
3.46978E-09 5.79064E-13
3.73156E-09 5.77362E-13
4.00286E-09 5.75607E-13
4.28368E-09 5.73800E-13
4.57402E-09 5.71939E-13
4.87388E-09 5.70025E-13
5.18326E-09 5.68062E-13
5.50215E-09 5.66049E-13
5.83057E-09 5.63986E-13
6.16850E-09 5.61874E-13
6.51596E-09 5.59717E-13
6.87293E-09 5.57513E-13
7.23942E-09 5.55261E-13
7.61544E-09 5.52967E-13
1.18991E-08 5.27778E-13
1.71347E-08 4.99238E-13
2.33223E-08 4.68374E-13
3.04617E-08 4.36186E-13
3.85531E-08 4.03582E-13
4.75965E-08 3.71348E-13
5.75917E-08 3.40129E-13
6.85389E-08 3.10394E-13
8.04380E-08 2.82474E-13
9.32891E-08 2.56575E-13
1.07092E-07 2.33336E-13
1.21847E-07 2.11940E-13
1.37554E-07 1.92095E-13
1.54213E-07 1.73991E-13
1.71823E-07 1.58596E-13
1.90386E-07 1.44473E-13
2.09900E-07 1.31559E-13
2.30367E-07 1.20288E-13
2.51785E-07 1.10392E-13
2.74156E-07 1.01367E-13
2.97478E-07 9.31464E-14
3.21752E-07 8.61308E-14
3.46978E-07 7.97397E-14
3.73156E-07 7.39099E-14
4.00286E-07 6.86804E-14
4.28368E-07 6.40274E-14
4.57402E-07 5.97729E-14
4.87388E-07 5.58804E-14
5.18325E-07 5.23655E-14
5.50215E-07 4.91527E-14
5.83057E-07 4.62045E-14
6.16850E-07 4.34914E-14
6.51596E-07 4.09828E-14
6.87293E-07 3.86745E-14
7.23942E-07 3.65481E-14
7.61543E-07 3.45505E-14
1.18991E-06 2.05469E-14
1.71347E-06 1.27351E-14
2.33223E-06 8.12928E-15
3.04617E-06 5.34177E-15
3.85531E-06 3.62221E-15
4.75964E-06 2.53705E-15
5.75916E-06 1.83367E-15
6.85388E-06 1.36467E-15
8.04378E-06 1.04231E-15
9.32888E-06 8.14006E-16
1.07092E-05 6.47278E-16
1.21846E-05 5.23329E-16
1.37553E-05 4.28682E-16
1.54212E-05 3.54708E-16
1.71822E-05 2.96433E-16
1.90385E-05 2.49828E-16
2.09899E-05 2.11676E-16
2.30365E-05 1.80563E-16
2.51783E-05 1.54938E-16
2.74153E-05 1.33480E-16
2.97475E-05 1.15519E-16
3.21749E-05 1.00441E-16
3.46974E-05 8.76576E-17
3.73152E-05 7.67612E-17
4.00281E-05 6.74843E-17
4.28362E-05 5.95412E-17
4.57395E-05 5.26767E-17
4.87380E-05 4.67628E-17
5.18317E-05 4.16447E-17
5.50205E-05 3.71856E-17
5.83045E-05 3.32988E-17
6.16838E-05 2.99027E-17
6.51582E-05 2.69220E-17
6.87277E-05 2.42981E-17
7.23925E-05 2.19853E-17
7.61524E-05 1.99400E-17
9.21439E-05 1.37864E-17
1.09658E-04 9.83408E-18
1.28695E-04 7.20595E-18
1.49255E-04 5.40367E-18
1.71338E-04 4.13419E-18
1.94942E-04 3.21849E-18
2.20070E-04 2.54415E-18
2.46720E-04 2.03836E-18
2.74892E-04 1.65273E-18
3.04586E-04 1.35443E-18
3.35803E-04 1.12065E-18
3.68542E-04 9.35297E-19
4.02802E-04 7.86775E-19
4.38585E-04 6.66614E-19
4.75889E-04 5.68546E-19
5.14715E-04 4.87856E-19
5.55063E-04 4.20978E-19
5.96931E-04 3.65168E-19
6.40321E-04 3.18296E-19
6.85233E-04 2.78701E-19
7.31665E-04 2.45065E-19
7.79618E-04 2.16347E-19
8.29092E-04 1.91709E-19
8.80086E-04 1.70475E-19
9.32601E-04 1.52097E-19
9.86636E-04 1.36125E-19
1.04219E-03 1.22194E-19
1.09927E-03 1.09998E-19
1.15786E-03 9.92847E-20
1.21797E-03 8.98431E-20
1.27961E-03 8.14965E-20
1.34276E-03 7.40957E-20
1.40743E-03 6.75154E-20
1.47362E-03 6.16492E-20
1.54133E-03 5.64061E-20
1.61056E-03 5.17084E-20
1.68131E-03 4.74895E-20
1.75357E-03 4.36922E-20
1.82735E-03 4.02668E-20
1.90265E-03 3.71705E-20
1.97947E-03 3.43661E-20
2.05780E-03 3.18213E-20
2.13765E-03 2.95077E-20
2.21902E-03 2.74007E-20
2.30190E-03 2.54785E-20
2.38630E-03 2.37221E-20
2.47222E-03 2.21144E-20
2.55965E-03 2.06407E-20
2.64859E-03 1.92879E-20
2.73905E-03 1.80441E-20
2.83103E-03 1.68991E-20
2.92452E-03 1.58436E-20
3.01952E-03 1.48692E-20
3.11604E-03 1.39687E-20
3.21407E-03 1.31355E-20
3.31362E-03 1.23635E-20
3.41468E-03 1.16474E-20
3.51725E-03 1.09825E-20
3.62133E-03 1.03645E-20
3.72692E-03 9.78934E-21
3.83403E-03 9.25361E-21
3.94265E-03 8.75409E-21
4.05278E-03 8.28787E-21
4.16442E-03 7.85232E-21
4.27757E-03 7.44505E-21
4.39223E-03 7.06390E-21
4.50840E-03 6.70686E-21
4.62608E-03 6.37214E-21
4.74527E-03 6.05808E-21
4.86597E-03 5.76317E-21
4.98817E-03 5.48601E-21
5.11188E-03 5.22535E-21
5.23711E-03 4.98002E-21
5.36383E-03 4.74894E-21
5.49207E-03 4.53114E-21
5.62181E-03 4.32571E-21
5.75306E-03 4.13181E-21
5.88581E-03 3.94868E-21
6.02007E-03 3.77561E-21
6.15583E-03 3.61193E-21
6.29310E-03 3.45705E-21
6.43187E-03 3.31040E-21
6.57214E-03 3.17146E-21
6.71392E-03 3.03975E-21
6.85720E-03 2.91482E-21
7.00198E-03 2.79626E-21
7.14827E-03 2.68368E-21
7.29605E-03 2.57673E-21
7.44534E-03 2.47506E-21
7.59612E-03 2.37836E-21
7.97965E-03 2.15656E-21
8.37255E-03 1.96007E-21
8.77480E-03 1.78552E-21
9.18641E-03 1.63001E-21
9.60736E-03 1.49112E-21
1.00376E-02 1.36674E-21
1.04773E-02 1.25510E-21
1.09262E-02 1.15465E-21
1.13844E-02 1.06409E-21
1.18520E-02 9.82251E-22
1.23288E-02 9.08153E-22
1.28150E-02 8.40932E-22
1.33104E-02 7.79832E-22
1.38150E-02 7.24186E-22
1.43290E-02 6.73427E-22
1.48521E-02 6.27050E-22
1.53845E-02 5.84610E-22
1.59262E-02 5.45710E-22
1.64770E-02 5.10002E-22
1.70371E-02 4.77176E-22
1.76063E-02 4.46956E-22
1.81848E-02 4.19098E-22
1.87724E-02 3.93383E-22
1.93692E-02 3.69617E-22
1.99751E-02 3.47623E-22
2.05901E-02 3.27246E-22
2.12143E-02 3.08345E-22
2.18476E-02 2.90792E-22
2.24900E-02 2.74475E-22
2.31415E-02 2.59289E-22
2.38021E-02 2.45142E-22
2.44717E-02 2.31950E-22
2.51504E-02 2.19636E-22
2.58382E-02 2.08130E-22
2.65349E-02 1.97370E-22
2.72407E-02 1.87299E-22
2.79555E-02 1.77863E-22
2.86793E-02 1.69016E-22
2.94120E-02 1.60713E-22
3.01537E-02 1.52916E-22
3.09043E-02 1.45586E-22
3.16639E-02 1.38692E-22
3.24324E-02 1.32202E-22
3.32098E-02 1.26089E-22
3.39961E-02 1.20325E-22
3.47912E-02 1.14888E-22
3.55952E-02 1.09755E-22
3.64081E-02 1.04906E-22
3.72297E-02 1.00323E-22
3.80602E-02 9.59878E-23
3.88995E-02 9.18848E-23
3.97476E-02 8.79991E-23
4.06044E-02 8.43170E-23
4.14700E-02 8.08260E-23
4.23443E-02 7.75140E-23
4.32273E-02 7.43703E-23
4.41190E-02 7.13846E-23
4.50194E-02 6.85475E-23
4.59284E-02 6.58502E-23
4.68461E-02 6.32845E-23
4.87074E-02 5.85177E-23
5.06030E-02 5.41919E-23
5.25328E-02 5.02590E-23
5.44967E-02 4.66768E-23
5.64946E-02 4.34084E-23
5.85262E-02 4.04212E-23
6.05914E-02 3.76868E-23
6.26901E-02 3.51797E-23
6.48222E-02 3.28777E-23
6.69873E-02 3.07610E-23
6.91854E-02 2.88118E-23
7.14163E-02 2.70144E-23
7.36799E-02 2.53550E-23
7.59760E-02 2.38209E-23
7.83043E-02 2.24009E-23
8.06647E-02 2.10850E-23
8.30571E-02 1.98641E-23
8.54812E-02 1.87302E-23
8.79369E-02 1.76758E-23
9.04240E-02 1.66944E-23
9.29422E-02 1.57800E-23
9.54915E-02 1.49271E-23
9.80716E-02 1.41309E-23
1.00682E-01 1.33868E-23
1.03323E-01 1.26909E-23
1.05995E-01 1.20394E-23
1.08696E-01 1.14290E-23
1.11427E-01 1.08566E-23
1.14188E-01 1.03194E-23
1.16978E-01 9.81477E-24
1.19797E-01 9.34044E-24
1.22645E-01 8.89423E-24
1.25522E-01 8.47416E-24
1.28428E-01 8.07842E-24
1.31361E-01 7.70532E-24
1.34323E-01 7.35334E-24
1.37313E-01 7.02105E-24
1.40330E-01 6.70715E-24
1.43375E-01 6.41043E-24
1.46447E-01 6.12977E-24
1.49545E-01 5.86414E-24
1.52671E-01 5.61258E-24
1.55823E-01 5.37422E-24
1.59001E-01 5.14822E-24
1.62205E-01 4.93383E-24
1.65435E-01 4.73034E-24
1.68690E-01 4.53710E-24
1.71970E-01 4.35348E-24
1.75276E-01 4.17892E-24
1.78606E-01 4.01289E-24
1.81961E-01 3.85489E-24
1.85340E-01 3.70447E-24
1.88743E-01 3.56119E-24
1.92169E-01 3.42465E-24
1.95619E-01 3.29447E-24
1.99092E-01 3.17030E-24
2.02589E-01 3.05182E-24
2.06107E-01 2.93871E-24
2.09649E-01 2.83068E-24
2.13212E-01 2.72746E-24
2.16797E-01 2.62881E-24
2.20404E-01 2.53447E-24
2.24032E-01 2.44423E-24
2.27680E-01 2.35788E-24
2.31350E-01 2.27521E-24
2.35040E-01 2.19604E-24
2.38751E-01 2.12019E-24
2.42481E-01 2.04750E-24
2.46231E-01 1.97782E-24
2.50000E-01 1.91099E-24
2.53788E-01 1.84687E-24
2.57595E-01 1.78534E-24
2.61421E-01 1.72628E-24
2.65264E-01 1.66956E-24
2.69126E-01 1.61507E-24
2.73005E-01 1.56272E-24
2.76901E-01 1.51239E-24
2.80814E-01 1.46401E-24
2.84744E-01 1.41747E-24
2.88691E-01 1.37270E-24
2.92653E-01 1.32962E-24
2.96632E-01 1.28815E-24
3.00625E-01 1.24822E-24
3.04634E-01 1.20976E-24
3.08658E-01 1.17272E-24
3.12697E-01 1.13701E-24
3.16749E-01 1.10260E-24
3.20816E-01 1.06942E-24
3.24896E-01 1.03743E-24
3.28990E-01 1.00656E-24
3.33097E-01 9.76784E-25
3.37216E-01 9.48044E-25
3.41348E-01 9.20300E-25
3.45492E-01 8.93513E-25
3.49647E-01 8.67643E-25
3.53814E-01 8.42653E-25
3.57992E-01 8.18507E-25
3.62181E-01 7.95172E-25
3.66381E-01 7.72616E-25
3.70590E-01 7.50808E-25
3.74810E-01 7.29718E-25
3.79039E-01 7.09320E-25
3.83277E-01 6.89585E-25
3.87524E-01 6.70489E-25
3.91780E-01 6.52008E-25
3.96044E-01 6.34117E-25
4.00316E-01 6.16795E-25
4.04596E-01 6.00020E-25
4.08882E-01 5.83773E-25
4.13176E-01 5.68033E-25
4.17476E-01 5.52782E-25
4.21783E-01 5.38002E-25
4.26095E-01 5.23675E-25
4.30413E-01 5.09787E-25
4.34737E-01 4.96320E-25
4.39065E-01 4.83259E-25
4.43398E-01 4.70591E-25
4.47736E-01 4.58302E-25
4.52077E-01 4.46377E-25
4.56422E-01 4.34805E-25
4.60770E-01 4.23573E-25
4.65122E-01 4.12670E-25
4.69476E-01 4.02084E-25
4.73832E-01 3.91804E-25
4.78190E-01 3.81820E-25
4.82550E-01 3.72122E-25
4.86912E-01 3.62700E-25
4.91274E-01 3.53546E-25
4.95637E-01 3.44650E-25
5.00000E-01 3.36003E-25
5.04363E-01 3.27598E-25
5.08726E-01 3.19427E-25
5.13088E-01 3.11482E-25
5.17450E-01 3.03756E-25
5.21810E-01 2.96241E-25
5.26168E-01 2.88932E-25
5.30524E-01 2.81821E-25
5.34878E-01 2.74902E-25
5.39230E-01 2.68169E-25
5.43578E-01 2.61616E-25
5.47923E-01 2.55238E-25
5.52264E-01 2.49029E-25
5.56602E-01 2.42985E-25
5.60935E-01 2.37099E-25
5.65263E-01 2.31367E-25
5.69587E-01 2.25785E-25
5.73905E-01 2.20348E-25
5.78217E-01 2.15051E-25
5.82524E-01 2.09890E-25
5.86824E-01 2.04862E-25
5.91118E-01 1.99962E-25
5.95404E-01 1.95187E-25
5.99684E-01 1.90532E-25
6.03956E-01 1.85995E-25
6.08220E-01 1.81572E-25
6.12476E-01 1.77259E-25
6.16723E-01 1.73054E-25
6.20961E-01 1.68954E-25
6.25190E-01 1.64954E-25
6.29410E-01 1.61053E-25
6.33619E-01 1.57248E-25
6.37819E-01 1.53536E-25
6.42008E-01 1.49914E-25
6.46186E-01 1.46380E-25
6.50353E-01 1.42932E-25
6.54508E-01 1.39566E-25
6.58652E-01 1.36281E-25
6.62784E-01 1.33075E-25
6.66903E-01 1.29946E-25
6.71010E-01 1.26890E-25
6.75104E-01 1.23907E-25
6.79184E-01 1.20995E-25
6.83251E-01 1.18151E-25
6.87303E-01 1.15373E-25
6.91342E-01 1.12661E-25
6.95366E-01 1.10011E-25
6.99375E-01 1.07424E-25
7.03368E-01 1.04896E-25
7.07347E-01 1.02426E-25
7.11309E-01 1.00013E-25
7.15256E-01 9.76560E-26
7.19186E-01 9.53526E-26
7.23099E-01 9.31017E-26
7.26995E-01 9.09021E-26
7.30874E-01 8.87523E-26
7.34736E-01 8.66512E-26
7.38579E-01 8.45976E-26
7.42405E-01 8.25901E-26
7.46212E-01 8.06278E-26
7.50000E-01 7.87094E-26
7.53769E-01 7.68339E-26
7.57519E-01 7.50003E-26
7.61249E-01 7.32074E-26
7.64960E-01 7.14543E-26
7.68650E-01 6.97401E-26
7.72320E-01 6.80638E-26
7.75968E-01 6.64244E-26
7.79596E-01 6.48212E-26
7.83203E-01 6.32531E-26
7.86788E-01 6.17195E-26
7.90351E-01 6.02195E-26
7.93893E-01 5.87523E-26
7.97411E-01 5.73171E-26
8.00908E-01 5.59132E-26
8.04381E-01 5.45399E-26
8.07831E-01 5.31964E-26
8.11257E-01 5.18821E-26
8.14660E-01 5.05963E-26
8.18039E-01 4.93384E-26
8.21394E-01 4.81076E-26
8.24724E-01 4.69035E-26
8.28030E-01 4.57255E-26
8.31310E-01 4.45728E-26
8.34565E-01 4.34451E-26
8.37795E-01 4.23416E-26
8.40999E-01 4.12620E-26
8.44177E-01 4.02056E-26
8.47329E-01 3.91720E-26
8.50455E-01 3.81607E-26
8.53553E-01 3.71711E-26
8.56625E-01 3.62029E-26
8.59670E-01 3.52556E-26
8.62687E-01 3.43287E-26
8.65677E-01 3.34219E-26
8.68639E-01 3.25346E-26
8.71572E-01 3.16665E-26
8.74478E-01 3.08172E-26
8.77355E-01 2.99864E-26
8.80203E-01 2.91735E-26
8.83022E-01 2.83783E-26
8.85812E-01 2.76005E-26
8.88573E-01 2.68396E-26
8.91304E-01 2.60953E-26
8.94005E-01 2.53673E-26
8.96677E-01 2.46554E-26
8.99318E-01 2.39590E-26
9.01928E-01 2.32781E-26
9.04508E-01 2.26123E-26
9.07058E-01 2.19612E-26
9.09576E-01 2.13247E-26
9.12063E-01 2.07024E-26
9.14519E-01 2.00940E-26
9.16943E-01 1.94994E-26
9.19335E-01 1.89183E-26
9.21696E-01 1.83504E-26
9.24024E-01 1.77955E-26
9.26320E-01 1.72533E-26
9.28584E-01 1.67237E-26
9.30815E-01 1.62064E-26
9.33013E-01 1.57012E-26
9.35178E-01 1.52079E-26
9.37310E-01 1.47264E-26
9.39409E-01 1.42563E-26
9.41474E-01 1.37975E-26
9.43505E-01 1.33499E-26
9.45503E-01 1.29132E-26
9.47467E-01 1.24873E-26
9.49397E-01 1.20719E-26
9.51293E-01 1.16671E-26
9.53154E-01 1.12725E-26
9.54981E-01 1.08880E-26
9.56773E-01 1.05135E-26
9.58530E-01 1.01488E-26
9.60252E-01 9.79387E-27
9.61940E-01 9.44843E-27
9.63592E-01 9.11240E-27
9.65209E-01 8.78566E-27
9.66790E-01 8.46807E-27
9.68336E-01 8.15951E-27
9.69846E-01 7.85987E-27
9.71321E-01 7.56903E-27
9.72759E-01 7.28688E-27
9.74162E-01 7.01331E-27
9.75528E-01 6.74821E-27
9.76858E-01 6.49150E-27
9.78152E-01 6.24306E-27
9.79410E-01 6.00281E-27
9.80631E-01 5.77065E-27
9.81815E-01 5.54651E-27
9.82963E-01 5.33028E-27
9.84074E-01 5.12190E-27
9.85148E-01 4.92129E-27
9.86185E-01 4.72837E-27
9.87185E-01 4.54306E-27
9.88148E-01 4.36531E-27
9.89074E-01 4.19504E-27
9.89962E-01 4.03220E-27
9.90814E-01 3.87671E-27
9.91627E-01 3.72853E-27
9.92404E-01 3.58760E-27
9.93143E-01 3.45387E-27
9.93844E-01 3.32728E-27
9.94508E-01 3.20780E-27
9.95134E-01 3.09538E-27
9.95722E-01 2.98997E-27
9.96273E-01 2.89154E-27
9.96786E-01 2.80006E-27
9.97261E-01 2.71548E-27
9.97698E-01 2.63779E-27
9.98097E-01 2.56694E-27
9.98459E-01 2.50292E-27
9.98782E-01 2.44570E-27
9.99067E-01 2.39526E-27
9.99315E-01 2.35158E-27
9.99524E-01 2.31465E-27
9.99695E-01 2.28445E-27
9.99829E-01 2.26098E-27
9.99924E-01 2.24421E-27
9.99981E-01 2.23416E-27
1.00000E+00 2.23081E-27
