 #
 # Subroutine ELSEPA. Elastic scattering of electrons and positrons
 #                    by neutral atoms and positive ions
 #
 # Projectile: positron
 # Kinetic energy = 1.75000E+06 eV = 6.43113E+04 a.u.
 #
 # WARNING: High-energy factorization with free-atom DF screening.
 #          Absorption, polarization and exchange corrections are
 #          switched off.
 #          Phase shifts are calculated for the bare nucleus.
 #          Scattering amplitudes are not evaluated.
 #
 # Element: Fr,  Z =  87,  atomic weight = 2.23020E+02 g/mol
 #
 # Nuclear model: Fermi distribution
 #                Average radius = 6.48881E-13 cm
 #                Skin thickness = 5.46000E-14 cm
 #
 # Number of electrons = 87
 #
 # Total elastic cross section = 1.09489E-17 cm**2 = 3.90992E-01 a0**2
 # 1st transport cross section = 1.54873E-21 cm**2 = 5.53063E-05 a0**2
 # 2nd transport cross section = 4.38437E-21 cm**2 = 1.56569E-04 a0**2
 #
 #
 # Differential cross section:                       MU=(1-COS(THETA))/2
 #
 #  THETA        MU          DCS          DCS        Sherman      error
 #  (deg)                 (cm**2/sr)   (a0**2/sr)    function
 #----------------------------------------------------------------------
0.00000E+00 6.42300E-13
7.61557E-13 6.42297E-13
1.18994E-12 6.42296E-13
1.71346E-12 6.42294E-13
2.33225E-12 6.42293E-13
3.04617E-12 6.42291E-13
3.85530E-12 6.42289E-13
4.75964E-12 6.42286E-13
5.75917E-12 6.42283E-13
6.85391E-12 6.42281E-13
8.04379E-12 6.42277E-13
9.32893E-12 6.42274E-13
1.07092E-11 6.42270E-13
1.21847E-11 6.42267E-13
1.37554E-11 6.42262E-13
1.54213E-11 6.42258E-13
1.71823E-11 6.42254E-13
1.90386E-11 6.42249E-13
2.09900E-11 6.42244E-13
2.30367E-11 6.42239E-13
2.51785E-11 6.42233E-13
2.74156E-11 6.42227E-13
2.97478E-11 6.42221E-13
3.21752E-11 6.42215E-13
3.46979E-11 6.42209E-13
3.73157E-11 6.42202E-13
4.00286E-11 6.42195E-13
4.28368E-11 6.42188E-13
4.57402E-11 6.42180E-13
4.87388E-11 6.42173E-13
5.18325E-11 6.42165E-13
5.50215E-11 6.42157E-13
5.83057E-11 6.42148E-13
6.16850E-11 6.42140E-13
6.51595E-11 6.42131E-13
6.87293E-11 6.42122E-13
7.23943E-11 6.42113E-13
7.61544E-11 6.42103E-13
1.18991E-10 6.41995E-13
1.71347E-10 6.41862E-13
2.33223E-10 6.41707E-13
3.04617E-10 6.41527E-13
3.85531E-10 6.41324E-13
4.75965E-10 6.41097E-13
5.75917E-10 6.40847E-13
6.85389E-10 6.40573E-13
8.04380E-10 6.40276E-13
9.32891E-10 6.39956E-13
1.07092E-09 6.39612E-13
1.21847E-09 6.39245E-13
1.37554E-09 6.38855E-13
1.54213E-09 6.38442E-13
1.71823E-09 6.38006E-13
1.90386E-09 6.37547E-13
2.09900E-09 6.37066E-13
2.30367E-09 6.36561E-13
2.51785E-09 6.36034E-13
2.74156E-09 6.35485E-13
2.97478E-09 6.34913E-13
3.21752E-09 6.34319E-13
3.46978E-09 6.33703E-13
3.73156E-09 6.33065E-13
4.00286E-09 6.32405E-13
4.28368E-09 6.31723E-13
4.57402E-09 6.31020E-13
4.87388E-09 6.30295E-13
5.18326E-09 6.29549E-13
5.50215E-09 6.28782E-13
5.83057E-09 6.27994E-13
6.16850E-09 6.27185E-13
6.51596E-09 6.26355E-13
6.87293E-09 6.25505E-13
7.23942E-09 6.24635E-13
7.61544E-09 6.23744E-13
1.18991E-08 6.13769E-13
1.71347E-08 6.01991E-13
2.33223E-08 5.88627E-13
3.04617E-08 5.73912E-13
3.85531E-08 5.58088E-13
4.75965E-08 5.41414E-13
5.75917E-08 5.24394E-13
6.85389E-08 5.06551E-13
8.04380E-08 4.88672E-13
9.32891E-08 4.70823E-13
1.07092E-07 4.52689E-13
1.21847E-07 4.35500E-13
1.37554E-07 4.18202E-13
1.54213E-07 4.01568E-13
1.71823E-07 3.85527E-13
1.90386E-07 3.69701E-13
2.09900E-07 3.55074E-13
2.30367E-07 3.40679E-13
2.51785E-07 3.27087E-13
2.74156E-07 3.14168E-13
2.97478E-07 3.01628E-13
3.21752E-07 2.90076E-13
3.46978E-07 2.78852E-13
3.73156E-07 2.68291E-13
4.00286E-07 2.58280E-13
4.28368E-07 2.48643E-13
4.57402E-07 2.39676E-13
4.87388E-07 2.31029E-13
5.18325E-07 2.22850E-13
5.50215E-07 2.15072E-13
5.83057E-07 2.07611E-13
6.16850E-07 2.00562E-13
6.51596E-07 1.93795E-13
6.87293E-07 1.87338E-13
7.23942E-07 1.81168E-13
7.61543E-07 1.75254E-13
1.18991E-06 1.27626E-13
1.71347E-06 9.45827E-14
2.33223E-06 7.10434E-14
3.04617E-06 5.41303E-14
3.85531E-06 4.18934E-14
4.75964E-06 3.29287E-14
5.75916E-06 2.60582E-14
6.85388E-06 2.11851E-14
8.04378E-06 1.73738E-14
9.32888E-06 1.43701E-14
1.07092E-05 1.20967E-14
1.21846E-05 1.01430E-14
1.37553E-05 8.63399E-15
1.54212E-05 7.37905E-15
1.71822E-05 6.33695E-15
1.90385E-05 5.49434E-15
2.09899E-05 4.76325E-15
2.30365E-05 4.16693E-15
2.51783E-05 3.65538E-15
2.74153E-05 3.21822E-15
2.97475E-05 2.85189E-15
3.21749E-05 2.52810E-15
3.46974E-05 2.25546E-15
3.73152E-05 2.01761E-15
4.00281E-05 1.81081E-15
4.28362E-05 1.63281E-15
4.57395E-05 1.47305E-15
4.87380E-05 1.33480E-15
5.18317E-05 1.21145E-15
5.50205E-05 1.10203E-15
5.83045E-05 1.00578E-15
6.16838E-05 9.18192E-16
6.51582E-05 8.41064E-16
6.87277E-05 7.71279E-16
7.23925E-05 7.08552E-16
7.61524E-05 6.52529E-16
9.21439E-05 4.74799E-16
1.09658E-04 3.53225E-16
1.28695E-04 2.67744E-16
1.49255E-04 2.06352E-16
1.71338E-04 1.61784E-16
1.94942E-04 1.28707E-16
2.20070E-04 1.03728E-16
2.46720E-04 8.45518E-17
2.74892E-04 6.96240E-17
3.04586E-04 5.78828E-17
3.35803E-04 4.85309E-17
3.68542E-04 4.10038E-17
4.02802E-04 3.48846E-17
4.38585E-04 2.98613E-17
4.75889E-04 2.57100E-17
5.14715E-04 2.22403E-17
5.55063E-04 1.93602E-17
5.96931E-04 1.69251E-17
6.40321E-04 1.48603E-17
6.85233E-04 1.31107E-17
7.31665E-04 1.15995E-17
7.79618E-04 1.03079E-17
8.29092E-04 9.18859E-18
8.80086E-04 8.21716E-18
9.32601E-04 7.37417E-18
9.86636E-04 6.63203E-18
1.04219E-03 5.98401E-18
1.09927E-03 5.41177E-18
1.15786E-03 4.90619E-18
1.21797E-03 4.45957E-18
1.27961E-03 4.06041E-18
1.34276E-03 3.70622E-18
1.40743E-03 3.38896E-18
1.47362E-03 3.10481E-18
1.54133E-03 2.85032E-18
1.61056E-03 2.62026E-18
1.68131E-03 2.41353E-18
1.75357E-03 2.22632E-18
1.82735E-03 2.05685E-18
1.90265E-03 1.90341E-18
1.97947E-03 1.76347E-18
2.05780E-03 1.63644E-18
2.13765E-03 1.52039E-18
2.21902E-03 1.41443E-18
2.30190E-03 1.31764E-18
2.38630E-03 1.22873E-18
2.47222E-03 1.14733E-18
2.55965E-03 1.07243E-18
2.64859E-03 1.00355E-18
2.73905E-03 9.40152E-19
2.83103E-03 8.81559E-19
2.92452E-03 8.27538E-19
3.01952E-03 7.77521E-19
3.11604E-03 7.31228E-19
3.21407E-03 6.88356E-19
3.31362E-03 6.48515E-19
3.41468E-03 6.11560E-19
3.51725E-03 5.77159E-19
3.62133E-03 5.45146E-19
3.72692E-03 5.15337E-19
3.83403E-03 4.87498E-19
3.94265E-03 4.61541E-19
4.05278E-03 4.37264E-19
4.16442E-03 4.14565E-19
4.27757E-03 3.93327E-19
4.39223E-03 3.73407E-19
4.50840E-03 3.54748E-19
4.62608E-03 3.37223E-19
4.74527E-03 3.20769E-19
4.86597E-03 3.05311E-19
4.98817E-03 2.90755E-19
5.11188E-03 2.77066E-19
5.23711E-03 2.64161E-19
5.36383E-03 2.52000E-19
5.49207E-03 2.40532E-19
5.62181E-03 2.29697E-19
5.75306E-03 2.19472E-19
5.88581E-03 2.09800E-19
6.02007E-03 2.00655E-19
6.15583E-03 1.92004E-19
6.29310E-03 1.83805E-19
6.43187E-03 1.76043E-19
6.57214E-03 1.68680E-19
6.71392E-03 1.61697E-19
6.85720E-03 1.55072E-19
7.00198E-03 1.48776E-19
7.14827E-03 1.42799E-19
7.29605E-03 1.37114E-19
7.44534E-03 1.31708E-19
7.59612E-03 1.26567E-19
7.97965E-03 1.14758E-19
8.37255E-03 1.04286E-19
8.77480E-03 9.49731E-20
9.18641E-03 8.66700E-20
9.60736E-03 7.92481E-20
1.00376E-02 7.25980E-20
1.04773E-02 6.66257E-20
1.09262E-02 6.12502E-20
1.13844E-02 5.64018E-20
1.18520E-02 5.20198E-20
1.23288E-02 4.80518E-20
1.28150E-02 4.44518E-20
1.33104E-02 4.11799E-20
1.38150E-02 3.82011E-20
1.43290E-02 3.54844E-20
1.48521E-02 3.30029E-20
1.53845E-02 3.07327E-20
1.59262E-02 2.86527E-20
1.64770E-02 2.67442E-20
1.70371E-02 2.49906E-20
1.76063E-02 2.33771E-20
1.81848E-02 2.18905E-20
1.87724E-02 2.05192E-20
1.93692E-02 1.92527E-20
1.99751E-02 1.80815E-20
2.05901E-02 1.69972E-20
2.12143E-02 1.59922E-20
2.18476E-02 1.50598E-20
2.24900E-02 1.41937E-20
2.31415E-02 1.33883E-20
2.38021E-02 1.26388E-20
2.44717E-02 1.19405E-20
2.51504E-02 1.12893E-20
2.58382E-02 1.06815E-20
2.65349E-02 1.01136E-20
2.72407E-02 9.58259E-21
2.79555E-02 9.08565E-21
2.86793E-02 8.62019E-21
2.94120E-02 8.18387E-21
3.01537E-02 7.77452E-21
3.09043E-02 7.39020E-21
3.16639E-02 7.02908E-21
3.24324E-02 6.68953E-21
3.32098E-02 6.37003E-21
3.39961E-02 6.06917E-21
3.47912E-02 5.78568E-21
3.55952E-02 5.51838E-21
3.64081E-02 5.26617E-21
3.72297E-02 5.02804E-21
3.80602E-02 4.80308E-21
3.88995E-02 4.59042E-21
3.97476E-02 4.38927E-21
4.06044E-02 4.19890E-21
4.14700E-02 4.01861E-21
4.23443E-02 3.84779E-21
4.32273E-02 3.68584E-21
4.41190E-02 3.53223E-21
4.50194E-02 3.38644E-21
4.59284E-02 3.24801E-21
4.68461E-02 3.11649E-21
4.87074E-02 2.87259E-21
5.06030E-02 2.65182E-21
5.25328E-02 2.45162E-21
5.44967E-02 2.26973E-21
5.64946E-02 2.10418E-21
5.85262E-02 1.95326E-21
6.05914E-02 1.81547E-21
6.26901E-02 1.68946E-21
6.48222E-02 1.57406E-21
6.69873E-02 1.46820E-21
6.91854E-02 1.37097E-21
7.14163E-02 1.28155E-21
7.36799E-02 1.19921E-21
7.59760E-02 1.12327E-21
7.83043E-02 1.05316E-21
8.06647E-02 9.88361E-22
8.30571E-02 9.28394E-22
8.54812E-02 8.72837E-22
8.79369E-02 8.21308E-22
9.04240E-02 7.73467E-22
9.29422E-02 7.29005E-22
9.54915E-02 6.87642E-22
9.80716E-02 6.49121E-22
1.00682E-01 6.13215E-22
1.03323E-01 5.79717E-22
1.05995E-01 5.48437E-22
1.08696E-01 5.19202E-22
1.11427E-01 4.91854E-22
1.14188E-01 4.66252E-22
1.16978E-01 4.42264E-22
1.19797E-01 4.19771E-22
1.22645E-01 3.98663E-22
1.25522E-01 3.78841E-22
1.28428E-01 3.60213E-22
1.31361E-01 3.42694E-22
1.34323E-01 3.26206E-22
1.37313E-01 3.10678E-22
1.40330E-01 2.96045E-22
1.43375E-01 2.82247E-22
1.46447E-01 2.69225E-22
1.49545E-01 2.56932E-22
1.52671E-01 2.45317E-22
1.55823E-01 2.34337E-22
1.59001E-01 2.23952E-22
1.62205E-01 2.14123E-22
1.65435E-01 2.04815E-22
1.68690E-01 1.95997E-22
1.71970E-01 1.87637E-22
1.75276E-01 1.79709E-22
1.78606E-01 1.72185E-22
1.81961E-01 1.65041E-22
1.85340E-01 1.58256E-22
1.88743E-01 1.51807E-22
1.92169E-01 1.45675E-22
1.95619E-01 1.39843E-22
1.99092E-01 1.34292E-22
2.02589E-01 1.29007E-22
2.06107E-01 1.23973E-22
2.09649E-01 1.19175E-22
2.13212E-01 1.14602E-22
2.16797E-01 1.10240E-22
2.20404E-01 1.06078E-22
2.24032E-01 1.02105E-22
2.27680E-01 9.83115E-23
2.31350E-01 9.46877E-23
2.35040E-01 9.12246E-23
2.38751E-01 8.79139E-23
2.42481E-01 8.47478E-23
2.46231E-01 8.17188E-23
2.50000E-01 7.88200E-23
2.53788E-01 7.60447E-23
2.57595E-01 7.33869E-23
2.61421E-01 7.08406E-23
2.65264E-01 6.84004E-23
2.69126E-01 6.60612E-23
2.73005E-01 6.38179E-23
2.76901E-01 6.16660E-23
2.80814E-01 5.96011E-23
2.84744E-01 5.76191E-23
2.88691E-01 5.57160E-23
2.92653E-01 5.38882E-23
2.96632E-01 5.21322E-23
3.00625E-01 5.04448E-23
3.04634E-01 4.88227E-23
3.08658E-01 4.72629E-23
3.12697E-01 4.57628E-23
3.16749E-01 4.43195E-23
3.20816E-01 4.29306E-23
3.24896E-01 4.15937E-23
3.28990E-01 4.03065E-23
3.33097E-01 3.90667E-23
3.37216E-01 3.78725E-23
3.41348E-01 3.67218E-23
3.45492E-01 3.56127E-23
3.49647E-01 3.45436E-23
3.53814E-01 3.35126E-23
3.57992E-01 3.25182E-23
3.62181E-01 3.15589E-23
3.66381E-01 3.06333E-23
3.70590E-01 2.97399E-23
3.74810E-01 2.88774E-23
3.79039E-01 2.80446E-23
3.83277E-01 2.72403E-23
3.87524E-01 2.64634E-23
3.91780E-01 2.57127E-23
3.96044E-01 2.49872E-23
4.00316E-01 2.42860E-23
4.04596E-01 2.36080E-23
4.08882E-01 2.29524E-23
4.13176E-01 2.23183E-23
4.17476E-01 2.17049E-23
4.21783E-01 2.11114E-23
4.26095E-01 2.05370E-23
4.30413E-01 1.99811E-23
4.34737E-01 1.94429E-23
4.39065E-01 1.89217E-23
4.43398E-01 1.84170E-23
4.47736E-01 1.79281E-23
4.52077E-01 1.74545E-23
4.56422E-01 1.69955E-23
4.60770E-01 1.65507E-23
4.65122E-01 1.61196E-23
4.69476E-01 1.57016E-23
4.73832E-01 1.52964E-23
4.78190E-01 1.49033E-23
4.82550E-01 1.45221E-23
4.86912E-01 1.41523E-23
4.91274E-01 1.37934E-23
4.95637E-01 1.34452E-23
5.00000E-01 1.31073E-23
5.04363E-01 1.27792E-23
5.08726E-01 1.24607E-23
5.13088E-01 1.21515E-23
5.17450E-01 1.18511E-23
5.21810E-01 1.15594E-23
5.26168E-01 1.12760E-23
5.30524E-01 1.10007E-23
5.34878E-01 1.07332E-23
5.39230E-01 1.04732E-23
5.43578E-01 1.02205E-23
5.47923E-01 9.97488E-24
5.52264E-01 9.73607E-24
5.56602E-01 9.50386E-24
5.60935E-01 9.27805E-24
5.65263E-01 9.05840E-24
5.69587E-01 8.84475E-24
5.73905E-01 8.63691E-24
5.78217E-01 8.43469E-24
5.82524E-01 8.23790E-24
5.86824E-01 8.04640E-24
5.91118E-01 7.86001E-24
5.95404E-01 7.67856E-24
5.99684E-01 7.50191E-24
6.03956E-01 7.32991E-24
6.08220E-01 7.16243E-24
6.12476E-01 6.99932E-24
6.16723E-01 6.84046E-24
6.20961E-01 6.68571E-24
6.25190E-01 6.53496E-24
6.29410E-01 6.38807E-24
6.33619E-01 6.24495E-24
6.37819E-01 6.10547E-24
6.42008E-01 5.96954E-24
6.46186E-01 5.83704E-24
6.50353E-01 5.70789E-24
6.54508E-01 5.58197E-24
6.58652E-01 5.45921E-24
6.62784E-01 5.33950E-24
6.66903E-01 5.22277E-24
6.71010E-01 5.10892E-24
6.75104E-01 4.99788E-24
6.79184E-01 4.88956E-24
6.83251E-01 4.78390E-24
6.87303E-01 4.68081E-24
6.91342E-01 4.58023E-24
6.95366E-01 4.48208E-24
6.99375E-01 4.38630E-24
7.03368E-01 4.29283E-24
7.07347E-01 4.20160E-24
7.11309E-01 4.11255E-24
7.15256E-01 4.02562E-24
7.19186E-01 3.94076E-24
7.23099E-01 3.85790E-24
7.26995E-01 3.77700E-24
7.30874E-01 3.69801E-24
7.34736E-01 3.62087E-24
7.38579E-01 3.54553E-24
7.42405E-01 3.47195E-24
7.46212E-01 3.40009E-24
7.50000E-01 3.32989E-24
7.53769E-01 3.26132E-24
7.57519E-01 3.19432E-24
7.61249E-01 3.12888E-24
7.64960E-01 3.06493E-24
7.68650E-01 3.00245E-24
7.72320E-01 2.94140E-24
7.75968E-01 2.88174E-24
7.79596E-01 2.82344E-24
7.83203E-01 2.76646E-24
7.86788E-01 2.71077E-24
7.90351E-01 2.65635E-24
7.93893E-01 2.60315E-24
7.97411E-01 2.55115E-24
8.00908E-01 2.50032E-24
8.04381E-01 2.45063E-24
8.07831E-01 2.40205E-24
8.11257E-01 2.35456E-24
8.14660E-01 2.30813E-24
8.18039E-01 2.26274E-24
8.21394E-01 2.21836E-24
8.24724E-01 2.17497E-24
8.28030E-01 2.13254E-24
8.31310E-01 2.09105E-24
8.34565E-01 2.05049E-24
8.37795E-01 2.01082E-24
8.40999E-01 1.97203E-24
8.44177E-01 1.93410E-24
8.47329E-01 1.89702E-24
8.50455E-01 1.86075E-24
8.53553E-01 1.82528E-24
8.56625E-01 1.79060E-24
8.59670E-01 1.75668E-24
8.62687E-01 1.72352E-24
8.65677E-01 1.69109E-24
8.68639E-01 1.65937E-24
8.71572E-01 1.62836E-24
8.74478E-01 1.59804E-24
8.77355E-01 1.56838E-24
8.80203E-01 1.53939E-24
8.83022E-01 1.51104E-24
8.85812E-01 1.48332E-24
8.88573E-01 1.45622E-24
8.91304E-01 1.42973E-24
8.94005E-01 1.40382E-24
8.96677E-01 1.37850E-24
8.99318E-01 1.35375E-24
9.01928E-01 1.32955E-24
9.04508E-01 1.30590E-24
9.07058E-01 1.28278E-24
9.09576E-01 1.26019E-24
9.12063E-01 1.23812E-24
9.14519E-01 1.21655E-24
9.16943E-01 1.19547E-24
9.19335E-01 1.17488E-24
9.21696E-01 1.15477E-24
9.24024E-01 1.13513E-24
9.26320E-01 1.11594E-24
9.28584E-01 1.09720E-24
9.30815E-01 1.07891E-24
9.33013E-01 1.06105E-24
9.35178E-01 1.04362E-24
9.37310E-01 1.02661E-24
9.39409E-01 1.01001E-24
9.41474E-01 9.93815E-25
9.43505E-01 9.78018E-25
9.45503E-01 9.62612E-25
9.47467E-01 9.47591E-25
9.49397E-01 9.32949E-25
9.51293E-01 9.18679E-25
9.53154E-01 9.04775E-25
9.54981E-01 8.91233E-25
9.56773E-01 8.78045E-25
9.58530E-01 8.65207E-25
9.60252E-01 8.52713E-25
9.61940E-01 8.40558E-25
9.63592E-01 8.28737E-25
9.65209E-01 8.17246E-25
9.66790E-01 8.06080E-25
9.68336E-01 7.95234E-25
9.69846E-01 7.84703E-25
9.71321E-01 7.74484E-25
9.72759E-01 7.64573E-25
9.74162E-01 7.54965E-25
9.75528E-01 7.45657E-25
9.76858E-01 7.36645E-25
9.78152E-01 7.27925E-25
9.79410E-01 7.19494E-25
9.80631E-01 7.11349E-25
9.81815E-01 7.03486E-25
9.82963E-01 6.95903E-25
9.84074E-01 6.88596E-25
9.85148E-01 6.81562E-25
9.86185E-01 6.74799E-25
9.87185E-01 6.68304E-25
9.88148E-01 6.62074E-25
9.89074E-01 6.56108E-25
9.89962E-01 6.50403E-25
9.90814E-01 6.44956E-25
9.91627E-01 6.39765E-25
9.92404E-01 6.34829E-25
9.93143E-01 6.30146E-25
9.93844E-01 6.25714E-25
9.94508E-01 6.21531E-25
9.95134E-01 6.17595E-25
9.95722E-01 6.13905E-25
9.96273E-01 6.10460E-25
9.96786E-01 6.07258E-25
9.97261E-01 6.04298E-25
9.97698E-01 6.01579E-25
9.98097E-01 5.99100E-25
9.98459E-01 5.96859E-25
9.98782E-01 5.94857E-25
9.99067E-01 5.93093E-25
9.99315E-01 5.91564E-25
9.99524E-01 5.90272E-25
9.99695E-01 5.89216E-25
9.99829E-01 5.88395E-25
9.99924E-01 5.87808E-25
9.99981E-01 5.87457E-25
1.00000E+00 5.87339E-25
