 #
 # Subroutine ELSEPA. Elastic scattering of electrons and positrons
 #                    by neutral atoms and positive ions
 #
 # Projectile: positron
 # Kinetic energy = 2.00000E+08 eV = 7.34987E+06 a.u.
 #
 # WARNING: High-energy factorization with free-atom DF screening.
 #          Absorption, polarization and exchange corrections are
 #          switched off.
 #          Phase shifts are calculated for the bare nucleus.
 #          Scattering amplitudes are not evaluated.
 #
 # Element: Fr,  Z =  87,  atomic weight = 2.23020E+02 g/mol
 #
 # Nuclear model: Fermi distribution
 #                Average radius = 6.48881E-13 cm
 #                Skin thickness = 5.46000E-14 cm
 #
 # Number of electrons = 87
 #
 # Total elastic cross section = 1.04168E-17 cm**2 = 3.71991E-01 a0**2
 # 1st transport cross section = 3.45285E-25 cm**2 = 1.23304E-08 a0**2
 # 2nd transport cross section = 1.03324E-24 cm**2 = 3.68977E-08 a0**2
 #
 #
 # Differential cross section:                       MU=(1-COS(THETA))/2
 #
 #  THETA        MU          DCS          DCS        Sherman      error
 #  (deg)                 (cm**2/sr)   (a0**2/sr)    function
 #----------------------------------------------------------------------
0.00000E+00 5.05142E-09
7.61557E-13 4.93017E-09
1.18994E-12 4.86442E-09
1.71346E-12 4.78633E-09
2.33225E-12 4.69713E-09
3.04617E-12 4.59813E-09
3.85530E-12 4.49077E-09
4.75964E-12 4.37649E-09
5.75917E-12 4.25689E-09
6.85391E-12 4.13527E-09
8.04379E-12 4.00819E-09
9.32893E-12 3.87924E-09
1.07092E-11 3.75241E-09
1.21847E-11 3.62300E-09
1.37554E-11 3.49690E-09
1.54213E-11 3.37342E-09
1.71823E-11 3.24948E-09
1.90386E-11 3.13291E-09
2.09900E-11 3.01819E-09
2.30367E-11 2.90527E-09
2.51785E-11 2.80053E-09
2.74156E-11 2.69727E-09
2.97478E-11 2.59821E-09
3.21752E-11 2.50511E-09
3.46979E-11 2.41401E-09
3.73157E-11 2.32832E-09
4.00286E-11 2.24664E-09
4.28368E-11 2.16714E-09
4.57402E-11 2.09334E-09
4.87388E-11 2.02208E-09
5.18325E-11 1.95344E-09
5.50215E-11 1.88923E-09
5.83057E-11 1.82711E-09
6.16850E-11 1.76781E-09
6.51595E-11 1.71152E-09
6.87293E-11 1.65720E-09
7.23943E-11 1.60549E-09
7.61544E-11 1.55595E-09
1.18991E-10 1.15461E-09
1.71347E-10 8.73206E-10
2.33223E-10 6.68187E-10
3.04617E-10 5.17170E-10
3.85531E-10 4.05194E-10
4.75965E-10 3.21603E-10
5.75917E-10 2.58508E-10
6.85389E-10 2.08776E-10
8.04380E-10 1.72462E-10
9.32891E-10 1.44194E-10
1.07092E-09 1.20664E-10
1.21847E-09 1.02620E-10
1.37554E-09 8.75375E-11
1.54213E-09 7.50367E-11
1.71823E-09 6.50962E-11
1.90386E-09 5.63501E-11
2.09900E-09 4.91496E-11
2.30367E-09 4.32100E-11
2.51785E-09 3.79150E-11
2.74156E-09 3.35284E-11
2.97478E-09 2.97694E-11
3.21752E-09 2.64661E-11
3.46978E-09 2.36757E-11
3.73156E-09 2.12159E-11
4.00286E-09 1.90694E-11
4.28368E-09 1.72269E-11
4.57402E-09 1.55649E-11
4.87388E-09 1.41184E-11
5.18326E-09 1.28512E-11
5.50215E-09 1.17016E-11
5.83057E-09 1.06945E-11
6.16850E-09 9.79285E-12
6.51596E-09 8.97749E-12
6.87293E-09 8.25605E-12
7.23942E-09 7.59770E-12
7.61544E-09 7.00434E-12
1.18991E-08 3.35565E-12
1.71347E-08 1.78857E-12
2.33223E-08 1.03902E-12
3.04617E-08 6.46176E-13
3.85531E-08 4.23541E-13
4.75965E-08 2.89529E-13
5.75917E-08 2.04621E-13
6.85389E-08 1.48760E-13
8.04380E-08 1.10750E-13
9.32891E-08 8.41805E-14
1.07092E-07 6.51484E-14
1.21847E-07 5.12173E-14
1.37554E-07 4.08238E-14
1.54213E-07 3.29383E-14
1.71823E-07 2.68663E-14
1.90386E-07 2.21285E-14
2.09900E-07 1.83879E-14
2.30367E-07 1.54034E-14
2.51785E-07 1.29990E-14
2.74156E-07 1.10443E-14
2.97478E-07 9.44315E-15
3.21752E-07 8.12178E-15
3.46978E-07 7.02376E-15
3.73156E-07 6.10529E-15
4.00286E-07 5.33234E-15
4.28368E-07 4.67812E-15
4.57402E-07 4.12138E-15
4.87388E-07 3.64521E-15
5.18325E-07 3.23600E-15
5.50215E-07 2.88272E-15
5.83057E-07 2.57644E-15
6.16850E-07 2.30979E-15
6.51596E-07 2.07680E-15
6.87293E-07 1.87250E-15
7.23942E-07 1.69273E-15
7.61543E-07 1.53404E-15
1.18991E-06 6.42240E-16
1.71347E-06 3.13971E-16
2.33223E-06 1.71008E-16
3.04617E-06 1.00891E-16
3.85531E-06 6.32974E-17
4.75964E-06 4.16943E-17
5.75916E-06 2.85710E-17
6.85388E-06 2.02286E-17
8.04378E-06 1.47207E-17
9.32888E-06 1.09662E-17
1.07092E-05 8.33576E-18
1.21846E-05 6.44864E-18
1.37553E-05 5.06646E-18
1.54212E-05 4.03541E-18
1.71822E-05 3.25369E-18
1.90385E-05 2.65047E-18
2.09899E-05 2.18386E-18
2.30365E-05 1.81513E-18
2.51783E-05 1.52047E-18
2.74153E-05 1.28282E-18
2.97475E-05 1.08963E-18
3.21749E-05 9.31436E-19
3.46974E-05 8.01007E-19
3.73152E-05 6.92719E-19
4.00281E-05 6.02194E-19
4.28362E-05 5.26009E-19
4.57395E-05 4.61487E-19
4.87380E-05 4.06531E-19
5.18317E-05 3.59485E-19
5.50205E-05 3.19028E-19
5.83045E-05 2.84095E-19
6.16838E-05 2.53814E-19
6.51582E-05 2.27465E-19
6.87277E-05 2.04453E-19
7.23925E-05 1.84281E-19
7.61524E-05 1.66749E-19
9.21439E-05 1.13925E-19
1.09658E-04 8.04518E-20
1.28695E-04 5.84196E-20
1.49255E-04 4.34378E-20
1.71338E-04 3.29652E-20
1.94942E-04 2.54671E-20
2.20070E-04 1.99847E-20
2.46720E-04 1.59013E-20
2.74892E-04 1.28098E-20
3.04586E-04 1.04342E-20
3.35803E-04 8.58469E-21
3.68542E-04 7.12735E-21
4.02802E-04 5.96651E-21
4.38585E-04 5.03264E-21
4.75889E-04 4.27444E-21
5.14715E-04 3.65378E-21
5.55063E-04 3.14170E-21
5.96931E-04 2.71625E-21
6.40321E-04 2.36041E-21
6.85233E-04 2.06106E-21
7.31665E-04 1.80743E-21
7.79618E-04 1.59154E-21
8.29092E-04 1.40689E-21
8.80086E-04 1.24819E-21
9.32601E-04 1.11119E-21
9.86636E-04 9.92426E-22
1.04219E-03 8.89059E-22
1.09927E-03 7.98760E-22
1.15786E-03 7.19590E-22
1.21797E-03 6.49947E-22
1.27961E-03 5.88487E-22
1.34276E-03 5.34083E-22
1.40743E-03 4.85786E-22
1.47362E-03 4.42791E-22
1.54133E-03 4.04417E-22
1.61056E-03 3.70080E-22
1.68131E-03 3.39282E-22
1.75357E-03 3.11594E-22
1.82735E-03 2.86647E-22
1.90265E-03 2.64124E-22
1.97947E-03 2.43747E-22
2.05780E-03 2.25275E-22
2.13765E-03 2.08500E-22
2.21902E-03 1.93238E-22
2.30190E-03 1.79330E-22
2.38630E-03 1.66633E-22
2.47222E-03 1.55023E-22
2.55965E-03 1.44392E-22
2.64859E-03 1.34642E-22
2.73905E-03 1.25688E-22
2.83103E-03 1.17452E-22
2.92452E-03 1.09868E-22
3.01952E-03 1.02874E-22
3.11604E-03 9.64175E-23
3.21407E-03 9.04487E-23
3.31362E-03 8.49247E-23
3.41468E-03 7.98066E-23
3.51725E-03 7.50593E-23
3.62133E-03 7.06513E-23
3.72692E-03 6.65540E-23
3.83403E-03 6.27418E-23
3.94265E-03 5.91914E-23
4.05278E-03 5.58816E-23
4.16442E-03 5.27933E-23
4.27757E-03 4.99091E-23
4.39223E-03 4.72132E-23
4.50840E-03 4.46913E-23
4.62608E-03 4.23300E-23
4.74527E-03 4.01174E-23
4.86597E-03 3.80426E-23
4.98817E-03 3.60955E-23
5.11188E-03 3.42668E-23
5.23711E-03 3.25483E-23
5.36383E-03 3.09320E-23
5.49207E-03 2.94109E-23
5.62181E-03 2.79784E-23
5.75306E-03 2.66285E-23
5.88581E-03 2.53556E-23
6.02007E-03 2.41546E-23
6.15583E-03 2.30207E-23
6.29310E-03 2.19496E-23
6.43187E-03 2.09372E-23
6.57214E-03 1.99798E-23
6.71392E-03 1.90738E-23
6.85720E-03 1.82161E-23
7.00198E-03 1.74037E-23
7.14827E-03 1.66337E-23
7.29605E-03 1.59037E-23
7.44534E-03 1.52111E-23
7.59612E-03 1.45537E-23
7.97965E-03 1.30513E-23
8.37255E-03 1.17276E-23
8.77480E-03 1.05584E-23
9.18641E-03 9.52283E-24
9.60736E-03 8.60358E-24
1.00376E-02 7.78569E-24
1.04773E-02 7.05640E-24
1.09262E-02 6.40478E-24
1.13844E-02 5.82141E-24
1.18520E-02 5.29817E-24
1.23288E-02 4.82802E-24
1.28150E-02 4.40485E-24
1.33104E-02 4.02336E-24
1.38150E-02 3.67890E-24
1.43290E-02 3.36742E-24
1.48521E-02 3.08535E-24
1.53845E-02 2.82957E-24
1.59262E-02 2.59734E-24
1.64770E-02 2.38621E-24
1.70371E-02 2.19405E-24
1.76063E-02 2.01894E-24
1.81848E-02 1.85920E-24
1.87724E-02 1.71333E-24
1.93692E-02 1.57998E-24
1.99751E-02 1.45797E-24
2.05901E-02 1.34622E-24
2.12143E-02 1.24378E-24
2.18476E-02 1.14980E-24
2.24900E-02 1.06350E-24
2.31415E-02 9.84193E-25
2.38021E-02 9.11259E-25
2.44717E-02 8.44136E-25
2.51504E-02 7.82316E-25
2.58382E-02 7.25343E-25
2.65349E-02 6.72801E-25
2.72407E-02 6.24317E-25
2.79555E-02 5.79550E-25
2.86793E-02 5.38190E-25
2.94120E-02 4.99959E-25
3.01537E-02 4.64599E-25
3.09043E-02 4.31879E-25
3.16639E-02 4.01586E-25
3.24324E-02 3.73528E-25
3.32098E-02 3.47527E-25
3.39961E-02 3.23423E-25
3.47912E-02 3.01067E-25
3.55952E-02 2.80325E-25
3.64081E-02 2.61073E-25
3.72297E-02 2.43196E-25
3.80602E-02 2.26591E-25
3.88995E-02 2.11162E-25
3.97476E-02 1.96821E-25
4.06044E-02 1.83488E-25
4.14700E-02 1.71087E-25
4.23443E-02 1.59551E-25
4.32273E-02 1.48816E-25
4.41190E-02 1.38823E-25
4.50194E-02 1.29520E-25
4.59284E-02 1.20856E-25
4.68461E-02 1.12786E-25
4.87074E-02 9.82616E-26
5.06030E-02 8.56444E-26
5.25328E-02 7.46761E-26
5.44967E-02 6.51352E-26
5.64946E-02 5.68311E-26
5.85262E-02 4.95998E-26
6.05914E-02 4.32998E-26
6.26901E-02 3.78090E-26
6.48222E-02 3.30218E-26
6.69873E-02 2.88469E-26
6.91854E-02 2.52051E-26
7.14163E-02 2.20276E-26
7.36799E-02 1.92547E-26
7.59760E-02 1.68347E-26
7.83043E-02 1.47224E-26
8.06647E-02 1.28786E-26
8.30571E-02 1.12689E-26
8.54812E-02 9.86375E-27
8.79369E-02 8.63698E-27
9.04240E-02 7.56598E-27
9.29422E-02 6.63095E-27
9.54915E-02 5.81461E-27
9.80716E-02 5.10188E-27
1.00682E-01 4.47959E-27
1.03323E-01 3.93623E-27
1.05995E-01 3.46174E-27
1.08696E-01 3.04735E-27
1.11427E-01 2.68538E-27
1.14188E-01 2.36914E-27
1.16978E-01 2.09276E-27
1.19797E-01 1.85114E-27
1.22645E-01 1.63982E-27
1.25522E-01 1.45490E-27
1.28428E-01 1.29299E-27
1.31361E-01 1.15111E-27
1.34323E-01 1.02670E-27
1.37313E-01 9.17484E-28
1.40330E-01 8.21510E-28
1.43375E-01 7.37068E-28
1.46447E-01 6.62668E-28
1.49545E-01 5.97017E-28
1.52671E-01 5.38988E-28
1.55823E-01 4.87603E-28
1.59001E-01 4.42012E-28
1.62205E-01 4.01477E-28
1.65435E-01 3.65357E-28
1.68690E-01 3.33095E-28
1.71970E-01 3.04210E-28
1.75276E-01 2.78283E-28
1.78606E-01 2.54953E-28
1.81961E-01 2.33905E-28
1.85340E-01 2.14866E-28
1.88743E-01 1.97602E-28
1.92169E-01 1.81907E-28
1.95619E-01 1.67604E-28
1.99092E-01 1.54540E-28
2.02589E-01 1.42580E-28
2.06107E-01 1.31609E-28
2.09649E-01 1.21525E-28
2.13212E-01 1.12241E-28
2.16797E-01 1.03678E-28
2.20404E-01 9.57710E-29
2.24032E-01 8.84593E-29
2.27680E-01 8.16912E-29
2.31350E-01 7.54207E-29
2.35040E-01 6.96070E-29
2.38751E-01 6.42138E-29
2.42481E-01 5.92088E-29
2.46231E-01 5.45628E-29
2.50000E-01 5.02497E-29
2.53788E-01 4.62456E-29
2.57595E-01 4.25291E-29
2.61421E-01 3.90804E-29
2.65264E-01 3.58813E-29
2.69126E-01 3.29154E-29
2.73005E-01 3.01670E-29
2.76901E-01 2.76220E-29
2.80814E-01 2.52670E-29
2.84744E-01 2.30896E-29
2.88691E-01 2.10782E-29
2.92653E-01 1.92219E-29
2.96632E-01 1.75104E-29
3.00625E-01 1.59341E-29
3.04634E-01 1.44839E-29
3.08658E-01 1.31513E-29
3.12697E-01 1.19282E-29
3.16749E-01 1.08070E-29
3.20816E-01 9.78054E-30
3.24896E-01 8.84208E-30
3.28990E-01 7.98523E-30
3.33097E-01 7.20400E-30
3.37216E-01 6.49274E-30
3.41348E-01 5.84615E-30
3.45492E-01 5.25925E-30
3.49647E-01 4.72735E-30
3.53814E-01 4.24606E-30
3.57992E-01 3.81128E-30
3.62181E-01 3.41917E-30
3.66381E-01 3.06614E-30
3.70590E-01 2.74886E-30
3.74810E-01 2.46421E-30
3.79039E-01 2.20928E-30
3.83277E-01 1.98141E-30
3.87524E-01 1.77810E-30
3.91780E-01 1.59705E-30
3.96044E-01 1.43613E-30
4.00316E-01 1.29337E-30
4.04596E-01 1.16699E-30
4.08882E-01 1.05531E-30
4.13176E-01 9.56813E-31
4.17476E-01 8.70114E-31
4.21783E-01 7.93938E-31
4.26095E-01 7.27127E-31
4.30413E-01 6.68626E-31
4.34737E-01 6.17478E-31
4.39065E-01 5.72816E-31
4.43398E-01 5.33858E-31
4.47736E-01 4.99897E-31
4.52077E-01 4.70298E-31
4.56422E-01 4.44492E-31
4.60770E-01 4.21971E-31
4.65122E-01 4.02279E-31
4.69476E-01 3.85014E-31
4.73832E-01 3.69819E-31
4.78190E-01 3.56377E-31
4.82550E-01 3.44411E-31
4.86912E-01 3.33680E-31
4.91274E-01 3.23970E-31
4.95637E-01 3.15098E-31
5.00000E-01 3.06907E-31
5.04363E-01 2.99259E-31
5.08726E-01 2.92041E-31
5.13088E-01 2.85153E-31
5.17450E-01 2.78516E-31
5.21810E-01 2.72061E-31
5.26168E-01 2.65733E-31
5.30524E-01 2.59489E-31
5.34878E-01 2.53294E-31
5.39230E-01 2.47121E-31
5.43578E-01 2.40951E-31
5.47923E-01 2.34771E-31
5.52264E-01 2.28574E-31
5.56602E-01 2.22354E-31
5.60935E-01 2.16113E-31
5.65263E-01 2.09852E-31
5.69587E-01 2.03578E-31
5.73905E-01 1.97297E-31
5.78217E-01 1.91017E-31
5.82524E-01 1.84748E-31
5.86824E-01 1.78501E-31
5.91118E-01 1.72286E-31
5.95404E-01 1.66114E-31
5.99684E-01 1.59995E-31
6.03956E-01 1.53941E-31
6.08220E-01 1.47961E-31
6.12476E-01 1.42065E-31
6.16723E-01 1.36263E-31
6.20961E-01 1.30563E-31
6.25190E-01 1.24974E-31
6.29410E-01 1.19502E-31
6.33619E-01 1.14154E-31
6.37819E-01 1.08935E-31
6.42008E-01 1.03852E-31
6.46186E-01 9.89073E-32
6.50353E-01 9.41057E-32
6.54508E-01 8.94497E-32
6.58652E-01 8.49417E-32
6.62784E-01 8.05832E-32
6.66903E-01 7.63751E-32
6.71010E-01 7.23180E-32
6.75104E-01 6.84117E-32
6.79184E-01 6.46555E-32
6.83251E-01 6.10485E-32
6.87303E-01 5.75891E-32
6.91342E-01 5.42755E-32
6.95366E-01 5.11054E-32
6.99375E-01 4.80763E-32
7.03368E-01 4.51855E-32
7.07347E-01 4.24297E-32
7.11309E-01 3.98058E-32
7.15256E-01 3.73104E-32
7.19186E-01 3.49398E-32
7.23099E-01 3.26904E-32
7.26995E-01 3.05583E-32
7.30874E-01 2.85396E-32
7.34736E-01 2.66304E-32
7.38579E-01 2.48267E-32
7.42405E-01 2.31245E-32
7.46212E-01 2.15198E-32
7.50000E-01 2.00088E-32
7.53769E-01 1.85873E-32
7.57519E-01 1.72516E-32
7.61249E-01 1.59978E-32
7.64960E-01 1.48221E-32
7.68650E-01 1.37209E-32
7.72320E-01 1.26905E-32
7.75968E-01 1.17275E-32
7.79596E-01 1.08283E-32
7.83203E-01 9.98965E-33
7.86788E-01 9.20835E-33
7.90351E-01 8.48126E-33
7.93893E-01 7.80537E-33
7.97411E-01 7.17778E-33
8.00908E-01 6.59569E-33
8.04381E-01 6.05642E-33
8.07831E-01 5.55739E-33
8.11257E-01 5.09614E-33
8.14660E-01 4.67032E-33
8.18039E-01 4.27768E-33
8.21394E-01 3.91607E-33
8.24724E-01 3.58345E-33
8.28030E-01 3.27789E-33
8.31310E-01 2.99753E-33
8.34565E-01 2.74064E-33
8.37795E-01 2.50557E-33
8.40999E-01 2.29074E-33
8.44177E-01 2.09468E-33
8.47329E-01 1.91601E-33
8.50455E-01 1.75340E-33
8.53553E-01 1.60563E-33
8.56625E-01 1.47154E-33
8.59670E-01 1.35004E-33
8.62687E-01 1.24011E-33
8.65677E-01 1.14079E-33
8.68639E-01 1.05120E-33
8.71572E-01 9.70510E-34
8.74478E-01 8.97935E-34
8.77355E-01 8.32760E-34
8.80203E-01 7.74312E-34
8.83022E-01 7.21969E-34
8.85812E-01 6.75154E-34
8.88573E-01 6.33332E-34
8.91304E-01 5.96011E-34
8.94005E-01 5.62736E-34
8.96677E-01 5.33085E-34
8.99318E-01 5.06675E-34
9.01928E-01 4.83151E-34
9.04508E-01 4.62191E-34
9.07058E-01 4.43496E-34
9.09576E-01 4.26796E-34
9.12063E-01 4.11844E-34
9.14519E-01 3.98419E-34
9.16943E-01 3.86319E-34
9.19335E-01 3.75357E-34
9.21696E-01 3.65372E-34
9.24024E-01 3.56212E-34
9.26320E-01 3.47747E-34
9.28584E-01 3.39858E-34
9.30815E-01 3.32440E-34
9.33013E-01 3.25400E-34
9.35178E-01 3.18656E-34
9.37310E-01 3.12137E-34
9.39409E-01 3.05781E-34
9.41474E-01 2.99533E-34
9.43505E-01 2.93351E-34
9.45503E-01 2.87193E-34
9.47467E-01 2.81027E-34
9.49397E-01 2.74832E-34
9.51293E-01 2.68580E-34
9.53154E-01 2.62260E-34
9.54981E-01 2.55857E-34
9.56773E-01 2.49366E-34
9.58530E-01 2.42780E-34
9.60252E-01 2.36098E-34
9.61940E-01 2.29321E-34
9.63592E-01 2.22452E-34
9.65209E-01 2.15498E-34
9.66790E-01 2.08464E-34
9.68336E-01 2.01361E-34
9.69846E-01 1.94198E-34
9.71321E-01 1.86985E-34
9.72759E-01 1.79737E-34
9.74162E-01 1.72463E-34
9.75528E-01 1.65177E-34
9.76858E-01 1.57895E-34
9.78152E-01 1.50630E-34
9.79410E-01 1.43393E-34
9.80631E-01 1.36202E-34
9.81815E-01 1.29070E-34
9.82963E-01 1.22012E-34
9.84074E-01 1.15040E-34
9.85148E-01 1.08170E-34
9.86185E-01 1.01414E-34
9.87185E-01 9.47867E-35
9.88148E-01 8.82981E-35
9.89074E-01 8.19635E-35
9.89962E-01 7.57940E-35
9.90814E-01 6.98010E-35
9.91627E-01 6.39970E-35
9.92404E-01 5.83908E-35
9.93143E-01 5.29940E-35
9.93844E-01 4.78155E-35
9.94508E-01 4.28653E-35
9.95134E-01 3.81516E-35
9.95722E-01 3.36826E-35
9.96273E-01 2.94660E-35
9.96786E-01 2.55096E-35
9.97261E-01 2.18190E-35
9.97698E-01 1.84022E-35
9.98097E-01 1.52631E-35
9.98459E-01 1.24075E-35
9.98782E-01 9.83982E-36
9.99067E-01 7.56534E-36
9.99315E-01 5.58642E-36
9.99524E-01 3.90606E-36
9.99695E-01 2.52808E-36
9.99829E-01 1.45385E-36
9.99924E-01 6.85256E-37
9.99981E-01 2.23799E-37
1.00000E+00 6.98061E-38
