 #
 # Subroutine ELSEPA. Elastic scattering of electrons and positrons
 #                    by neutral atoms and positive ions
 #
 # Projectile: positron
 # Kinetic energy = 7.00000E+07 eV = 2.57245E+06 a.u.
 #
 # WARNING: High-energy factorization with free-atom DF screening.
 #          Absorption, polarization and exchange corrections are
 #          switched off.
 #          Phase shifts are calculated for the bare nucleus.
 #          Scattering amplitudes are not evaluated.
 #
 # Element: Fr,  Z =  87,  atomic weight = 2.23020E+02 g/mol
 #
 # Nuclear model: Fermi distribution
 #                Average radius = 6.48881E-13 cm
 #                Skin thickness = 5.46000E-14 cm
 #
 # Number of electrons = 87
 #
 # Total elastic cross section = 1.04193E-17 cm**2 = 3.72079E-01 a0**2
 # 1st transport cross section = 2.68026E-24 cm**2 = 9.57138E-08 a0**2
 # 2nd transport cross section = 7.91190E-24 cm**2 = 2.82539E-07 a0**2
 #
 #
 # Differential cross section:                       MU=(1-COS(THETA))/2
 #
 #  THETA        MU          DCS          DCS        Sherman      error
 #  (deg)                 (cm**2/sr)   (a0**2/sr)    function
 #----------------------------------------------------------------------
0.00000E+00 6.24670E-10
7.61557E-13 6.22774E-10
1.18994E-12 6.21714E-10
1.71346E-12 6.20424E-10
2.33225E-12 6.18905E-10
3.04617E-12 6.17163E-10
3.85530E-12 6.15199E-10
4.75964E-12 6.13019E-10
5.75917E-12 6.10626E-10
6.85391E-12 6.08027E-10
8.04379E-12 6.05225E-10
9.32893E-12 6.02226E-10
1.07092E-11 5.99038E-10
1.21847E-11 5.95666E-10
1.37554E-11 5.92116E-10
1.54213E-11 5.88395E-10
1.71823E-11 5.84512E-10
1.90386E-11 5.80471E-10
2.09900E-11 5.76280E-10
2.30367E-11 5.71951E-10
2.51785E-11 5.67487E-10
2.74156E-11 5.62895E-10
2.97478E-11 5.58186E-10
3.21752E-11 5.53367E-10
3.46979E-11 5.48445E-10
3.73157E-11 5.43426E-10
4.00286E-11 5.38323E-10
4.28368E-11 5.33140E-10
4.57402E-11 5.27883E-10
4.87388E-11 5.22684E-10
5.18325E-11 5.17412E-10
5.50215E-11 5.12051E-10
5.83057E-11 5.06606E-10
6.16850E-11 5.01082E-10
6.51595E-11 4.95484E-10
6.87293E-11 4.89818E-10
7.23943E-11 4.84121E-10
7.61544E-11 4.78691E-10
1.18991E-10 4.23550E-10
1.71347E-10 3.71836E-10
2.33223E-10 3.25798E-10
3.04617E-10 2.86576E-10
3.85531E-10 2.53120E-10
4.75965E-10 2.24700E-10
5.75917E-10 2.00537E-10
6.85389E-10 1.79786E-10
8.04380E-10 1.61763E-10
9.32891E-10 1.45991E-10
1.07092E-09 1.32038E-10
1.21847E-09 1.19655E-10
1.37554E-09 1.08624E-10
1.54213E-09 9.87438E-11
1.71823E-09 8.98716E-11
1.90386E-09 8.19202E-11
2.09900E-09 7.47860E-11
2.30367E-09 6.83456E-11
2.51785E-09 6.25598E-11
2.74156E-09 5.73589E-11
2.97478E-09 5.26692E-11
3.21752E-09 4.84354E-11
3.46978E-09 4.46200E-11
3.73156E-09 4.11769E-11
4.00286E-09 3.80540E-11
4.28368E-09 3.52281E-11
4.57402E-09 3.26673E-11
4.87388E-09 3.02169E-11
5.18326E-09 2.80138E-11
5.50215E-09 2.60474E-11
5.83057E-09 2.42871E-11
6.16850E-09 2.27066E-11
6.51596E-09 2.12838E-11
6.87293E-09 1.99994E-11
7.23942E-09 1.88223E-11
7.61544E-09 1.76128E-11
1.18991E-08 9.88024E-12
1.71347E-08 5.99895E-12
2.33223E-08 3.85764E-12
3.04617E-08 2.58593E-12
3.85531E-08 1.80576E-12
4.75965E-08 1.30332E-12
5.75917E-08 9.64657E-13
6.85389E-08 7.28584E-13
8.04380E-08 5.60248E-13
9.32891E-08 4.37442E-13
1.07092E-07 3.45826E-13
1.21847E-07 2.76820E-13
1.37554E-07 2.23982E-13
1.54213E-07 1.83240E-13
1.71823E-07 1.51443E-13
1.90386E-07 1.26342E-13
2.09900E-07 1.06282E-13
2.30367E-07 9.00464E-14
2.51785E-07 7.68200E-14
2.74156E-07 6.59602E-14
2.97478E-07 5.69700E-14
3.21752E-07 4.94723E-14
3.46978E-07 4.31800E-14
3.73156E-07 3.78632E-14
4.00286E-07 3.33365E-14
4.28368E-07 2.94681E-14
4.57402E-07 2.61468E-14
4.87388E-07 2.32640E-14
5.18325E-07 2.07810E-14
5.50215E-07 1.86358E-14
5.83057E-07 1.67463E-14
6.16850E-07 1.50928E-14
6.51596E-07 1.36472E-14
6.87293E-07 1.23649E-14
7.23942E-07 1.12291E-14
7.61543E-07 1.02262E-14
1.18991E-06 4.44746E-15
1.71347E-06 2.23193E-15
2.33223E-06 1.23826E-15
3.04617E-06 7.40738E-16
3.85531E-06 4.69965E-16
4.75964E-06 3.12481E-16
5.75916E-06 2.15827E-16
6.85388E-06 1.53829E-16
8.04378E-06 1.12570E-16
9.32888E-06 8.42504E-17
1.07092E-05 6.42897E-17
1.21846E-05 4.98975E-17
1.37553E-05 3.93112E-17
1.54212E-05 3.13857E-17
1.71822E-05 2.53583E-17
1.90385E-05 2.06946E-17
2.09899E-05 1.70792E-17
2.30365E-05 1.42164E-17
2.51783E-05 1.19248E-17
2.74153E-05 1.00735E-17
2.97475E-05 8.56634E-18
3.21749E-05 7.33067E-18
3.46974E-05 6.31063E-18
3.73152E-05 5.46280E-18
4.00281E-05 4.75328E-18
4.28362E-05 4.15556E-18
4.57395E-05 3.64886E-18
4.87380E-05 3.21688E-18
5.18317E-05 2.84676E-18
5.50205E-05 2.52822E-18
5.83045E-05 2.25295E-18
6.16838E-05 2.01414E-18
6.51582E-05 1.80620E-18
6.87277E-05 1.62446E-18
7.23925E-05 1.46504E-18
7.61524E-05 1.32468E-18
9.21439E-05 9.06475E-19
1.09658E-04 6.40927E-19
1.28695E-04 4.65844E-19
1.49255E-04 3.46619E-19
1.71338E-04 2.63181E-19
1.94942E-04 2.03386E-19
2.20070E-04 1.59632E-19
2.46720E-04 1.27024E-19
2.74892E-04 1.02325E-19
3.04586E-04 8.33401E-20
3.35803E-04 6.85568E-20
3.68542E-04 5.69064E-20
4.02802E-04 4.76259E-20
4.38585E-04 4.01602E-20
4.75889E-04 3.40994E-20
5.14715E-04 2.91388E-20
5.55063E-04 2.50467E-20
5.96931E-04 2.16474E-20
6.40321E-04 1.88049E-20
6.85233E-04 1.64131E-20
7.31665E-04 1.43893E-20
7.79618E-04 1.26674E-20
8.29092E-04 1.11952E-20
8.80086E-04 9.93031E-21
9.32601E-04 8.83881E-21
9.86636E-04 7.89299E-21
1.04219E-03 7.07007E-21
1.09927E-03 6.35148E-21
1.15786E-03 5.72170E-21
1.21797E-03 5.16792E-21
1.27961E-03 4.67941E-21
1.34276E-03 4.24713E-21
1.40743E-03 3.86354E-21
1.47362E-03 3.52218E-21
1.54133E-03 3.21761E-21
1.61056E-03 2.94519E-21
1.68131E-03 2.70091E-21
1.75357E-03 2.48139E-21
1.82735E-03 2.28365E-21
1.90265E-03 2.10518E-21
1.97947E-03 1.94375E-21
2.05780E-03 1.79746E-21
2.13765E-03 1.66463E-21
2.21902E-03 1.54382E-21
2.30190E-03 1.43373E-21
2.38630E-03 1.33325E-21
2.47222E-03 1.24139E-21
2.55965E-03 1.15728E-21
2.64859E-03 1.08015E-21
2.73905E-03 1.00932E-21
2.83103E-03 9.44179E-22
2.92452E-03 8.84189E-22
3.01952E-03 8.28871E-22
3.11604E-03 7.77794E-22
3.21407E-03 7.30577E-22
3.31362E-03 6.86873E-22
3.41468E-03 6.46376E-22
3.51725E-03 6.08806E-22
3.62133E-03 5.73915E-22
3.72692E-03 5.41477E-22
3.83403E-03 5.11288E-22
3.94265E-03 4.83164E-22
4.05278E-03 4.56938E-22
4.16442E-03 4.32459E-22
4.27757E-03 4.09590E-22
4.39223E-03 3.88204E-22
4.50840E-03 3.68190E-22
4.62608E-03 3.49442E-22
4.74527E-03 3.31866E-22
4.86597E-03 3.15376E-22
4.98817E-03 2.99892E-22
5.11188E-03 2.85343E-22
5.23711E-03 2.71662E-22
5.36383E-03 2.58788E-22
5.49207E-03 2.46667E-22
5.62181E-03 2.35241E-22
5.75306E-03 2.24454E-22
5.88581E-03 2.14275E-22
6.02007E-03 2.04662E-22
6.15583E-03 1.95578E-22
6.29310E-03 1.86989E-22
6.43187E-03 1.78863E-22
6.57214E-03 1.71171E-22
6.71392E-03 1.63884E-22
6.85720E-03 1.56978E-22
7.00198E-03 1.50430E-22
7.14827E-03 1.44216E-22
7.29605E-03 1.38317E-22
7.44534E-03 1.32715E-22
7.59612E-03 1.27390E-22
7.97965E-03 1.15193E-22
8.37255E-03 1.04409E-22
8.77480E-03 9.48474E-23
9.18641E-03 8.63456E-23
9.60736E-03 7.87665E-23
1.00376E-02 7.19928E-23
1.04773E-02 6.59243E-23
1.09262E-02 6.04752E-23
1.13844E-02 5.55714E-23
1.18520E-02 5.11490E-23
1.23288E-02 4.71526E-23
1.28150E-02 4.35342E-23
1.33104E-02 4.02518E-23
1.38150E-02 3.72689E-23
1.43290E-02 3.45534E-23
1.48521E-02 3.20773E-23
1.53845E-02 2.98158E-23
1.59262E-02 2.77471E-23
1.64770E-02 2.58519E-23
1.70371E-02 2.41131E-23
1.76063E-02 2.25157E-23
1.81848E-02 2.10461E-23
1.87724E-02 1.96923E-23
1.93692E-02 1.84437E-23
1.99751E-02 1.72906E-23
2.05901E-02 1.62245E-23
2.12143E-02 1.52377E-23
2.18476E-02 1.43233E-23
2.24900E-02 1.34750E-23
2.31415E-02 1.26872E-23
2.38021E-02 1.19549E-23
2.44717E-02 1.12735E-23
2.51504E-02 1.06388E-23
2.58382E-02 1.00471E-23
2.65349E-02 9.49502E-24
2.72407E-02 8.97938E-24
2.79555E-02 8.49738E-24
2.86793E-02 8.04646E-24
2.94120E-02 7.62426E-24
3.01537E-02 7.22865E-24
3.09043E-02 6.85766E-24
3.16639E-02 6.50949E-24
3.24324E-02 6.18251E-24
3.32098E-02 5.87520E-24
3.39961E-02 5.58617E-24
3.47912E-02 5.31416E-24
3.55952E-02 5.05800E-24
3.64081E-02 4.81659E-24
3.72297E-02 4.58895E-24
3.80602E-02 4.37416E-24
3.88995E-02 4.17137E-24
3.97476E-02 3.97980E-24
4.06044E-02 3.79872E-24
4.14700E-02 3.62746E-24
4.23443E-02 3.46539E-24
4.32273E-02 3.31195E-24
4.41190E-02 3.16659E-24
4.50194E-02 3.02882E-24
4.59284E-02 2.89818E-24
4.68461E-02 2.77423E-24
4.87074E-02 2.54484E-24
5.06030E-02 2.33777E-24
5.25328E-02 2.15051E-24
5.44967E-02 1.98087E-24
5.64946E-02 1.82694E-24
5.85262E-02 1.68703E-24
6.05914E-02 1.55967E-24
6.26901E-02 1.44356E-24
6.48222E-02 1.33756E-24
6.69873E-02 1.24064E-24
6.91854E-02 1.15192E-24
7.14163E-02 1.07060E-24
7.36799E-02 9.95955E-25
7.59760E-02 9.27368E-25
7.83043E-02 8.64269E-25
8.06647E-02 8.06153E-25
8.30571E-02 7.52570E-25
8.54812E-02 7.03112E-25
8.79369E-02 6.57415E-25
9.04240E-02 6.15152E-25
9.29422E-02 5.76026E-25
9.54915E-02 5.39772E-25
9.80716E-02 5.06147E-25
1.00682E-01 4.74933E-25
1.03323E-01 4.45934E-25
1.05995E-01 4.18968E-25
1.08696E-01 3.93875E-25
1.11427E-01 3.70504E-25
1.14188E-01 3.48722E-25
1.16978E-01 3.28405E-25
1.19797E-01 3.09441E-25
1.22645E-01 2.91727E-25
1.25522E-01 2.75170E-25
1.28428E-01 2.59684E-25
1.31361E-01 2.45190E-25
1.34323E-01 2.31617E-25
1.37313E-01 2.18897E-25
1.40330E-01 2.06970E-25
1.43375E-01 1.95780E-25
1.46447E-01 1.85275E-25
1.49545E-01 1.75408E-25
1.52671E-01 1.66136E-25
1.55823E-01 1.57417E-25
1.59001E-01 1.49214E-25
1.62205E-01 1.41493E-25
1.65435E-01 1.34223E-25
1.68690E-01 1.27373E-25
1.71970E-01 1.20916E-25
1.75276E-01 1.14826E-25
1.78606E-01 1.09081E-25
1.81961E-01 1.03658E-25
1.85340E-01 9.85372E-26
1.88743E-01 9.36995E-26
1.92169E-01 8.91274E-26
1.95619E-01 8.48046E-26
1.99092E-01 8.07159E-26
2.02589E-01 7.68471E-26
2.06107E-01 7.31849E-26
2.09649E-01 6.97171E-26
2.13212E-01 6.64322E-26
2.16797E-01 6.33193E-26
2.20404E-01 6.03684E-26
2.24032E-01 5.75702E-26
2.27680E-01 5.49158E-26
2.31350E-01 5.23970E-26
2.35040E-01 5.00062E-26
2.38751E-01 4.77361E-26
2.42481E-01 4.55799E-26
2.46231E-01 4.35313E-26
2.50000E-01 4.15843E-26
2.53788E-01 3.97334E-26
2.57595E-01 3.79733E-26
2.61421E-01 3.62991E-26
2.65264E-01 3.47062E-26
2.69126E-01 3.31901E-26
2.73005E-01 3.17468E-26
2.76901E-01 3.03724E-26
2.80814E-01 2.90634E-26
2.84744E-01 2.78162E-26
2.88691E-01 2.66277E-26
2.92653E-01 2.54948E-26
2.96632E-01 2.44146E-26
3.00625E-01 2.33845E-26
3.04634E-01 2.24020E-26
3.08658E-01 2.14645E-26
3.12697E-01 2.05698E-26
3.16749E-01 1.97158E-26
3.20816E-01 1.89005E-26
3.24896E-01 1.81219E-26
3.28990E-01 1.73783E-26
3.33097E-01 1.66678E-26
3.37216E-01 1.59889E-26
3.41348E-01 1.53401E-26
3.45492E-01 1.47199E-26
3.49647E-01 1.41269E-26
3.53814E-01 1.35598E-26
3.57992E-01 1.30174E-26
3.62181E-01 1.24985E-26
3.66381E-01 1.20020E-26
3.70590E-01 1.15269E-26
3.74810E-01 1.10721E-26
3.79039E-01 1.06367E-26
3.83277E-01 1.02197E-26
3.87524E-01 9.82048E-27
3.91780E-01 9.43805E-27
3.96044E-01 9.07168E-27
4.00316E-01 8.72064E-27
4.04596E-01 8.38423E-27
4.08882E-01 8.06179E-27
4.13176E-01 7.75270E-27
4.17476E-01 7.45635E-27
4.21783E-01 7.17217E-27
4.26095E-01 6.89963E-27
4.30413E-01 6.63821E-27
4.34737E-01 6.38742E-27
4.39065E-01 6.14679E-27
4.43398E-01 5.91587E-27
4.47736E-01 5.69424E-27
4.52077E-01 5.48151E-27
4.56422E-01 5.27727E-27
4.60770E-01 5.08118E-27
4.65122E-01 4.89287E-27
4.69476E-01 4.71201E-27
4.73832E-01 4.53829E-27
4.78190E-01 4.37141E-27
4.82550E-01 4.21106E-27
4.86912E-01 4.05699E-27
4.91274E-01 3.90891E-27
4.95637E-01 3.76659E-27
5.00000E-01 3.62978E-27
5.04363E-01 3.49825E-27
5.08726E-01 3.37179E-27
5.13088E-01 3.25018E-27
5.17450E-01 3.13322E-27
5.21810E-01 3.02073E-27
5.26168E-01 2.91252E-27
5.30524E-01 2.80841E-27
5.34878E-01 2.70824E-27
5.39230E-01 2.61185E-27
5.43578E-01 2.51908E-27
5.47923E-01 2.42980E-27
5.52264E-01 2.34385E-27
5.56602E-01 2.26111E-27
5.60935E-01 2.18145E-27
5.65263E-01 2.10475E-27
5.69587E-01 2.03088E-27
5.73905E-01 1.95974E-27
5.78217E-01 1.89122E-27
5.82524E-01 1.82522E-27
5.86824E-01 1.76163E-27
5.91118E-01 1.70037E-27
5.95404E-01 1.64134E-27
5.99684E-01 1.58445E-27
6.03956E-01 1.52962E-27
6.08220E-01 1.47678E-27
6.12476E-01 1.42585E-27
6.16723E-01 1.37674E-27
6.20961E-01 1.32940E-27
6.25190E-01 1.28376E-27
6.29410E-01 1.23974E-27
6.33619E-01 1.19730E-27
6.37819E-01 1.15636E-27
6.42008E-01 1.11688E-27
6.46186E-01 1.07879E-27
6.50353E-01 1.04205E-27
6.54508E-01 1.00660E-27
6.58652E-01 9.72396E-28
6.62784E-01 9.39393E-28
6.66903E-01 9.07544E-28
6.71010E-01 8.76808E-28
6.75104E-01 8.47142E-28
6.79184E-01 8.18507E-28
6.83251E-01 7.90866E-28
6.87303E-01 7.64181E-28
6.91342E-01 7.38417E-28
6.95366E-01 7.13541E-28
6.99375E-01 6.89521E-28
7.03368E-01 6.66325E-28
7.07347E-01 6.43923E-28
7.11309E-01 6.22287E-28
7.15256E-01 6.01389E-28
7.19186E-01 5.81202E-28
7.23099E-01 5.61700E-28
7.26995E-01 5.42860E-28
7.30874E-01 5.24657E-28
7.34736E-01 5.07069E-28
7.38579E-01 4.90074E-28
7.42405E-01 4.73650E-28
7.46212E-01 4.57778E-28
7.50000E-01 4.42437E-28
7.53769E-01 4.27610E-28
7.57519E-01 4.13278E-28
7.61249E-01 3.99423E-28
7.64960E-01 3.86029E-28
7.68650E-01 3.73080E-28
7.72320E-01 3.60560E-28
7.75968E-01 3.48455E-28
7.79596E-01 3.36749E-28
7.83203E-01 3.25429E-28
7.86788E-01 3.14482E-28
7.90351E-01 3.03895E-28
7.93893E-01 2.93655E-28
7.97411E-01 2.83750E-28
8.00908E-01 2.74170E-28
8.04381E-01 2.64902E-28
8.07831E-01 2.55937E-28
8.11257E-01 2.47263E-28
8.14660E-01 2.38871E-28
8.18039E-01 2.30752E-28
8.21394E-01 2.22896E-28
8.24724E-01 2.15294E-28
8.28030E-01 2.07938E-28
8.31310E-01 2.00820E-28
8.34565E-01 1.93930E-28
8.37795E-01 1.87263E-28
8.40999E-01 1.80810E-28
8.44177E-01 1.74564E-28
8.47329E-01 1.68519E-28
8.50455E-01 1.62667E-28
8.53553E-01 1.57003E-28
8.56625E-01 1.51520E-28
8.59670E-01 1.46212E-28
8.62687E-01 1.41073E-28
8.65677E-01 1.36098E-28
8.68639E-01 1.31282E-28
8.71572E-01 1.26619E-28
8.74478E-01 1.22104E-28
8.77355E-01 1.17733E-28
8.80203E-01 1.13500E-28
8.83022E-01 1.09403E-28
8.85812E-01 1.05435E-28
8.88573E-01 1.01593E-28
8.91304E-01 9.78723E-29
8.94005E-01 9.42700E-29
8.96677E-01 9.07820E-29
8.99318E-01 8.74044E-29
9.01928E-01 8.41339E-29
9.04508E-01 8.09671E-29
9.07058E-01 7.79007E-29
9.09576E-01 7.49316E-29
9.12063E-01 7.20567E-29
9.14519E-01 6.92730E-29
9.16943E-01 6.65778E-29
9.19335E-01 6.39683E-29
9.21696E-01 6.14418E-29
9.24024E-01 5.89958E-29
9.26320E-01 5.66279E-29
9.28584E-01 5.43357E-29
9.30815E-01 5.21168E-29
9.33013E-01 4.99690E-29
9.35178E-01 4.78903E-29
9.37310E-01 4.58784E-29
9.39409E-01 4.39315E-29
9.41474E-01 4.20477E-29
9.43505E-01 4.02250E-29
9.45503E-01 3.84616E-29
9.47467E-01 3.67559E-29
9.49397E-01 3.51061E-29
9.51293E-01 3.35107E-29
9.53154E-01 3.19680E-29
9.54981E-01 3.04767E-29
9.56773E-01 2.90352E-29
9.58530E-01 2.76421E-29
9.60252E-01 2.62961E-29
9.61940E-01 2.49960E-29
9.63592E-01 2.37403E-29
9.65209E-01 2.25280E-29
9.66790E-01 2.13579E-29
9.68336E-01 2.02289E-29
9.69846E-01 1.91398E-29
9.71321E-01 1.80897E-29
9.72759E-01 1.70775E-29
9.74162E-01 1.61023E-29
9.75528E-01 1.51632E-29
9.76858E-01 1.42593E-29
9.78152E-01 1.33896E-29
9.79410E-01 1.25535E-29
9.80631E-01 1.17501E-29
9.81815E-01 1.09786E-29
9.82963E-01 1.02384E-29
9.84074E-01 9.52873E-30
9.85148E-01 8.84893E-30
9.86185E-01 8.19837E-30
9.87185E-01 7.57645E-30
9.88148E-01 6.98258E-30
9.89074E-01 6.41622E-30
9.89962E-01 5.87684E-30
9.90814E-01 5.36394E-30
9.91627E-01 4.87704E-30
9.92404E-01 4.41570E-30
9.93143E-01 3.97948E-30
9.93844E-01 3.56798E-30
9.94508E-01 3.18082E-30
9.95134E-01 2.81766E-30
9.95722E-01 2.47814E-30
9.96273E-01 2.16196E-30
9.96786E-01 1.86883E-30
9.97261E-01 1.59848E-30
9.97698E-01 1.35066E-30
9.98097E-01 1.12515E-30
9.98459E-01 9.21725E-31
9.98782E-01 7.40214E-31
9.99067E-01 5.80447E-31
9.99315E-01 4.42277E-31
9.99524E-01 3.25576E-31
9.99695E-01 2.30239E-31
9.99829E-01 1.56179E-31
9.99924E-01 1.03326E-31
9.99981E-01 7.16345E-32
1.00000E+00 6.10738E-32
