 #
 # Subroutine ELSEPA. Elastic scattering of electrons and positrons
 #                    by neutral atoms and positive ions
 #
 # Projectile: positron
 # Kinetic energy = 3.00000E+06 eV = 1.10248E+05 a.u.
 #
 # WARNING: High-energy factorization with free-atom DF screening.
 #          Absorption, polarization and exchange corrections are
 #          switched off.
 #          Phase shifts are calculated for the bare nucleus.
 #          Scattering amplitudes are not evaluated.
 #
 # Element: Fr,  Z =  87,  atomic weight = 2.23020E+02 g/mol
 #
 # Nuclear model: Fermi distribution
 #                Average radius = 6.48881E-13 cm
 #                Skin thickness = 5.46000E-14 cm
 #
 # Number of electrons = 87
 #
 # Total elastic cross section = 1.06243E-17 cm**2 = 3.79399E-01 a0**2
 # 1st transport cross section = 6.73008E-22 cm**2 = 2.40335E-05 a0**2
 # 2nd transport cross section = 1.92206E-21 cm**2 = 6.86379E-05 a0**2
 #
 #
 # Differential cross section:                       MU=(1-COS(THETA))/2
 #
 #  THETA        MU          DCS          DCS        Sherman      error
 #  (deg)                 (cm**2/sr)   (a0**2/sr)    function
 #----------------------------------------------------------------------
0.00000E+00 1.54881E-12
7.61557E-13 1.54880E-12
1.18994E-12 1.54879E-12
1.71346E-12 1.54878E-12
2.33225E-12 1.54877E-12
3.04617E-12 1.54876E-12
3.85530E-12 1.54875E-12
4.75964E-12 1.54873E-12
5.75917E-12 1.54872E-12
6.85391E-12 1.54870E-12
8.04379E-12 1.54868E-12
9.32893E-12 1.54866E-12
1.07092E-11 1.54864E-12
1.21847E-11 1.54862E-12
1.37554E-11 1.54860E-12
1.54213E-11 1.54857E-12
1.71823E-11 1.54854E-12
1.90386E-11 1.54852E-12
2.09900E-11 1.54849E-12
2.30367E-11 1.54846E-12
2.51785E-11 1.54842E-12
2.74156E-11 1.54839E-12
2.97478E-11 1.54835E-12
3.21752E-11 1.54832E-12
3.46979E-11 1.54828E-12
3.73157E-11 1.54824E-12
4.00286E-11 1.54820E-12
4.28368E-11 1.54816E-12
4.57402E-11 1.54811E-12
4.87388E-11 1.54807E-12
5.18325E-11 1.54802E-12
5.50215E-11 1.54797E-12
5.83057E-11 1.54792E-12
6.16850E-11 1.54787E-12
6.51595E-11 1.54782E-12
6.87293E-11 1.54776E-12
7.23943E-11 1.54771E-12
7.61544E-11 1.54765E-12
1.18991E-10 1.54701E-12
1.71347E-10 1.54622E-12
2.33223E-10 1.54529E-12
3.04617E-10 1.54422E-12
3.85531E-10 1.54302E-12
4.75965E-10 1.54167E-12
5.75917E-10 1.54018E-12
6.85389E-10 1.53856E-12
8.04380E-10 1.53679E-12
9.32891E-10 1.53489E-12
1.07092E-09 1.53286E-12
1.21847E-09 1.53069E-12
1.37554E-09 1.52839E-12
1.54213E-09 1.52596E-12
1.71823E-09 1.52339E-12
1.90386E-09 1.52070E-12
2.09900E-09 1.51788E-12
2.30367E-09 1.51493E-12
2.51785E-09 1.51185E-12
2.74156E-09 1.50866E-12
2.97478E-09 1.50534E-12
3.21752E-09 1.50190E-12
3.46978E-09 1.49834E-12
3.73156E-09 1.49466E-12
4.00286E-09 1.49087E-12
4.28368E-09 1.48696E-12
4.57402E-09 1.48295E-12
4.87388E-09 1.47882E-12
5.18326E-09 1.47459E-12
5.50215E-09 1.47025E-12
5.83057E-09 1.46581E-12
6.16850E-09 1.46126E-12
6.51596E-09 1.45662E-12
6.87293E-09 1.45188E-12
7.23942E-09 1.44704E-12
7.61544E-09 1.44211E-12
1.18991E-08 1.38818E-12
1.71347E-08 1.32742E-12
2.33223E-08 1.26290E-12
3.04617E-08 1.19464E-12
3.85531E-08 1.12695E-12
4.75965E-08 1.05976E-12
5.75917E-08 9.93990E-13
6.85389E-08 9.32620E-13
8.04380E-08 8.73797E-13
9.32891E-08 8.18865E-13
1.07092E-07 7.68287E-13
1.21847E-07 7.20855E-13
1.37554E-07 6.77569E-13
1.54213E-07 6.37586E-13
1.71823E-07 6.00438E-13
1.90386E-07 5.66644E-13
2.09900E-07 5.35195E-13
2.30367E-07 5.06081E-13
2.51785E-07 4.79194E-13
2.74156E-07 4.54113E-13
2.97478E-07 4.30782E-13
3.21752E-07 4.08968E-13
3.46978E-07 3.88573E-13
3.73156E-07 3.69414E-13
4.00286E-07 3.51407E-13
4.28368E-07 3.34521E-13
4.57402E-07 3.18493E-13
4.87388E-07 3.03426E-13
5.18325E-07 2.89206E-13
5.50215E-07 2.75690E-13
5.83057E-07 2.62969E-13
6.16850E-07 2.50884E-13
6.51596E-07 2.39423E-13
6.87293E-07 2.28624E-13
7.23942E-07 2.18304E-13
7.61543E-07 2.08552E-13
1.18991E-06 1.34597E-13
1.71347E-06 9.02681E-14
2.33223E-06 6.23298E-14
3.04617E-06 4.53346E-14
3.85531E-06 3.35014E-14
4.75964E-06 2.54529E-14
5.75916E-06 1.97683E-14
6.85388E-06 1.54664E-14
8.04378E-06 1.23354E-14
9.32888E-06 9.95170E-15
1.07092E-05 8.10644E-15
1.21846E-05 6.69095E-15
1.37553E-05 5.56508E-15
1.54212E-05 4.67154E-15
1.71822E-05 3.95908E-15
1.90385E-05 3.36891E-15
2.09899E-05 2.89339E-15
2.30365E-05 2.49993E-15
2.51783E-05 2.16728E-15
2.74153E-05 1.88945E-15
2.97475E-05 1.65340E-15
3.21749E-05 1.45211E-15
3.46974E-05 1.28134E-15
3.73152E-05 1.13372E-15
4.00281E-05 1.00688E-15
4.28362E-05 8.97568E-16
4.57395E-05 8.02054E-16
4.87380E-05 7.18908E-16
5.18317E-05 6.45789E-16
5.50205E-05 5.81531E-16
5.83045E-05 5.25273E-16
6.16838E-05 4.75647E-16
6.51582E-05 4.31826E-16
6.87277E-05 3.93105E-16
7.23925E-05 3.58587E-16
7.61524E-05 3.27862E-16
9.21439E-05 2.33625E-16
1.09658E-04 1.71048E-16
1.28695E-04 1.28247E-16
1.49255E-04 9.80992E-17
1.71338E-04 7.63342E-17
1.94942E-04 6.02541E-17
2.20070E-04 4.82083E-17
2.46720E-04 3.90405E-17
2.74892E-04 3.19786E-17
3.04586E-04 2.64186E-17
3.35803E-04 2.20309E-17
3.68542E-04 1.85222E-17
4.02802E-04 1.56773E-17
4.38585E-04 1.33643E-17
4.75889E-04 1.14602E-17
5.14715E-04 9.88165E-18
5.55063E-04 8.56768E-18
5.96931E-04 7.46180E-18
6.40321E-04 6.52872E-18
6.85233E-04 5.73752E-18
7.31665E-04 5.06028E-18
7.79618E-04 4.48058E-18
8.29092E-04 3.98124E-18
8.80086E-04 3.54881E-18
9.32601E-04 3.17379E-18
9.86636E-04 2.84660E-18
1.04219E-03 2.56037E-18
1.09927E-03 2.30937E-18
1.15786E-03 2.08805E-18
1.21797E-03 1.89269E-18
1.27961E-03 1.71969E-18
1.34276E-03 1.56583E-18
1.40743E-03 1.42889E-18
1.47362E-03 1.30656E-18
1.54133E-03 1.19700E-18
1.61056E-03 1.09873E-18
1.68131E-03 1.01029E-18
1.75357E-03 9.30565E-19
1.82735E-03 8.58581E-19
1.90265E-03 7.93362E-19
1.97947E-03 7.34238E-19
2.05780E-03 6.80518E-19
2.13765E-03 6.31588E-19
2.21902E-03 5.86990E-19
2.30190E-03 5.46242E-19
2.38630E-03 5.08953E-19
2.47222E-03 4.74799E-19
2.55965E-03 4.43437E-19
2.64859E-03 4.14619E-19
2.73905E-03 3.88103E-19
2.83103E-03 3.63651E-19
2.92452E-03 3.41095E-19
3.01952E-03 3.20254E-19
3.11604E-03 3.00967E-19
3.21407E-03 2.83111E-19
3.31362E-03 2.66548E-19
3.41468E-03 2.51172E-19
3.51725E-03 2.36889E-19
3.62133E-03 2.23594E-19
3.72692E-03 2.11217E-19
3.83403E-03 1.99681E-19
3.94265E-03 1.88913E-19
4.05278E-03 1.78860E-19
4.16442E-03 1.69463E-19
4.27757E-03 1.60669E-19
4.39223E-03 1.52437E-19
4.50840E-03 1.44721E-19
4.62608E-03 1.37484E-19
4.74527E-03 1.30692E-19
4.86597E-03 1.24309E-19
4.98817E-03 1.18310E-19
5.11188E-03 1.12667E-19
5.23711E-03 1.07353E-19
5.36383E-03 1.02347E-19
5.49207E-03 9.76272E-20
5.62181E-03 9.31744E-20
5.75306E-03 8.89718E-20
5.88581E-03 8.50008E-20
6.02007E-03 8.12479E-20
6.15583E-03 7.76988E-20
6.29310E-03 7.43393E-20
6.43187E-03 7.11588E-20
6.57214E-03 6.81453E-20
6.71392E-03 6.52883E-20
6.85720E-03 6.25789E-20
7.00198E-03 6.00072E-20
7.14827E-03 5.75655E-20
7.29605E-03 5.52462E-20
7.44534E-03 5.30412E-20
7.59612E-03 5.09447E-20
7.97965E-03 4.61362E-20
8.37255E-03 4.18782E-20
8.77480E-03 3.80974E-20
9.18641E-03 3.47308E-20
9.60736E-03 3.17258E-20
1.00376E-02 2.90367E-20
1.04773E-02 2.66246E-20
1.09262E-02 2.44563E-20
1.13844E-02 2.25028E-20
1.18520E-02 2.07392E-20
1.23288E-02 1.91438E-20
1.28150E-02 1.76979E-20
1.33104E-02 1.63849E-20
1.38150E-02 1.51906E-20
1.43290E-02 1.41024E-20
1.48521E-02 1.31092E-20
1.53845E-02 1.22012E-20
1.59262E-02 1.13699E-20
1.64770E-02 1.06077E-20
1.70371E-02 9.90775E-21
1.76063E-02 9.26415E-21
1.81848E-02 8.67155E-21
1.87724E-02 8.12518E-21
1.93692E-02 7.62076E-21
1.99751E-02 7.15464E-21
2.05901E-02 6.72324E-21
2.12143E-02 6.32361E-21
2.18476E-02 5.95300E-21
2.24900E-02 5.60884E-21
2.31415E-02 5.28901E-21
2.38021E-02 4.99143E-21
2.44717E-02 4.71427E-21
2.51504E-02 4.45593E-21
2.58382E-02 4.21484E-21
2.65349E-02 3.98969E-21
2.72407E-02 3.77924E-21
2.79555E-02 3.58231E-21
2.86793E-02 3.39793E-21
2.94120E-02 3.22513E-21
3.01537E-02 3.06305E-21
3.09043E-02 2.91094E-21
3.16639E-02 2.76803E-21
3.24324E-02 2.63369E-21
3.32098E-02 2.50733E-21
3.39961E-02 2.38835E-21
3.47912E-02 2.27627E-21
3.55952E-02 2.17061E-21
3.64081E-02 2.07094E-21
3.72297E-02 1.97686E-21
3.80602E-02 1.88800E-21
3.88995E-02 1.80401E-21
3.97476E-02 1.72459E-21
4.06044E-02 1.64943E-21
4.14700E-02 1.57827E-21
4.23443E-02 1.51086E-21
4.32273E-02 1.44696E-21
4.41190E-02 1.38637E-21
4.50194E-02 1.32887E-21
4.59284E-02 1.27428E-21
4.68461E-02 1.22243E-21
4.87074E-02 1.12630E-21
5.06030E-02 1.03932E-21
5.25328E-02 9.60460E-22
5.44967E-02 8.88844E-22
5.64946E-02 8.23686E-22
5.85262E-02 7.64308E-22
6.05914E-02 7.10111E-22
6.26901E-02 6.60563E-22
6.48222E-02 6.15199E-22
6.69873E-02 5.73604E-22
6.91854E-02 5.35414E-22
7.14163E-02 5.00300E-22
7.36799E-02 4.67973E-22
7.59760E-02 4.38173E-22
7.83043E-02 4.10670E-22
8.06647E-02 3.85256E-22
8.30571E-02 3.61744E-22
8.54812E-02 3.39969E-22
8.79369E-02 3.19779E-22
9.04240E-02 3.01040E-22
9.29422E-02 2.83629E-22
9.54915E-02 2.67436E-22
9.80716E-02 2.52361E-22
1.00682E-01 2.38314E-22
1.03323E-01 2.25213E-22
1.05995E-01 2.12982E-22
1.08696E-01 2.01554E-22
1.11427E-01 1.90867E-22
1.14188E-01 1.80865E-22
1.16978E-01 1.71497E-22
1.19797E-01 1.62715E-22
1.22645E-01 1.54476E-22
1.25522E-01 1.46741E-22
1.28428E-01 1.39473E-22
1.31361E-01 1.32641E-22
1.34323E-01 1.26212E-22
1.37313E-01 1.20160E-22
1.40330E-01 1.14458E-22
1.43375E-01 1.09082E-22
1.46447E-01 1.04011E-22
1.49545E-01 9.92238E-23
1.52671E-01 9.47026E-23
1.55823E-01 9.04298E-23
1.59001E-01 8.63892E-23
1.62205E-01 8.25662E-23
1.65435E-01 7.89470E-23
1.68690E-01 7.55188E-23
1.71970E-01 7.22700E-23
1.75276E-01 6.91892E-23
1.78606E-01 6.62666E-23
1.81961E-01 6.34924E-23
1.85340E-01 6.08579E-23
1.88743E-01 5.83548E-23
1.92169E-01 5.59754E-23
1.95619E-01 5.37127E-23
1.99092E-01 5.15597E-23
2.02589E-01 4.95104E-23
2.06107E-01 4.75588E-23
2.09649E-01 4.56996E-23
2.13212E-01 4.39275E-23
2.16797E-01 4.22377E-23
2.20404E-01 4.06259E-23
2.24032E-01 3.90878E-23
2.27680E-01 3.76194E-23
2.31350E-01 3.62170E-23
2.35040E-01 3.48772E-23
2.38751E-01 3.35968E-23
2.42481E-01 3.23724E-23
2.46231E-01 3.12014E-23
2.50000E-01 3.00810E-23
2.53788E-01 2.90086E-23
2.57595E-01 2.79819E-23
2.61421E-01 2.69984E-23
2.65264E-01 2.60562E-23
2.69126E-01 2.51532E-23
2.73005E-01 2.42874E-23
2.76901E-01 2.34571E-23
2.80814E-01 2.26606E-23
2.84744E-01 2.18962E-23
2.88691E-01 2.11625E-23
2.92653E-01 2.04580E-23
2.96632E-01 1.97813E-23
3.00625E-01 1.91312E-23
3.04634E-01 1.85064E-23
3.08658E-01 1.79057E-23
3.12697E-01 1.73282E-23
3.16749E-01 1.67727E-23
3.20816E-01 1.62382E-23
3.24896E-01 1.57239E-23
3.28990E-01 1.52288E-23
3.33097E-01 1.47522E-23
3.37216E-01 1.42931E-23
3.41348E-01 1.38508E-23
3.45492E-01 1.34247E-23
3.49647E-01 1.30140E-23
3.53814E-01 1.26181E-23
3.57992E-01 1.22363E-23
3.62181E-01 1.18681E-23
3.66381E-01 1.15129E-23
3.70590E-01 1.11701E-23
3.74810E-01 1.08393E-23
3.79039E-01 1.05200E-23
3.83277E-01 1.02116E-23
3.87524E-01 9.91387E-24
3.91780E-01 9.62623E-24
3.96044E-01 9.34833E-24
4.00316E-01 9.07977E-24
4.04596E-01 8.82020E-24
4.08882E-01 8.56925E-24
4.13176E-01 8.32660E-24
4.17476E-01 8.09192E-24
4.21783E-01 7.86491E-24
4.26095E-01 7.64528E-24
4.30413E-01 7.43275E-24
4.34737E-01 7.22705E-24
4.39065E-01 7.02793E-24
4.43398E-01 6.83513E-24
4.47736E-01 6.64844E-24
4.52077E-01 6.46761E-24
4.56422E-01 6.29244E-24
4.60770E-01 6.12272E-24
4.65122E-01 5.95825E-24
4.69476E-01 5.79884E-24
4.73832E-01 5.64431E-24
4.78190E-01 5.49449E-24
4.82550E-01 5.34921E-24
4.86912E-01 5.20832E-24
4.91274E-01 5.07164E-24
4.95637E-01 4.93905E-24
5.00000E-01 4.81040E-24
5.04363E-01 4.68556E-24
5.08726E-01 4.56438E-24
5.13088E-01 4.44675E-24
5.17450E-01 4.33255E-24
5.21810E-01 4.22165E-24
5.26168E-01 4.11396E-24
5.30524E-01 4.00935E-24
5.34878E-01 3.90774E-24
5.39230E-01 3.80901E-24
5.43578E-01 3.71308E-24
5.47923E-01 3.61985E-24
5.52264E-01 3.52924E-24
5.56602E-01 3.44115E-24
5.60935E-01 3.35552E-24
5.65263E-01 3.27225E-24
5.69587E-01 3.19128E-24
5.73905E-01 3.11253E-24
5.78217E-01 3.03594E-24
5.82524E-01 2.96142E-24
5.86824E-01 2.88892E-24
5.91118E-01 2.81838E-24
5.95404E-01 2.74972E-24
5.99684E-01 2.68291E-24
6.03956E-01 2.61787E-24
6.08220E-01 2.55455E-24
6.12476E-01 2.49291E-24
6.16723E-01 2.43288E-24
6.20961E-01 2.37443E-24
6.25190E-01 2.31751E-24
6.29410E-01 2.26206E-24
6.33619E-01 2.20805E-24
6.37819E-01 2.15543E-24
6.42008E-01 2.10416E-24
6.46186E-01 2.05421E-24
6.50353E-01 2.00552E-24
6.54508E-01 1.95807E-24
6.58652E-01 1.91183E-24
6.62784E-01 1.86674E-24
6.66903E-01 1.82279E-24
6.71010E-01 1.77994E-24
6.75104E-01 1.73816E-24
6.79184E-01 1.69741E-24
6.83251E-01 1.65768E-24
6.87303E-01 1.61892E-24
6.91342E-01 1.58112E-24
6.95366E-01 1.54424E-24
6.99375E-01 1.50827E-24
7.03368E-01 1.47317E-24
7.07347E-01 1.43892E-24
7.11309E-01 1.40550E-24
7.15256E-01 1.37289E-24
7.19186E-01 1.34106E-24
7.23099E-01 1.30999E-24
7.26995E-01 1.27967E-24
7.30874E-01 1.25007E-24
7.34736E-01 1.22117E-24
7.38579E-01 1.19296E-24
7.42405E-01 1.16541E-24
7.46212E-01 1.13851E-24
7.50000E-01 1.11225E-24
7.53769E-01 1.08660E-24
7.57519E-01 1.06155E-24
7.61249E-01 1.03708E-24
7.64960E-01 1.01318E-24
7.68650E-01 9.89839E-25
7.72320E-01 9.67037E-25
7.75968E-01 9.44761E-25
7.79596E-01 9.23000E-25
7.83203E-01 9.01738E-25
7.86788E-01 8.80965E-25
7.90351E-01 8.60667E-25
7.93893E-01 8.40833E-25
7.97411E-01 8.21452E-25
8.00908E-01 8.02512E-25
8.04381E-01 7.84002E-25
8.07831E-01 7.65912E-25
8.11257E-01 7.48232E-25
8.14660E-01 7.30952E-25
8.18039E-01 7.14062E-25
8.21394E-01 6.97554E-25
8.24724E-01 6.81417E-25
8.28030E-01 6.65644E-25
8.31310E-01 6.50226E-25
8.34565E-01 6.35155E-25
8.37795E-01 6.20422E-25
8.40999E-01 6.06020E-25
8.44177E-01 5.91941E-25
8.47329E-01 5.78177E-25
8.50455E-01 5.64722E-25
8.53553E-01 5.51568E-25
8.56625E-01 5.38709E-25
8.59670E-01 5.26137E-25
8.62687E-01 5.13847E-25
8.65677E-01 5.01831E-25
8.68639E-01 4.90084E-25
8.71572E-01 4.78601E-25
8.74478E-01 4.67375E-25
8.77355E-01 4.56401E-25
8.80203E-01 4.45673E-25
8.83022E-01 4.35187E-25
8.85812E-01 4.24937E-25
8.88573E-01 4.14918E-25
8.91304E-01 4.05126E-25
8.94005E-01 3.95555E-25
8.96677E-01 3.86201E-25
8.99318E-01 3.77059E-25
9.01928E-01 3.68126E-25
9.04508E-01 3.59397E-25
9.07058E-01 3.50867E-25
9.09576E-01 3.42534E-25
9.12063E-01 3.34392E-25
9.14519E-01 3.26438E-25
9.16943E-01 3.18669E-25
9.19335E-01 3.11080E-25
9.21696E-01 3.03669E-25
9.24024E-01 2.96433E-25
9.26320E-01 2.89366E-25
9.28584E-01 2.82468E-25
9.30815E-01 2.75733E-25
9.33013E-01 2.69161E-25
9.35178E-01 2.62747E-25
9.37310E-01 2.56488E-25
9.39409E-01 2.50382E-25
9.41474E-01 2.44427E-25
9.43505E-01 2.38619E-25
9.45503E-01 2.32956E-25
9.47467E-01 2.27436E-25
9.49397E-01 2.22056E-25
9.51293E-01 2.16814E-25
9.53154E-01 2.11708E-25
9.54981E-01 2.06735E-25
9.56773E-01 2.01894E-25
9.58530E-01 1.97181E-25
9.60252E-01 1.92596E-25
9.61940E-01 1.88136E-25
9.63592E-01 1.83800E-25
9.65209E-01 1.79585E-25
9.66790E-01 1.75490E-25
9.68336E-01 1.71513E-25
9.69846E-01 1.67653E-25
9.71321E-01 1.63907E-25
9.72759E-01 1.60275E-25
9.74162E-01 1.56754E-25
9.75528E-01 1.53344E-25
9.76858E-01 1.50042E-25
9.78152E-01 1.46849E-25
9.79410E-01 1.43761E-25
9.80631E-01 1.40779E-25
9.81815E-01 1.37900E-25
9.82963E-01 1.35124E-25
9.84074E-01 1.32450E-25
9.85148E-01 1.29875E-25
9.86185E-01 1.27401E-25
9.87185E-01 1.25024E-25
9.88148E-01 1.22745E-25
9.89074E-01 1.20563E-25
9.89962E-01 1.18476E-25
9.90814E-01 1.16484E-25
9.91627E-01 1.14586E-25
9.92404E-01 1.12781E-25
9.93143E-01 1.11068E-25
9.93844E-01 1.09448E-25
9.94508E-01 1.07918E-25
9.95134E-01 1.06480E-25
9.95722E-01 1.05131E-25
9.96273E-01 1.03872E-25
9.96786E-01 1.02702E-25
9.97261E-01 1.01620E-25
9.97698E-01 1.00626E-25
9.98097E-01 9.97202E-26
9.98459E-01 9.89017E-26
9.98782E-01 9.81701E-26
9.99067E-01 9.75253E-26
9.99315E-01 9.69670E-26
9.99524E-01 9.64949E-26
9.99695E-01 9.61089E-26
9.99829E-01 9.58089E-26
9.99924E-01 9.55947E-26
9.99981E-01 9.54662E-26
1.00000E+00 9.54233E-26
