 #
 # Subroutine ELSEPA. Elastic scattering of electrons and positrons
 #                    by neutral atoms and positive ions
 #
 # Projectile: positron
 # Kinetic energy = 1.25000E+08 eV = 4.59367E+06 a.u.
 #
 # WARNING: High-energy factorization with free-atom DF screening.
 #          Absorption, polarization and exchange corrections are
 #          switched off.
 #          Phase shifts are calculated for the bare nucleus.
 #          Scattering amplitudes are not evaluated.
 #
 # Element: Fr,  Z =  87,  atomic weight = 2.23020E+02 g/mol
 #
 # Nuclear model: Fermi distribution
 #                Average radius = 6.48881E-13 cm
 #                Skin thickness = 5.46000E-14 cm
 #
 # Number of electrons = 87
 #
 # Total elastic cross section = 1.04196E-17 cm**2 = 3.72090E-01 a0**2
 # 1st transport cross section = 8.71804E-25 cm**2 = 3.11327E-08 a0**2
 # 2nd transport cross section = 2.59894E-24 cm**2 = 9.28100E-08 a0**2
 #
 #
 # Differential cross section:                       MU=(1-COS(THETA))/2
 #
 #  THETA        MU          DCS          DCS        Sherman      error
 #  (deg)                 (cm**2/sr)   (a0**2/sr)    function
 #----------------------------------------------------------------------
0.00000E+00 1.97925E-09
7.61557E-13 1.96036E-09
1.18994E-12 1.94989E-09
1.71346E-12 1.93725E-09
2.33225E-12 1.92251E-09
3.04617E-12 1.90577E-09
3.85530E-12 1.88713E-09
4.75964E-12 1.86671E-09
5.75917E-12 1.84464E-09
6.85391E-12 1.82104E-09
8.04379E-12 1.79604E-09
9.32893E-12 1.76979E-09
1.07092E-11 1.74244E-09
1.21847E-11 1.71410E-09
1.37554E-11 1.68491E-09
1.54213E-11 1.65543E-09
1.71823E-11 1.62548E-09
1.90386E-11 1.59468E-09
2.09900E-11 1.56312E-09
2.30367E-11 1.53117E-09
2.51785E-11 1.50038E-09
2.74156E-11 1.46912E-09
2.97478E-11 1.43747E-09
3.21752E-11 1.40549E-09
3.46979E-11 1.37494E-09
3.73157E-11 1.34471E-09
4.00286E-11 1.31436E-09
4.28368E-11 1.28397E-09
4.57402E-11 1.25441E-09
4.87388E-11 1.22616E-09
5.18325E-11 1.19799E-09
5.50215E-11 1.16995E-09
5.83057E-11 1.14213E-09
6.16850E-11 1.11635E-09
6.51595E-11 1.09078E-09
6.87293E-11 1.06544E-09
7.23943E-11 1.04037E-09
7.61544E-11 1.01662E-09
1.18991E-10 8.11810E-10
1.71347E-10 6.58654E-10
2.33223E-10 5.42389E-10
3.04617E-10 4.51406E-10
3.85531E-10 3.78372E-10
4.75965E-10 3.18847E-10
5.75917E-10 2.69830E-10
6.85389E-10 2.29316E-10
8.04380E-10 1.95805E-10
9.32891E-10 1.68017E-10
1.07092E-09 1.44870E-10
1.21847E-09 1.25580E-10
1.37554E-09 1.09435E-10
1.54213E-09 9.54420E-11
1.71823E-09 8.35976E-11
1.90386E-09 7.38817E-11
2.09900E-09 6.58395E-11
2.30367E-09 5.89958E-11
2.51785E-09 5.25323E-11
2.74156E-09 4.70948E-11
2.97478E-09 4.24877E-11
3.21752E-09 3.85580E-11
3.46978E-09 3.48515E-11
3.73156E-09 3.15753E-11
4.00286E-09 2.87481E-11
4.28368E-09 2.62952E-11
4.57402E-09 2.40639E-11
4.87388E-09 2.19837E-11
5.18326E-09 2.01618E-11
5.50215E-09 1.85594E-11
5.83057E-09 1.71413E-11
6.16850E-09 1.57721E-11
6.51596E-09 1.45583E-11
6.87293E-09 1.34783E-11
7.23942E-09 1.25142E-11
7.61544E-09 1.16104E-11
1.18991E-08 5.92128E-12
1.71347E-08 3.35574E-12
2.33223E-08 2.04330E-12
3.04617E-08 1.30793E-12
3.85531E-08 8.73317E-13
4.75965E-08 6.03883E-13
5.75917E-08 4.31567E-13
6.85389E-08 3.16967E-13
8.04380E-08 2.38198E-13
9.32891E-08 1.82622E-13
1.07092E-07 1.42459E-13
1.21847E-07 1.12807E-13
1.37554E-07 9.04945E-14
1.54213E-07 7.33847E-14
1.71823E-07 6.02095E-14
1.90386E-07 4.98404E-14
2.09900E-07 4.16582E-14
2.30367E-07 3.50514E-14
2.51785E-07 2.97328E-14
2.74156E-07 2.53785E-14
2.97478E-07 2.17983E-14
3.21752E-07 1.88314E-14
3.46978E-07 1.63477E-14
3.73156E-07 1.42674E-14
4.00286E-07 1.24998E-14
4.28368E-07 1.10020E-14
4.57402E-07 9.71936E-15
4.87388E-07 8.61850E-15
5.18325E-07 7.66930E-15
5.50215E-07 6.84567E-15
5.83057E-07 6.13109E-15
6.16850E-07 5.50524E-15
6.51596E-07 4.95821E-15
6.87293E-07 4.47684E-15
7.23942E-07 4.05257E-15
7.61543E-07 3.67748E-15
1.18991E-06 1.55573E-15
1.71347E-06 7.67540E-16
2.33223E-06 4.21297E-16
3.04617E-06 2.50010E-16
3.85531E-06 1.57509E-16
4.75964E-06 1.04059E-16
5.75916E-06 7.14581E-17
6.85388E-06 5.06737E-17
8.04378E-06 3.69230E-17
9.32888E-06 2.75350E-17
1.07092E-05 2.09497E-17
1.21846E-05 1.62205E-17
1.37553E-05 1.27537E-17
1.54212E-05 1.01655E-17
1.71822E-05 8.20183E-18
1.90385E-05 6.68550E-18
2.09899E-05 5.51184E-18
2.30365E-05 4.58377E-18
2.51783E-05 3.84172E-18
2.74153E-05 3.24289E-18
2.97475E-05 2.75580E-18
3.21749E-05 2.35676E-18
3.46974E-05 2.02759E-18
3.73152E-05 1.75417E-18
4.00281E-05 1.52550E-18
4.28362E-05 1.33297E-18
4.57395E-05 1.16984E-18
4.87380E-05 1.03085E-18
5.18317E-05 9.11820E-19
5.50205E-05 8.09425E-19
5.83045E-05 7.20979E-19
6.16838E-05 6.44288E-19
6.51582E-05 5.77537E-19
6.87277E-05 5.19222E-19
7.23925E-05 4.68089E-19
7.61524E-05 4.23172E-19
9.21439E-05 2.89217E-19
1.09658E-04 2.04280E-19
1.28695E-04 1.48347E-19
1.49255E-04 1.10300E-19
1.71338E-04 8.36992E-20
1.94942E-04 6.46509E-20
2.20070E-04 5.07226E-20
2.46720E-04 4.03488E-20
2.74892E-04 3.24954E-20
3.04586E-04 2.64614E-20
3.35803E-04 2.17646E-20
3.68542E-04 1.80643E-20
4.02802E-04 1.51175E-20
4.38585E-04 1.27475E-20
4.75889E-04 1.08238E-20
5.14715E-04 9.24948E-21
5.55063E-04 7.95097E-21
5.96931E-04 6.87238E-21
6.40321E-04 5.97046E-21
6.85233E-04 5.21162E-21
7.31665E-04 4.56952E-21
7.79618E-04 4.02319E-21
8.29092E-04 3.55605E-21
8.80086E-04 3.15469E-21
9.32601E-04 2.80832E-21
9.86636E-04 2.50815E-21
1.04219E-03 2.24697E-21
1.09927E-03 2.01888E-21
1.15786E-03 1.81895E-21
1.21797E-03 1.64313E-21
1.27961E-03 1.48801E-21
1.34276E-03 1.35073E-21
1.40743E-03 1.22890E-21
1.47362E-03 1.12046E-21
1.54133E-03 1.02371E-21
1.61056E-03 9.37159E-22
1.68131E-03 8.59555E-22
1.75357E-03 7.89833E-22
1.82735E-03 7.26950E-22
1.90265E-03 6.70176E-22
1.97947E-03 6.18817E-22
2.05780E-03 5.72268E-22
2.13765E-03 5.29997E-22
2.21902E-03 4.91541E-22
2.30190E-03 4.56495E-22
2.38630E-03 4.24503E-22
2.47222E-03 3.95252E-22
2.55965E-03 3.68465E-22
2.64859E-03 3.43896E-22
2.73905E-03 3.21330E-22
2.83103E-03 3.00574E-22
2.92452E-03 2.81458E-22
3.01952E-03 2.63827E-22
3.11604E-03 2.47546E-22
3.21407E-03 2.32493E-22
3.31362E-03 2.18558E-22
3.41468E-03 2.05644E-22
3.51725E-03 1.93663E-22
3.62133E-03 1.82534E-22
3.72692E-03 1.72186E-22
3.83403E-03 1.62555E-22
3.94265E-03 1.53582E-22
4.05278E-03 1.45214E-22
4.16442E-03 1.37402E-22
4.27757E-03 1.30103E-22
4.39223E-03 1.23277E-22
4.50840E-03 1.16889E-22
4.62608E-03 1.10904E-22
4.74527E-03 1.05293E-22
4.86597E-03 1.00027E-22
4.98817E-03 9.50833E-23
5.11188E-03 9.04370E-23
5.23711E-03 8.60673E-23
5.36383E-03 8.19548E-23
5.49207E-03 7.80816E-23
5.62181E-03 7.44312E-23
5.75306E-03 7.09885E-23
5.88581E-03 6.77396E-23
6.02007E-03 6.46715E-23
6.15583E-03 6.17723E-23
6.29310E-03 5.90312E-23
6.43187E-03 5.64378E-23
6.57214E-03 5.39828E-23
6.71392E-03 5.16575E-23
6.85720E-03 4.94538E-23
7.00198E-03 4.73642E-23
7.14827E-03 4.53817E-23
7.29605E-03 4.34998E-23
7.44534E-03 4.17125E-23
7.59612E-03 4.00141E-23
7.97965E-03 3.61241E-23
8.37255E-03 3.26860E-23
8.77480E-03 2.96386E-23
9.18641E-03 2.69302E-23
9.60736E-03 2.45170E-23
1.00376E-02 2.23613E-23
1.04773E-02 2.04313E-23
1.09262E-02 1.86994E-23
1.13844E-02 1.71420E-23
1.18520E-02 1.57385E-23
1.23288E-02 1.44713E-23
1.28150E-02 1.33250E-23
1.33104E-02 1.22862E-23
1.38150E-02 1.13431E-23
1.43290E-02 1.04856E-23
1.48521E-02 9.70448E-24
1.53845E-02 8.99197E-24
1.59262E-02 8.34104E-24
1.64770E-02 7.74551E-24
1.70371E-02 7.19992E-24
1.76063E-02 6.69941E-24
1.81848E-02 6.23967E-24
1.87724E-02 5.81684E-24
1.93692E-02 5.42750E-24
1.99751E-02 5.06859E-24
2.05901E-02 4.73734E-24
2.12143E-02 4.43130E-24
2.18476E-02 4.14825E-24
2.24900E-02 3.88619E-24
2.31415E-02 3.64334E-24
2.38021E-02 3.41807E-24
2.44717E-02 3.20891E-24
2.51504E-02 3.01454E-24
2.58382E-02 2.83375E-24
2.65349E-02 2.66546E-24
2.72407E-02 2.50867E-24
2.79555E-02 2.36248E-24
2.86793E-02 2.22606E-24
2.94120E-02 2.09867E-24
3.01537E-02 1.97963E-24
3.09043E-02 1.86831E-24
3.16639E-02 1.76413E-24
3.24324E-02 1.66657E-24
3.32098E-02 1.57516E-24
3.39961E-02 1.48945E-24
3.47912E-02 1.40903E-24
3.55952E-02 1.33354E-24
3.64081E-02 1.26263E-24
3.72297E-02 1.19598E-24
3.80602E-02 1.13330E-24
3.88995E-02 1.07433E-24
3.97476E-02 1.01882E-24
4.06044E-02 9.66528E-25
4.14700E-02 9.17255E-25
4.23443E-02 8.70800E-25
4.32273E-02 8.26980E-25
4.41190E-02 7.85629E-25
4.50194E-02 7.46587E-25
4.59284E-02 7.09711E-25
4.68461E-02 6.74865E-25
4.87074E-02 6.10770E-25
5.06030E-02 5.53397E-25
5.25328E-02 5.01961E-25
5.44967E-02 4.55779E-25
5.64946E-02 4.14257E-25
5.85262E-02 3.76874E-25
6.05914E-02 3.43172E-25
6.26901E-02 3.12754E-25
6.48222E-02 2.85265E-25
6.69873E-02 2.60396E-25
6.91854E-02 2.37873E-25
7.14163E-02 2.17454E-25
7.36799E-02 1.98923E-25
7.59760E-02 1.82090E-25
7.83043E-02 1.66786E-25
8.06647E-02 1.52859E-25
8.30571E-02 1.40175E-25
8.54812E-02 1.28614E-25
8.79369E-02 1.18068E-25
9.04240E-02 1.08441E-25
9.29422E-02 9.96467E-26
9.54915E-02 9.16076E-26
9.80716E-02 8.42542E-26
1.00682E-01 7.75236E-26
1.03323E-01 7.13595E-26
1.05995E-01 6.57109E-26
1.08696E-01 6.05319E-26
1.11427E-01 5.57808E-26
1.14188E-01 5.14201E-26
1.16978E-01 4.74158E-26
1.19797E-01 4.37370E-26
1.22645E-01 4.03558E-26
1.25522E-01 3.72466E-26
1.28428E-01 3.43865E-26
1.31361E-01 3.17544E-26
1.34323E-01 2.93312E-26
1.37313E-01 2.70996E-26
1.40330E-01 2.50436E-26
1.43375E-01 2.31488E-26
1.46447E-01 2.14019E-26
1.49545E-01 1.97911E-26
1.52671E-01 1.83051E-26
1.55823E-01 1.69339E-26
1.59001E-01 1.56683E-26
1.62205E-01 1.44999E-26
1.65435E-01 1.34210E-26
1.68690E-01 1.24243E-26
1.71970E-01 1.15035E-26
1.75276E-01 1.06526E-26
1.78606E-01 9.86613E-27
1.81961E-01 9.13901E-27
1.85340E-01 8.46665E-27
1.88743E-01 7.84482E-27
1.92169E-01 7.26961E-27
1.95619E-01 6.73743E-27
1.99092E-01 6.24498E-27
2.02589E-01 5.78923E-27
2.06107E-01 5.36737E-27
2.09649E-01 4.97682E-27
2.13212E-01 4.61521E-27
2.16797E-01 4.28035E-27
2.20404E-01 3.97022E-27
2.24032E-01 3.68296E-27
2.27680E-01 3.41684E-27
2.31350E-01 3.17029E-27
2.35040E-01 2.94184E-27
2.38751E-01 2.73013E-27
2.42481E-01 2.53392E-27
2.46231E-01 2.35206E-27
2.50000E-01 2.18348E-27
2.53788E-01 2.02719E-27
2.57595E-01 1.88229E-27
2.61421E-01 1.74793E-27
2.65264E-01 1.62334E-27
2.69126E-01 1.50780E-27
2.73005E-01 1.40064E-27
2.76901E-01 1.30124E-27
2.80814E-01 1.20903E-27
2.84744E-01 1.12349E-27
2.88691E-01 1.04413E-27
2.92653E-01 9.70502E-28
2.96632E-01 9.02178E-28
3.00625E-01 8.38775E-28
3.04634E-01 7.79934E-28
3.08658E-01 7.25322E-28
3.12697E-01 6.74632E-28
3.16749E-01 6.27578E-28
3.20816E-01 5.83897E-28
3.24896E-01 5.43342E-28
3.28990E-01 5.05688E-28
3.33097E-01 4.70724E-28
3.37216E-01 4.38255E-28
3.41348E-01 4.08100E-28
3.45492E-01 3.80093E-28
3.49647E-01 3.54077E-28
3.53814E-01 3.29909E-28
3.57992E-01 3.07456E-28
3.62181E-01 2.86594E-28
3.66381E-01 2.67207E-28
3.70590E-01 2.49190E-28
3.74810E-01 2.32445E-28
3.79039E-01 2.16879E-28
3.83277E-01 2.02408E-28
3.87524E-01 1.88953E-28
3.91780E-01 1.76441E-28
3.96044E-01 1.64804E-28
4.00316E-01 1.53981E-28
4.04596E-01 1.43911E-28
4.08882E-01 1.34543E-28
4.13176E-01 1.25824E-28
4.17476E-01 1.17710E-28
4.21783E-01 1.10156E-28
4.26095E-01 1.03123E-28
4.30413E-01 9.65734E-29
4.34737E-01 9.04732E-29
4.39065E-01 8.47901E-29
4.43398E-01 7.94946E-29
4.47736E-01 7.45592E-29
4.52077E-01 6.99584E-29
4.56422E-01 6.56684E-29
4.60770E-01 6.16672E-29
4.65122E-01 5.79345E-29
4.69476E-01 5.44514E-29
4.73832E-01 5.12002E-29
4.78190E-01 4.81647E-29
4.82550E-01 4.53297E-29
4.86912E-01 4.26812E-29
4.91274E-01 4.02061E-29
4.95637E-01 3.78924E-29
5.00000E-01 3.57288E-29
5.04363E-01 3.37048E-29
5.08726E-01 3.18108E-29
5.13088E-01 3.00378E-29
5.17450E-01 2.83775E-29
5.21810E-01 2.68221E-29
5.26168E-01 2.53643E-29
5.30524E-01 2.39975E-29
5.34878E-01 2.27156E-29
5.39230E-01 2.15127E-29
5.43578E-01 2.03834E-29
5.47923E-01 1.93228E-29
5.52264E-01 1.83263E-29
5.56602E-01 1.73896E-29
5.60935E-01 1.65087E-29
5.65263E-01 1.56798E-29
5.69587E-01 1.48995E-29
5.73905E-01 1.41647E-29
5.78217E-01 1.34722E-29
5.82524E-01 1.28195E-29
5.86824E-01 1.22037E-29
5.91118E-01 1.16227E-29
5.95404E-01 1.10741E-29
5.99684E-01 1.05559E-29
6.03956E-01 1.00661E-29
6.08220E-01 9.60295E-30
6.12476E-01 9.16475E-30
6.16723E-01 8.74996E-30
6.20961E-01 8.35711E-30
6.25190E-01 7.98485E-30
6.29410E-01 7.63193E-30
6.33619E-01 7.29716E-30
6.37819E-01 6.97945E-30
6.42008E-01 6.67777E-30
6.46186E-01 6.39119E-30
6.50353E-01 6.11879E-30
6.54508E-01 5.85976E-30
6.58652E-01 5.61332E-30
6.62784E-01 5.37873E-30
6.66903E-01 5.15534E-30
6.71010E-01 4.94249E-30
6.75104E-01 4.73961E-30
6.79184E-01 4.54614E-30
6.83251E-01 4.36155E-30
6.87303E-01 4.18537E-30
6.91342E-01 4.01714E-30
6.95366E-01 3.85643E-30
6.99375E-01 3.70285E-30
7.03368E-01 3.55603E-30
7.07347E-01 3.41560E-30
7.11309E-01 3.28125E-30
7.15256E-01 3.15266E-30
7.19186E-01 3.02954E-30
7.23099E-01 2.91161E-30
7.26995E-01 2.79863E-30
7.30874E-01 2.69035E-30
7.34736E-01 2.58654E-30
7.38579E-01 2.48699E-30
7.42405E-01 2.39150E-30
7.46212E-01 2.29986E-30
7.50000E-01 2.21192E-30
7.53769E-01 2.12748E-30
7.57519E-01 2.04640E-30
7.61249E-01 1.96853E-30
7.64960E-01 1.89371E-30
7.68650E-01 1.82181E-30
7.72320E-01 1.75271E-30
7.75968E-01 1.68629E-30
7.79596E-01 1.62242E-30
7.83203E-01 1.56099E-30
7.86788E-01 1.50191E-30
7.90351E-01 1.44508E-30
7.93893E-01 1.39040E-30
7.97411E-01 1.33778E-30
8.00908E-01 1.28714E-30
8.04381E-01 1.23839E-30
8.07831E-01 1.19147E-30
8.11257E-01 1.14629E-30
8.14660E-01 1.10279E-30
8.18039E-01 1.06090E-30
8.21394E-01 1.02055E-30
8.24724E-01 9.81698E-31
8.28030E-01 9.44270E-31
8.31310E-01 9.08216E-31
8.34565E-01 8.73483E-31
8.37795E-01 8.40019E-31
8.40999E-01 8.07778E-31
8.44177E-01 7.76712E-31
8.47329E-01 7.46777E-31
8.50455E-01 7.17931E-31
8.53553E-01 6.90132E-31
8.56625E-01 6.63343E-31
8.59670E-01 6.37525E-31
8.62687E-01 6.12644E-31
8.65677E-01 5.88663E-31
8.68639E-01 5.65550E-31
8.71572E-01 5.43275E-31
8.74478E-01 5.21805E-31
8.77355E-01 5.01112E-31
8.80203E-01 4.81167E-31
8.83022E-01 4.61944E-31
8.85812E-01 4.43416E-31
8.88573E-01 4.25559E-31
8.91304E-01 4.08348E-31
8.94005E-01 3.91760E-31
8.96677E-01 3.75774E-31
8.99318E-01 3.60367E-31
9.01928E-01 3.45518E-31
9.04508E-01 3.31209E-31
9.07058E-01 3.17420E-31
9.09576E-01 3.04132E-31
9.12063E-01 2.91327E-31
9.14519E-01 2.78989E-31
9.16943E-01 2.67102E-31
9.19335E-01 2.55648E-31
9.21696E-01 2.44614E-31
9.24024E-01 2.33984E-31
9.26320E-01 2.23743E-31
9.28584E-01 2.13880E-31
9.30815E-01 2.04379E-31
9.33013E-01 1.95229E-31
9.35178E-01 1.86417E-31
9.37310E-01 1.77932E-31
9.39409E-01 1.69762E-31
9.41474E-01 1.61896E-31
9.43505E-01 1.54324E-31
9.45503E-01 1.47035E-31
9.47467E-01 1.40020E-31
9.49397E-01 1.33269E-31
9.51293E-01 1.26773E-31
9.53154E-01 1.20524E-31
9.54981E-01 1.14513E-31
9.56773E-01 1.08731E-31
9.58530E-01 1.03172E-31
9.60252E-01 9.78273E-32
9.61940E-01 9.26899E-32
9.63592E-01 8.77528E-32
9.65209E-01 8.30094E-32
9.66790E-01 7.84532E-32
9.68336E-01 7.40780E-32
9.69846E-01 6.98778E-32
9.71321E-01 6.58469E-32
9.72759E-01 6.19798E-32
9.74162E-01 5.82712E-32
9.75528E-01 5.47161E-32
9.76858E-01 5.13094E-32
9.78152E-01 4.80467E-32
9.79410E-01 4.49234E-32
9.80631E-01 4.19351E-32
9.81815E-01 3.90778E-32
9.82963E-01 3.63476E-32
9.84074E-01 3.37406E-32
9.85148E-01 3.12533E-32
9.86185E-01 2.88822E-32
9.87185E-01 2.66241E-32
9.88148E-01 2.44757E-32
9.89074E-01 2.24342E-32
9.89962E-01 2.04967E-32
9.90814E-01 1.86605E-32
9.91627E-01 1.69230E-32
9.92404E-01 1.52819E-32
9.93143E-01 1.37347E-32
9.93844E-01 1.22795E-32
9.94508E-01 1.09141E-32
9.95134E-01 9.63663E-33
9.95722E-01 8.44534E-33
9.96273E-01 7.33852E-33
9.96786E-01 6.31463E-33
9.97261E-01 5.37225E-33
9.97698E-01 4.51004E-33
9.98097E-01 3.72680E-33
9.98459E-01 3.02145E-33
9.98782E-01 2.39297E-33
9.99067E-01 1.84048E-33
9.99315E-01 1.36323E-33
9.99524E-01 9.60529E-34
9.99695E-01 6.31809E-34
9.99829E-01 3.76623E-34
9.99924E-01 1.94604E-34
9.99981E-01 8.54936E-35
1.00000E+00 4.91391E-35
