 #
 # Subroutine ELSEPA. Elastic scattering of electrons and positrons
 #                    by neutral atoms and positive ions
 #
 # Projectile: positron
 # Kinetic energy = 1.75000E+08 eV = 6.43113E+06 a.u.
 #
 # WARNING: High-energy factorization with free-atom DF screening.
 #          Absorption, polarization and exchange corrections are
 #          switched off.
 #          Phase shifts are calculated for the bare nucleus.
 #          Scattering amplitudes are not evaluated.
 #
 # Element: Fr,  Z =  87,  atomic weight = 2.23020E+02 g/mol
 #
 # Nuclear model: Fermi distribution
 #                Average radius = 6.48881E-13 cm
 #                Skin thickness = 5.46000E-14 cm
 #
 # Number of electrons = 87
 #
 # Total elastic cross section = 1.04177E-17 cm**2 = 3.72022E-01 a0**2
 # 1st transport cross section = 4.49593E-25 cm**2 = 1.60553E-08 a0**2
 # 2nd transport cross section = 1.34435E-24 cm**2 = 4.80075E-08 a0**2
 #
 #
 # Differential cross section:                       MU=(1-COS(THETA))/2
 #
 #  THETA        MU          DCS          DCS        Sherman      error
 #  (deg)                 (cm**2/sr)   (a0**2/sr)    function
 #----------------------------------------------------------------------
0.00000E+00 3.87031E-09
7.61557E-13 3.79873E-09
1.18994E-12 3.75960E-09
1.71346E-12 3.71282E-09
2.33225E-12 3.65896E-09
3.04617E-12 3.59867E-09
3.85530E-12 3.53264E-09
4.75964E-12 3.46158E-09
5.75917E-12 3.38627E-09
6.85391E-12 3.30741E-09
8.04379E-12 3.22676E-09
9.32893E-12 3.14396E-09
1.07092E-11 3.05810E-09
1.21847E-11 2.97172E-09
1.37554E-11 2.88677E-09
1.54213E-11 2.80025E-09
1.71823E-11 2.71399E-09
1.90386E-11 2.63143E-09
2.09900E-11 2.54842E-09
2.30367E-11 2.46596E-09
2.51785E-11 2.38872E-09
2.74156E-11 2.31181E-09
2.97478E-11 2.23548E-09
3.21752E-11 2.16502E-09
3.46979E-11 2.09544E-09
3.73157E-11 2.02685E-09
4.00286E-11 1.96312E-09
4.28368E-11 1.90110E-09
4.57402E-11 1.84028E-09
4.87388E-11 1.78327E-09
5.18325E-11 1.72842E-09
5.50215E-11 1.67484E-09
5.83057E-11 1.62415E-09
6.16850E-11 1.57575E-09
6.51595E-11 1.52861E-09
6.87293E-11 1.48365E-09
7.23943E-11 1.44086E-09
7.61544E-11 1.39930E-09
1.18991E-10 1.06224E-09
1.71347E-10 8.23412E-10
2.33223E-10 6.46148E-10
3.04617E-10 5.11612E-10
3.85531E-10 4.08589E-10
4.75965E-10 3.29357E-10
5.75917E-10 2.68079E-10
6.85389E-10 2.20449E-10
8.04380E-10 1.82136E-10
9.32891E-10 1.52059E-10
1.07092E-09 1.29096E-10
1.21847E-09 1.10373E-10
1.37554E-09 9.43572E-11
1.54213E-09 8.16843E-11
1.71823E-09 7.12255E-11
1.90386E-09 6.19379E-11
2.09900E-09 5.43828E-11
2.30367E-09 4.80983E-11
2.51785E-09 4.23768E-11
2.74156E-09 3.76195E-11
2.97478E-09 3.36311E-11
3.21752E-09 2.99602E-11
3.46978E-09 2.68493E-11
3.73156E-09 2.41982E-11
4.00286E-09 2.17843E-11
4.28368E-09 1.96884E-11
4.57402E-09 1.78774E-11
4.87388E-09 1.62371E-11
5.18326E-09 1.47862E-11
5.50215E-09 1.35176E-11
5.83057E-09 1.23698E-11
6.16850E-09 1.13391E-11
6.51596E-09 1.04286E-11
6.87293E-09 9.60386E-12
7.23942E-09 8.85339E-12
7.61544E-09 8.18469E-12
1.18991E-08 4.01099E-12
1.71347E-08 2.17516E-12
2.33223E-08 1.27284E-12
3.04617E-08 7.95042E-13
3.85531E-08 5.23063E-13
4.75965E-08 3.58626E-13
5.75917E-08 2.54413E-13
6.85389E-08 1.85545E-13
8.04380E-08 1.38393E-13
9.32891E-08 1.05474E-13
1.07092E-07 8.18196E-14
1.21847E-07 6.44089E-14
1.37554E-07 5.14192E-14
1.54213E-07 4.15597E-14
1.71823E-07 3.39614E-14
1.90386E-07 2.80251E-14
2.09900E-07 2.33209E-14
2.30367E-07 1.95644E-14
2.51785E-07 1.65344E-14
2.74156E-07 1.40682E-14
2.97478E-07 1.20444E-14
3.21752E-07 1.03685E-14
3.46978E-07 8.97427E-15
3.73156E-07 7.80673E-15
4.00286E-07 6.82303E-15
4.28368E-07 5.98950E-15
4.57402E-07 5.27893E-15
4.87388E-07 4.67088E-15
5.18325E-07 4.14811E-15
5.50215E-07 3.69664E-15
5.83057E-07 3.30508E-15
6.16850E-07 2.96391E-15
6.51596E-07 2.66579E-15
6.87293E-07 2.40432E-15
7.23942E-07 2.17422E-15
7.61543E-07 1.97107E-15
1.18991E-06 8.27863E-16
1.71347E-06 4.05825E-16
2.33223E-06 2.21457E-16
3.04617E-06 1.30812E-16
3.85531E-06 8.21335E-17
4.75964E-06 5.41307E-17
5.75916E-06 3.71080E-17
6.85388E-06 2.62815E-17
8.04378E-06 1.91310E-17
9.32888E-06 1.42555E-17
1.07092E-05 1.08387E-17
1.21846E-05 8.38689E-18
1.37553E-05 6.59069E-18
1.54212E-05 5.25051E-18
1.71822E-05 4.23422E-18
1.90385E-05 3.44981E-18
2.09899E-05 2.84294E-18
2.30365E-05 2.36328E-18
2.51783E-05 1.97993E-18
2.74153E-05 1.67068E-18
2.97475E-05 1.41924E-18
3.21749E-05 1.21334E-18
3.46974E-05 1.04354E-18
3.73152E-05 9.02558E-19
4.00281E-05 7.84683E-19
4.28362E-05 6.85468E-19
4.57395E-05 6.01434E-19
4.87380E-05 5.29850E-19
5.18317E-05 4.68566E-19
5.50205E-05 4.15860E-19
5.83045E-05 3.70346E-19
6.16838E-05 3.30890E-19
6.51582E-05 2.96556E-19
6.87277E-05 2.66568E-19
7.23925E-05 2.40279E-19
7.61524E-05 2.17322E-19
9.21439E-05 1.48480E-19
1.09658E-04 1.04852E-19
1.28695E-04 7.61344E-20
1.49255E-04 5.66055E-20
1.71338E-04 4.29545E-20
1.94942E-04 3.31810E-20
2.20070E-04 2.60351E-20
2.46720E-04 2.07131E-20
2.74892E-04 1.66841E-20
3.04586E-04 1.35884E-20
3.35803E-04 1.11786E-20
3.68542E-04 9.27989E-21
4.02802E-04 7.76763E-21
4.38585E-04 6.55120E-21
4.75889E-04 5.56370E-21
5.14715E-04 4.75542E-21
5.55063E-04 4.08862E-21
5.96931E-04 3.53466E-21
6.40321E-04 3.07135E-21
6.85233E-04 2.68145E-21
7.31665E-04 2.35147E-21
7.79618E-04 2.07067E-21
8.29092E-04 1.83054E-21
8.80086E-04 1.62424E-21
9.32601E-04 1.44611E-21
9.86636E-04 1.29162E-21
1.04219E-03 1.15717E-21
1.09927E-03 1.03972E-21
1.15786E-03 9.36761E-22
1.21797E-03 8.46197E-22
1.27961E-03 7.66281E-22
1.34276E-03 6.95543E-22
1.40743E-03 6.32752E-22
1.47362E-03 5.76855E-22
1.54133E-03 5.26969E-22
1.61056E-03 4.82332E-22
1.68131E-03 4.42296E-22
1.75357E-03 4.06305E-22
1.82735E-03 3.73877E-22
1.90265E-03 3.44599E-22
1.97947E-03 3.18110E-22
2.05780E-03 2.94099E-22
2.13765E-03 2.72292E-22
2.21902E-03 2.52452E-22
2.30190E-03 2.34369E-22
2.38630E-03 2.17861E-22
2.47222E-03 2.02766E-22
2.55965E-03 1.88942E-22
2.64859E-03 1.76263E-22
2.73905E-03 1.64617E-22
2.83103E-03 1.53905E-22
2.92452E-03 1.44039E-22
3.01952E-03 1.34940E-22
3.11604E-03 1.26538E-22
3.21407E-03 1.18770E-22
3.31362E-03 1.11579E-22
3.41468E-03 1.04916E-22
3.51725E-03 9.87346E-23
3.62133E-03 9.29937E-23
3.72692E-03 8.76564E-23
3.83403E-03 8.26893E-23
3.94265E-03 7.80623E-23
4.05278E-03 7.37477E-23
4.16442E-03 6.97210E-23
4.27757E-03 6.59594E-23
4.39223E-03 6.24424E-23
4.50840E-03 5.91512E-23
4.62608E-03 5.60689E-23
4.74527E-03 5.31798E-23
4.86597E-03 5.04697E-23
4.98817E-03 4.79256E-23
5.11188E-03 4.55354E-23
5.23711E-03 4.32883E-23
5.36383E-03 4.11741E-23
5.49207E-03 3.91837E-23
5.62181E-03 3.73085E-23
5.75306E-03 3.55407E-23
5.88581E-03 3.38731E-23
6.02007E-03 3.22989E-23
6.15583E-03 3.08122E-23
6.29310E-03 2.94070E-23
6.43187E-03 2.80783E-23
6.57214E-03 2.68211E-23
6.71392E-03 2.56310E-23
6.85720E-03 2.45036E-23
7.00198E-03 2.34352E-23
7.14827E-03 2.24222E-23
7.29605E-03 2.14611E-23
7.44534E-03 2.05489E-23
7.59612E-03 1.96826E-23
7.97965E-03 1.77006E-23
8.37255E-03 1.59518E-23
8.77480E-03 1.44045E-23
9.18641E-03 1.30320E-23
9.60736E-03 1.18114E-23
1.00376E-02 1.07236E-23
1.04773E-02 9.75171E-24
1.09262E-02 8.88167E-24
1.13844E-02 8.10119E-24
1.18520E-02 7.39968E-24
1.23288E-02 6.76799E-24
1.28150E-02 6.19815E-24
1.33104E-02 5.68323E-24
1.38150E-02 5.21718E-24
1.43290E-02 4.79471E-24
1.48521E-02 4.41116E-24
1.53845E-02 4.06245E-24
1.59262E-02 3.74498E-24
1.64770E-02 3.45556E-24
1.70371E-02 3.19139E-24
1.76063E-02 2.94996E-24
1.81848E-02 2.72906E-24
1.87724E-02 2.52671E-24
1.93692E-02 2.34115E-24
1.99751E-02 2.17082E-24
2.05901E-02 2.01429E-24
2.12143E-02 1.87033E-24
2.18476E-02 1.73778E-24
2.24900E-02 1.61565E-24
2.31415E-02 1.50300E-24
2.38021E-02 1.39902E-24
2.44717E-02 1.30296E-24
2.51504E-02 1.21415E-24
2.58382E-02 1.13198E-24
2.65349E-02 1.05590E-24
2.72407E-02 9.85400E-25
2.79555E-02 9.20036E-25
2.86793E-02 8.59390E-25
2.94120E-02 8.03086E-25
3.01537E-02 7.50782E-25
3.09043E-02 7.02163E-25
3.16639E-02 6.56945E-25
3.24324E-02 6.14867E-25
3.32098E-02 5.75688E-25
3.39961E-02 5.39192E-25
3.47912E-02 5.05176E-25
3.55952E-02 4.73457E-25
3.64081E-02 4.43866E-25
3.72297E-02 4.16247E-25
3.80602E-02 3.90459E-25
3.88995E-02 3.66369E-25
3.97476E-02 3.43856E-25
4.06044E-02 3.22808E-25
4.14700E-02 3.03124E-25
4.23443E-02 2.84707E-25
4.32273E-02 2.67470E-25
4.41190E-02 2.51331E-25
4.50194E-02 2.36217E-25
4.59284E-02 2.22056E-25
4.68461E-02 2.08785E-25
4.87074E-02 1.84678E-25
5.06030E-02 1.63467E-25
5.25328E-02 1.44786E-25
5.44967E-02 1.28316E-25
5.64946E-02 1.13782E-25
5.85262E-02 1.00945E-25
6.05914E-02 8.95982E-26
6.26901E-02 7.95607E-26
6.48222E-02 7.06755E-26
6.69873E-02 6.28053E-26
6.91854E-02 5.58300E-26
7.14163E-02 4.96446E-26
7.36799E-02 4.41569E-26
7.59760E-02 3.92860E-26
7.83043E-02 3.49608E-26
8.06647E-02 3.11187E-26
8.30571E-02 2.77045E-26
8.54812E-02 2.46698E-26
8.79369E-02 2.19715E-26
9.04240E-02 1.95718E-26
9.29422E-02 1.74372E-26
9.54915E-02 1.55380E-26
9.80716E-02 1.38481E-26
1.00682E-01 1.23440E-26
1.03323E-01 1.10052E-26
1.05995E-01 9.81342E-27
1.08696E-01 8.75240E-27
1.11427E-01 7.80771E-27
1.14188E-01 6.96655E-27
1.16978E-01 6.21752E-27
1.19797E-01 5.55051E-27
1.22645E-01 4.95649E-27
1.25522E-01 4.42746E-27
1.28428E-01 3.95629E-27
1.31361E-01 3.53664E-27
1.34323E-01 3.16284E-27
1.37313E-01 2.82987E-27
1.40330E-01 2.53325E-27
1.43375E-01 2.26899E-27
1.46447E-01 2.03353E-27
1.49545E-01 1.82370E-27
1.52671E-01 1.63670E-27
1.55823E-01 1.47000E-27
1.59001E-01 1.32138E-27
1.62205E-01 1.18883E-27
1.65435E-01 1.07059E-27
1.68690E-01 9.65080E-28
1.71970E-01 8.70889E-28
1.75276E-01 7.86768E-28
1.78606E-01 7.11605E-28
1.81961E-01 6.44407E-28
1.85340E-01 5.84295E-28
1.88743E-01 5.30484E-28
1.92169E-01 4.82278E-28
1.95619E-01 4.39058E-28
1.99092E-01 4.00271E-28
2.02589E-01 3.65430E-28
2.06107E-01 3.34101E-28
2.09649E-01 3.05896E-28
2.13212E-01 2.80473E-28
2.16797E-01 2.57529E-28
2.20404E-01 2.36794E-28
2.24032E-01 2.18027E-28
2.27680E-01 2.01017E-28
2.31350E-01 1.85576E-28
2.35040E-01 1.71535E-28
2.38751E-01 1.58747E-28
2.42481E-01 1.47081E-28
2.46231E-01 1.36420E-28
2.50000E-01 1.26660E-28
2.53788E-01 1.17711E-28
2.57595E-01 1.09490E-28
2.61421E-01 1.01926E-28
2.65264E-01 9.49551E-29
2.69126E-01 8.85198E-29
2.73005E-01 8.25698E-29
2.76901E-01 7.70603E-29
2.80814E-01 7.19512E-29
2.84744E-01 6.72070E-29
2.88691E-01 6.27959E-29
2.92653E-01 5.86896E-29
2.96632E-01 5.48627E-29
3.00625E-01 5.12925E-29
3.04634E-01 4.79587E-29
3.08658E-01 4.48429E-29
3.12697E-01 4.19288E-29
3.16749E-01 3.92013E-29
3.20816E-01 3.66472E-29
3.24896E-01 3.42541E-29
3.28990E-01 3.20111E-29
3.33097E-01 2.99079E-29
3.37216E-01 2.79355E-29
3.41348E-01 2.60852E-29
3.45492E-01 2.43494E-29
3.49647E-01 2.27210E-29
3.53814E-01 2.11932E-29
3.57992E-01 1.97600E-29
3.62181E-01 1.84157E-29
3.66381E-01 1.71550E-29
3.70590E-01 1.59730E-29
3.74810E-01 1.48651E-29
3.79039E-01 1.38269E-29
3.83277E-01 1.28545E-29
3.87524E-01 1.19440E-29
3.91780E-01 1.10918E-29
3.96044E-01 1.02947E-29
4.00316E-01 9.54926E-30
4.04596E-01 8.85264E-30
4.08882E-01 8.20197E-30
4.13176E-01 7.59457E-30
4.17476E-01 7.02788E-30
4.21783E-01 6.49951E-30
4.26095E-01 6.00717E-30
4.30413E-01 5.54871E-30
4.34737E-01 5.12208E-30
4.39065E-01 4.72534E-30
4.43398E-01 4.35666E-30
4.47736E-01 4.01431E-30
4.52077E-01 3.69663E-30
4.56422E-01 3.40207E-30
4.60770E-01 3.12915E-30
4.65122E-01 2.87649E-30
4.69476E-01 2.64277E-30
4.73832E-01 2.42673E-30
4.78190E-01 2.22721E-30
4.82550E-01 2.04310E-30
4.86912E-01 1.87335E-30
4.91274E-01 1.71698E-30
4.95637E-01 1.57306E-30
5.00000E-01 1.44071E-30
5.04363E-01 1.31911E-30
5.08726E-01 1.20750E-30
5.13088E-01 1.10514E-30
5.17450E-01 1.01136E-30
5.21810E-01 9.25522E-31
5.26168E-01 8.47027E-31
5.30524E-01 7.75318E-31
5.34878E-01 7.09872E-31
5.39230E-01 6.50201E-31
5.43578E-01 5.95850E-31
5.47923E-01 5.46395E-31
5.52264E-01 5.01439E-31
5.56602E-01 4.60615E-31
5.60935E-01 4.23579E-31
5.65263E-01 3.90015E-31
5.69587E-01 3.59627E-31
5.73905E-01 3.32141E-31
5.78217E-01 3.07303E-31
5.82524E-01 2.84880E-31
5.86824E-01 2.64655E-31
5.91118E-01 2.46427E-31
5.95404E-01 2.30012E-31
5.99684E-01 2.15241E-31
6.03956E-01 2.01956E-31
6.08220E-01 1.90014E-31
6.12476E-01 1.79283E-31
6.16723E-01 1.69643E-31
6.20961E-01 1.60982E-31
6.25190E-01 1.53200E-31
6.29410E-01 1.46205E-31
6.33619E-01 1.39912E-31
6.37819E-01 1.34245E-31
6.42008E-01 1.29134E-31
6.46186E-01 1.24517E-31
6.50353E-01 1.20336E-31
6.54508E-01 1.16539E-31
6.58652E-01 1.13081E-31
6.62784E-01 1.09919E-31
6.66903E-01 1.07015E-31
6.71010E-01 1.04337E-31
6.75104E-01 1.01854E-31
6.79184E-01 9.95389E-32
6.83251E-01 9.73685E-32
6.87303E-01 9.53214E-32
6.91342E-01 9.33792E-32
6.95366E-01 9.15255E-32
6.99375E-01 8.97460E-32
7.03368E-01 8.80283E-32
7.07347E-01 8.63615E-32
7.11309E-01 8.47365E-32
7.15256E-01 8.31453E-32
7.19186E-01 8.15812E-32
7.23099E-01 8.00385E-32
7.26995E-01 7.85127E-32
7.30874E-01 7.69998E-32
7.34736E-01 7.54969E-32
7.38579E-01 7.40015E-32
7.42405E-01 7.25118E-32
7.46212E-01 7.10265E-32
7.50000E-01 6.95449E-32
7.53769E-01 6.80664E-32
7.57519E-01 6.65908E-32
7.61249E-01 6.51184E-32
7.64960E-01 6.36495E-32
7.68650E-01 6.21846E-32
7.72320E-01 6.07245E-32
7.75968E-01 5.92700E-32
7.79596E-01 5.78221E-32
7.83203E-01 5.63818E-32
7.86788E-01 5.49502E-32
7.90351E-01 5.35283E-32
7.93893E-01 5.21173E-32
7.97411E-01 5.07183E-32
8.00908E-01 4.93324E-32
8.04381E-01 4.79607E-32
8.07831E-01 4.66041E-32
8.11257E-01 4.52638E-32
8.14660E-01 4.39407E-32
8.18039E-01 4.26356E-32
8.21394E-01 4.13495E-32
8.24724E-01 4.00831E-32
8.28030E-01 3.88372E-32
8.31310E-01 3.76124E-32
8.34565E-01 3.64093E-32
8.37795E-01 3.52285E-32
8.40999E-01 3.40705E-32
8.44177E-01 3.29356E-32
8.47329E-01 3.18243E-32
8.50455E-01 3.07369E-32
8.53553E-01 2.96735E-32
8.56625E-01 2.86344E-32
8.59670E-01 2.76197E-32
8.62687E-01 2.66295E-32
8.65677E-01 2.56638E-32
8.68639E-01 2.47227E-32
8.71572E-01 2.38060E-32
8.74478E-01 2.29137E-32
8.77355E-01 2.20456E-32
8.80203E-01 2.12016E-32
8.83022E-01 2.03814E-32
8.85812E-01 1.95849E-32
8.88573E-01 1.88118E-32
8.91304E-01 1.80617E-32
8.94005E-01 1.73344E-32
8.96677E-01 1.66295E-32
8.99318E-01 1.59467E-32
9.01928E-01 1.52856E-32
9.04508E-01 1.46458E-32
9.07058E-01 1.40269E-32
9.09576E-01 1.34286E-32
9.12063E-01 1.28503E-32
9.14519E-01 1.22917E-32
9.16943E-01 1.17523E-32
9.19335E-01 1.12317E-32
9.21696E-01 1.07294E-32
9.24024E-01 1.02450E-32
9.26320E-01 9.77803E-33
9.28584E-01 9.32803E-33
9.30815E-01 8.89456E-33
9.33013E-01 8.47717E-33
9.35178E-01 8.07542E-33
9.37310E-01 7.68885E-33
9.39409E-01 7.31704E-33
9.41474E-01 6.95955E-33
9.43505E-01 6.61594E-33
9.45503E-01 6.28580E-33
9.47467E-01 5.96871E-33
9.49397E-01 5.66426E-33
9.51293E-01 5.37206E-33
9.53154E-01 5.09169E-33
9.54981E-01 4.82278E-33
9.56773E-01 4.56495E-33
9.58530E-01 4.31784E-33
9.60252E-01 4.08107E-33
9.61940E-01 3.85430E-33
9.63592E-01 3.63718E-33
9.65209E-01 3.42938E-33
9.66790E-01 3.23057E-33
9.68336E-01 3.04045E-33
9.69846E-01 2.85869E-33
9.71321E-01 2.68502E-33
9.72759E-01 2.51912E-33
9.74162E-01 2.36074E-33
9.75528E-01 2.20959E-33
9.76858E-01 2.06542E-33
9.78152E-01 1.92797E-33
9.79410E-01 1.79701E-33
9.80631E-01 1.67230E-33
9.81815E-01 1.55361E-33
9.82963E-01 1.44073E-33
9.84074E-01 1.33345E-33
9.85148E-01 1.23157E-33
9.86185E-01 1.13489E-33
9.87185E-01 1.04324E-33
9.88148E-01 9.56445E-34
9.89074E-01 8.74330E-34
9.89962E-01 7.96739E-34
9.90814E-01 7.23520E-34
9.91627E-01 6.54529E-34
9.92404E-01 5.89628E-34
9.93143E-01 5.28689E-34
9.93844E-01 4.71589E-34
9.94508E-01 4.18213E-34
9.95134E-01 3.68452E-34
9.95722E-01 3.22203E-34
9.96273E-01 2.79375E-34
9.96786E-01 2.39876E-34
9.97261E-01 2.03627E-34
9.97698E-01 1.70551E-34
9.98097E-01 1.40580E-34
9.98459E-01 1.13649E-34
9.98782E-01 8.97051E-35
9.99067E-01 6.86951E-35
9.99315E-01 5.05755E-35
9.99524E-01 3.53082E-35
9.99695E-01 2.28612E-35
9.99829E-01 1.32070E-35
9.99924E-01 6.32572E-36
9.99981E-01 2.20272E-36
1.00000E+00 8.29570E-37
