 #
 # Subroutine ELSEPA. Elastic scattering of electrons and positrons
 #                    by neutral atoms and positive ions
 #
 # Projectile: positron
 # Kinetic energy = 4.50000E+07 eV = 1.65372E+06 a.u.
 #
 # WARNING: High-energy factorization with free-atom DF screening.
 #          Absorption, polarization and exchange corrections are
 #          switched off.
 #          Phase shifts are calculated for the bare nucleus.
 #          Scattering amplitudes are not evaluated.
 #
 # Element: Fr,  Z =  87,  atomic weight = 2.23020E+02 g/mol
 #
 # Nuclear model: Fermi distribution
 #                Average radius = 6.48881E-13 cm
 #                Skin thickness = 5.46000E-14 cm
 #
 # Number of electrons = 87
 #
 # Total elastic cross section = 1.04207E-17 cm**2 = 3.72129E-01 a0**2
 # 1st transport cross section = 6.15378E-24 cm**2 = 2.19755E-07 a0**2
 # 2nd transport cross section = 1.80324E-23 cm**2 = 6.43948E-07 a0**2
 #
 #
 # Differential cross section:                       MU=(1-COS(THETA))/2
 #
 #  THETA        MU          DCS          DCS        Sherman      error
 #  (deg)                 (cm**2/sr)   (a0**2/sr)    function
 #----------------------------------------------------------------------
0.00000E+00 2.60237E-10
7.61557E-13 2.59907E-10
1.18994E-12 2.59722E-10
1.71346E-12 2.59497E-10
2.33225E-12 2.59231E-10
3.04617E-12 2.58924E-10
3.85530E-12 2.58578E-10
4.75964E-12 2.58193E-10
5.75917E-12 2.57767E-10
6.85391E-12 2.57303E-10
8.04379E-12 2.56801E-10
9.32893E-12 2.56261E-10
1.07092E-11 2.55682E-10
1.21847E-11 2.55067E-10
1.37554E-11 2.54415E-10
1.54213E-11 2.53727E-10
1.71823E-11 2.53004E-10
1.90386E-11 2.52246E-10
2.09900E-11 2.51454E-10
2.30367E-11 2.50629E-10
2.51785E-11 2.49770E-10
2.74156E-11 2.48879E-10
2.97478E-11 2.47958E-10
3.21752E-11 2.47005E-10
3.46979E-11 2.46023E-10
3.73157E-11 2.45011E-10
4.00286E-11 2.43971E-10
4.28368E-11 2.42904E-10
4.57402E-11 2.41810E-10
4.87388E-11 2.40690E-10
5.18325E-11 2.39545E-10
5.50215E-11 2.38376E-10
5.83057E-11 2.37183E-10
6.16850E-11 2.35969E-10
6.51595E-11 2.34733E-10
6.87293E-11 2.33476E-10
7.23943E-11 2.32199E-10
7.61544E-11 2.30903E-10
1.18991E-10 2.17158E-10
1.71347E-10 2.02329E-10
2.33223E-10 1.87403E-10
3.04617E-10 1.72787E-10
3.85531E-10 1.58873E-10
4.75965E-10 1.45907E-10
5.75917E-10 1.34017E-10
6.85389E-10 1.23273E-10
8.04380E-10 1.13657E-10
9.32891E-10 1.04988E-10
1.07092E-09 9.71830E-11
1.21847E-09 9.01502E-11
1.37554E-09 8.38006E-11
1.54213E-09 7.80541E-11
1.71823E-09 7.28224E-11
1.90386E-09 6.80349E-11
2.09900E-09 6.36415E-11
2.30367E-09 5.95985E-11
2.51785E-09 5.58681E-11
2.74156E-09 5.24093E-11
2.97478E-09 4.91953E-11
3.21752E-09 4.62108E-11
3.46978E-09 4.34363E-11
3.73156E-09 4.08548E-11
4.00286E-09 3.84508E-11
4.28368E-09 3.62018E-11
4.57402E-09 3.41021E-11
4.87388E-09 3.21444E-11
5.18326E-09 3.03185E-11
5.50215E-09 2.86148E-11
5.83057E-09 2.70246E-11
6.16850E-09 2.55337E-11
6.51596E-09 2.41408E-11
6.87293E-09 2.28399E-11
7.23942E-09 2.16245E-11
7.61544E-09 2.04882E-11
1.18991E-08 1.23286E-11
1.71347E-08 7.97548E-12
2.33223E-08 5.37954E-12
3.04617E-08 3.77715E-12
3.85531E-08 2.73502E-12
4.75965E-08 2.03042E-12
5.75917E-08 1.53977E-12
6.85389E-08 1.18896E-12
8.04380E-08 9.32531E-13
9.32891E-08 7.43091E-13
1.07092E-07 6.00270E-13
1.21847E-07 4.90643E-13
1.37554E-07 4.05140E-13
1.54213E-07 3.37302E-13
1.71823E-07 2.82836E-13
1.90386E-07 2.38873E-13
2.09900E-07 2.03053E-13
2.30367E-07 1.73630E-13
2.51785E-07 1.49296E-13
2.74156E-07 1.29055E-13
2.97478E-07 1.11972E-13
3.21752E-07 9.76207E-14
3.46978E-07 8.55176E-14
3.73156E-07 7.52579E-14
4.00286E-07 6.65149E-14
4.28368E-07 5.90128E-14
4.57402E-07 5.25484E-14
4.87388E-07 4.69542E-14
5.18325E-07 4.20912E-14
5.50215E-07 3.78464E-14
5.83057E-07 3.41273E-14
6.16850E-07 3.08535E-14
6.51596E-07 2.79671E-14
6.87293E-07 2.54148E-14
7.23942E-07 2.31509E-14
7.61543E-07 2.11366E-14
1.18991E-06 9.39291E-15
1.71347E-06 4.80028E-15
2.33223E-06 2.70641E-15
3.04617E-06 1.64051E-15
3.85531E-06 1.05094E-15
4.75964E-06 7.03518E-16
5.75916E-06 4.88287E-16
6.85388E-06 3.49368E-16
8.04378E-06 2.56539E-16
9.32888E-06 1.92621E-16
1.07092E-05 1.47450E-16
1.21846E-05 1.14793E-16
1.37553E-05 9.07033E-17
1.54212E-05 7.26157E-17
1.71822E-05 5.88191E-17
1.90385E-05 4.81125E-17
2.09899E-05 3.97895E-17
2.30365E-05 3.31814E-17
2.51783E-05 2.78782E-17
2.74153E-05 2.35842E-17
2.97475E-05 2.00812E-17
3.21749E-05 1.72038E-17
3.46974E-05 1.48246E-17
3.73152E-05 1.28441E-17
4.00281E-05 1.11845E-17
4.28362E-05 9.78479E-18
4.57395E-05 8.59704E-18
4.87380E-05 7.58353E-18
5.18317E-05 6.71444E-18
5.50205E-05 5.96592E-18
5.83045E-05 5.31865E-18
6.16838E-05 4.75681E-18
6.51582E-05 4.26733E-18
6.87277E-05 3.83932E-18
7.23925E-05 3.46371E-18
7.61524E-05 3.13290E-18
9.21439E-05 2.14630E-18
1.09658E-04 1.51910E-18
1.28695E-04 1.10513E-18
1.49255E-04 8.22976E-19
1.71338E-04 6.25350E-19
1.94942E-04 4.83605E-19
2.20070E-04 3.79808E-19
2.46720E-04 3.02399E-19
2.74892E-04 2.43727E-19
3.04586E-04 1.98601E-19
3.35803E-04 1.63442E-19
3.68542E-04 1.35719E-19
4.02802E-04 1.13624E-19
4.38585E-04 9.58430E-20
4.75889E-04 8.14015E-20
5.14715E-04 6.95770E-20
5.55063E-04 5.98196E-20
5.96931E-04 5.17115E-20
6.40321E-04 4.49294E-20
6.85233E-04 3.92213E-20
7.31665E-04 3.43901E-20
7.79618E-04 3.02786E-20
8.29092E-04 2.67626E-20
8.80086E-04 2.37413E-20
9.32601E-04 2.11337E-20
9.86636E-04 1.88736E-20
1.04219E-03 1.69071E-20
1.09927E-03 1.51896E-20
1.15786E-03 1.36841E-20
1.21797E-03 1.23603E-20
1.27961E-03 1.11923E-20
1.34276E-03 1.01586E-20
1.40743E-03 9.24137E-21
1.47362E-03 8.42503E-21
1.54133E-03 7.69663E-21
1.61056E-03 7.04504E-21
1.68131E-03 6.46078E-21
1.75357E-03 5.93568E-21
1.82735E-03 5.46268E-21
1.90265E-03 5.03574E-21
1.97947E-03 4.64957E-21
2.05780E-03 4.29961E-21
2.13765E-03 3.98185E-21
2.21902E-03 3.69281E-21
2.30190E-03 3.42945E-21
2.38630E-03 3.18907E-21
2.47222E-03 2.96931E-21
2.55965E-03 2.76808E-21
2.64859E-03 2.58357E-21
2.73905E-03 2.41411E-21
2.83103E-03 2.25827E-21
2.92452E-03 2.11475E-21
3.01952E-03 1.98242E-21
3.11604E-03 1.86023E-21
3.21407E-03 1.74728E-21
3.31362E-03 1.64273E-21
3.41468E-03 1.54586E-21
3.51725E-03 1.45599E-21
3.62133E-03 1.37253E-21
3.72692E-03 1.29494E-21
3.83403E-03 1.22273E-21
3.94265E-03 1.15546E-21
4.05278E-03 1.09273E-21
4.16442E-03 1.03419E-21
4.27757E-03 9.79493E-22
4.39223E-03 9.28345E-22
4.50840E-03 8.80477E-22
4.62608E-03 8.35643E-22
4.74527E-03 7.93609E-22
4.86597E-03 7.54170E-22
4.98817E-03 7.17143E-22
5.11188E-03 6.82345E-22
5.23711E-03 6.49620E-22
5.36383E-03 6.18826E-22
5.49207E-03 5.89823E-22
5.62181E-03 5.62490E-22
5.75306E-03 5.36714E-22
5.88581E-03 5.12388E-22
6.02007E-03 4.89417E-22
6.15583E-03 4.67711E-22
6.29310E-03 4.47189E-22
6.43187E-03 4.27772E-22
6.57214E-03 4.09392E-22
6.71392E-03 3.91982E-22
6.85720E-03 3.75482E-22
7.00198E-03 3.59835E-22
7.14827E-03 3.44990E-22
7.29605E-03 3.30897E-22
7.44534E-03 3.17512E-22
7.59612E-03 3.04792E-22
7.97965E-03 2.75653E-22
8.37255E-03 2.49892E-22
8.77480E-03 2.27050E-22
9.18641E-03 2.06742E-22
9.60736E-03 1.88639E-22
1.00376E-02 1.72459E-22
1.04773E-02 1.57965E-22
1.09262E-02 1.44950E-22
1.13844E-02 1.33238E-22
1.18520E-02 1.22676E-22
1.23288E-02 1.13132E-22
1.28150E-02 1.04492E-22
1.33104E-02 9.66579E-23
1.38150E-02 8.95308E-23
1.43290E-02 8.30408E-23
1.48521E-02 7.71226E-23
1.53845E-02 7.17170E-23
1.59262E-02 6.67718E-23
1.64770E-02 6.22411E-23
1.70371E-02 5.80840E-23
1.76063E-02 5.42644E-23
1.81848E-02 5.07500E-23
1.87724E-02 4.75122E-23
1.93692E-02 4.45254E-23
1.99751E-02 4.17668E-23
2.05901E-02 3.92159E-23
2.12143E-02 3.68542E-23
2.18476E-02 3.46654E-23
2.24900E-02 3.26345E-23
2.31415E-02 3.07481E-23
2.38021E-02 2.89941E-23
2.44717E-02 2.73616E-23
2.51504E-02 2.58408E-23
2.58382E-02 2.44226E-23
2.65349E-02 2.30988E-23
2.72407E-02 2.18622E-23
2.79555E-02 2.07059E-23
2.86793E-02 1.96238E-23
2.94120E-02 1.86104E-23
3.01537E-02 1.76604E-23
3.09043E-02 1.67692E-23
3.16639E-02 1.59326E-23
3.24324E-02 1.51466E-23
3.32098E-02 1.44076E-23
3.39961E-02 1.37123E-23
3.47912E-02 1.30576E-23
3.55952E-02 1.24408E-23
3.64081E-02 1.18593E-23
3.72297E-02 1.13108E-23
3.80602E-02 1.07929E-23
3.88995E-02 1.03038E-23
3.97476E-02 9.84145E-24
4.06044E-02 9.40424E-24
4.14700E-02 8.99052E-24
4.23443E-02 8.59882E-24
4.32273E-02 8.22775E-24
4.41190E-02 7.87604E-24
4.50194E-02 7.54251E-24
4.59284E-02 7.22604E-24
4.68461E-02 6.92562E-24
4.87074E-02 6.36913E-24
5.06030E-02 5.86617E-24
5.25328E-02 5.41073E-24
5.44967E-02 4.99759E-24
5.64946E-02 4.62216E-24
5.85262E-02 4.28045E-24
6.05914E-02 3.96891E-24
6.26901E-02 3.68446E-24
6.48222E-02 3.42435E-24
6.69873E-02 3.18614E-24
6.91854E-02 2.96771E-24
7.14163E-02 2.76712E-24
7.36799E-02 2.58270E-24
7.59760E-02 2.41291E-24
7.83043E-02 2.25642E-24
8.06647E-02 2.11200E-24
8.30571E-02 1.97857E-24
8.54812E-02 1.85517E-24
8.79369E-02 1.74091E-24
9.04240E-02 1.63501E-24
9.29422E-02 1.53676E-24
9.54915E-02 1.44551E-24
9.80716E-02 1.36068E-24
1.00682E-01 1.28176E-24
1.03323E-01 1.20825E-24
1.05995E-01 1.13974E-24
1.08696E-01 1.07582E-24
1.11427E-01 1.01614E-24
1.14188E-01 9.60372E-25
1.16978E-01 9.08220E-25
1.19797E-01 8.59410E-25
1.22645E-01 8.13695E-25
1.25522E-01 7.70847E-25
1.28428E-01 7.30658E-25
1.31361E-01 6.92936E-25
1.34323E-01 6.57505E-25
1.37313E-01 6.24206E-25
1.40330E-01 5.92889E-25
1.43375E-01 5.63418E-25
1.46447E-01 5.35666E-25
1.49545E-01 5.09518E-25
1.52671E-01 4.84867E-25
1.55823E-01 4.61614E-25
1.59001E-01 4.39666E-25
1.62205E-01 4.18940E-25
1.65435E-01 3.99356E-25
1.68690E-01 3.80843E-25
1.71970E-01 3.63332E-25
1.75276E-01 3.46761E-25
1.78606E-01 3.31072E-25
1.81961E-01 3.16210E-25
1.85340E-01 3.02125E-25
1.88743E-01 2.88771E-25
1.92169E-01 2.76104E-25
1.95619E-01 2.64083E-25
1.99092E-01 2.52670E-25
2.02589E-01 2.41830E-25
2.06107E-01 2.31529E-25
2.09649E-01 2.21738E-25
2.13212E-01 2.12426E-25
2.16797E-01 2.03567E-25
2.20404E-01 1.95136E-25
2.24032E-01 1.87109E-25
2.27680E-01 1.79463E-25
2.31350E-01 1.72178E-25
2.35040E-01 1.65235E-25
2.38751E-01 1.58614E-25
2.42481E-01 1.52299E-25
2.46231E-01 1.46274E-25
2.50000E-01 1.40523E-25
2.53788E-01 1.35032E-25
2.57595E-01 1.29788E-25
2.61421E-01 1.24778E-25
2.65264E-01 1.19990E-25
2.69126E-01 1.15412E-25
2.73005E-01 1.11035E-25
2.76901E-01 1.06848E-25
2.80814E-01 1.02841E-25
2.84744E-01 9.90065E-26
2.88691E-01 9.53352E-26
2.92653E-01 9.18194E-26
2.96632E-01 8.84515E-26
3.00625E-01 8.52245E-26
3.04634E-01 8.21316E-26
3.08658E-01 7.91666E-26
3.12697E-01 7.63233E-26
3.16749E-01 7.35961E-26
3.20816E-01 7.09795E-26
3.24896E-01 6.84686E-26
3.28990E-01 6.60584E-26
3.33097E-01 6.37444E-26
3.37216E-01 6.15222E-26
3.41348E-01 5.93876E-26
3.45492E-01 5.73367E-26
3.49647E-01 5.53659E-26
3.53814E-01 5.34715E-26
3.57992E-01 5.16502E-26
3.62181E-01 4.98989E-26
3.66381E-01 4.82144E-26
3.70590E-01 4.65938E-26
3.74810E-01 4.50345E-26
3.79039E-01 4.35338E-26
3.83277E-01 4.20892E-26
3.87524E-01 4.06984E-26
3.91780E-01 3.93590E-26
3.96044E-01 3.80690E-26
4.00316E-01 3.68262E-26
4.04596E-01 3.56288E-26
4.08882E-01 3.44748E-26
4.13176E-01 3.33625E-26
4.17476E-01 3.22902E-26
4.21783E-01 3.12562E-26
4.26095E-01 3.02590E-26
4.30413E-01 2.92972E-26
4.34737E-01 2.83693E-26
4.39065E-01 2.74740E-26
4.43398E-01 2.66100E-26
4.47736E-01 2.57761E-26
4.52077E-01 2.49710E-26
4.56422E-01 2.41937E-26
4.60770E-01 2.34431E-26
4.65122E-01 2.27181E-26
4.69476E-01 2.20179E-26
4.73832E-01 2.13413E-26
4.78190E-01 2.06876E-26
4.82550E-01 2.00558E-26
4.86912E-01 1.94452E-26
4.91274E-01 1.88550E-26
4.95637E-01 1.82843E-26
5.00000E-01 1.77325E-26
5.04363E-01 1.71988E-26
5.08726E-01 1.66827E-26
5.13088E-01 1.61834E-26
5.17450E-01 1.57003E-26
5.21810E-01 1.52329E-26
5.26168E-01 1.47805E-26
5.30524E-01 1.43427E-26
5.34878E-01 1.39190E-26
5.39230E-01 1.35087E-26
5.43578E-01 1.31115E-26
5.47923E-01 1.27268E-26
5.52264E-01 1.23543E-26
5.56602E-01 1.19935E-26
5.60935E-01 1.16440E-26
5.65263E-01 1.13054E-26
5.69587E-01 1.09773E-26
5.73905E-01 1.06593E-26
5.78217E-01 1.03512E-26
5.82524E-01 1.00526E-26
5.86824E-01 9.76310E-27
5.91118E-01 9.48245E-27
5.95404E-01 9.21034E-27
5.99684E-01 8.94649E-27
6.03956E-01 8.69061E-27
6.08220E-01 8.44244E-27
6.12476E-01 8.20173E-27
6.16723E-01 7.96821E-27
6.20961E-01 7.74167E-27
6.25190E-01 7.52186E-27
6.29410E-01 7.30856E-27
6.33619E-01 7.10157E-27
6.37819E-01 6.90067E-27
6.42008E-01 6.70567E-27
6.46186E-01 6.51638E-27
6.50353E-01 6.33261E-27
6.54508E-01 6.15419E-27
6.58652E-01 5.98094E-27
6.62784E-01 5.81270E-27
6.66903E-01 5.64931E-27
6.71010E-01 5.49062E-27
6.75104E-01 5.33647E-27
6.79184E-01 5.18673E-27
6.83251E-01 5.04126E-27
6.87303E-01 4.89992E-27
6.91342E-01 4.76259E-27
6.95366E-01 4.62914E-27
6.99375E-01 4.49945E-27
7.03368E-01 4.37340E-27
7.07347E-01 4.25089E-27
7.11309E-01 4.13180E-27
7.15256E-01 4.01603E-27
7.19186E-01 3.90348E-27
7.23099E-01 3.79406E-27
7.26995E-01 3.68766E-27
7.30874E-01 3.58420E-27
7.34736E-01 3.48358E-27
7.38579E-01 3.38573E-27
7.42405E-01 3.29057E-27
7.46212E-01 3.19800E-27
7.50000E-01 3.10796E-27
7.53769E-01 3.02036E-27
7.57519E-01 2.93515E-27
7.61249E-01 2.85224E-27
7.64960E-01 2.77158E-27
7.68650E-01 2.69309E-27
7.72320E-01 2.61671E-27
7.75968E-01 2.54239E-27
7.79596E-01 2.47005E-27
7.83203E-01 2.39966E-27
7.86788E-01 2.33114E-27
7.90351E-01 2.26444E-27
7.93893E-01 2.19953E-27
7.97411E-01 2.13633E-27
8.00908E-01 2.07481E-27
8.04381E-01 2.01492E-27
8.07831E-01 1.95661E-27
8.11257E-01 1.89984E-27
8.14660E-01 1.84456E-27
8.18039E-01 1.79073E-27
8.21394E-01 1.73832E-27
8.24724E-01 1.68729E-27
8.28030E-01 1.63759E-27
8.31310E-01 1.58919E-27
8.34565E-01 1.54205E-27
8.37795E-01 1.49614E-27
8.40999E-01 1.45143E-27
8.44177E-01 1.40789E-27
8.47329E-01 1.36548E-27
8.50455E-01 1.32416E-27
8.53553E-01 1.28393E-27
8.56625E-01 1.24473E-27
8.59670E-01 1.20656E-27
8.62687E-01 1.16937E-27
8.65677E-01 1.13314E-27
8.68639E-01 1.09786E-27
8.71572E-01 1.06349E-27
8.74478E-01 1.03001E-27
8.77355E-01 9.97393E-28
8.80203E-01 9.65623E-28
8.83022E-01 9.34676E-28
8.85812E-01 9.04532E-28
8.88573E-01 8.75168E-28
8.91304E-01 8.46567E-28
8.94005E-01 8.18708E-28
8.96677E-01 7.91573E-28
8.99318E-01 7.65143E-28
9.01928E-01 7.39402E-28
9.04508E-01 7.14331E-28
9.07058E-01 6.89915E-28
9.09576E-01 6.66138E-28
9.12063E-01 6.42984E-28
9.14519E-01 6.20438E-28
9.16943E-01 5.98485E-28
9.19335E-01 5.77111E-28
9.21696E-01 5.56302E-28
9.24024E-01 5.36045E-28
9.26320E-01 5.16327E-28
9.28584E-01 4.97136E-28
9.30815E-01 4.78458E-28
9.33013E-01 4.60283E-28
9.35178E-01 4.42598E-28
9.37310E-01 4.25394E-28
9.39409E-01 4.08658E-28
9.41474E-01 3.92380E-28
9.43505E-01 3.76551E-28
9.45503E-01 3.61160E-28
9.47467E-01 3.46198E-28
9.49397E-01 3.31655E-28
9.51293E-01 3.17523E-28
9.53154E-01 3.03793E-28
9.54981E-01 2.90456E-28
9.56773E-01 2.77505E-28
9.58530E-01 2.64931E-28
9.60252E-01 2.52727E-28
9.61940E-01 2.40885E-28
9.63592E-01 2.29399E-28
9.65209E-01 2.18261E-28
9.66790E-01 2.07464E-28
9.68336E-01 1.97003E-28
9.69846E-01 1.86870E-28
9.71321E-01 1.77060E-28
9.72759E-01 1.67567E-28
9.74162E-01 1.58386E-28
9.75528E-01 1.49510E-28
9.76858E-01 1.40935E-28
9.78152E-01 1.32655E-28
9.79410E-01 1.24666E-28
9.80631E-01 1.16963E-28
9.81815E-01 1.09541E-28
9.82963E-01 1.02396E-28
9.84074E-01 9.55243E-29
9.85148E-01 8.89212E-29
9.86185E-01 8.25831E-29
9.87185E-01 7.65062E-29
9.88148E-01 7.06871E-29
9.89074E-01 6.51224E-29
9.89962E-01 5.98088E-29
9.90814E-01 5.47432E-29
9.91627E-01 4.99228E-29
9.92404E-01 4.53447E-29
9.93143E-01 4.10064E-29
9.93844E-01 3.69052E-29
9.94508E-01 3.30389E-29
9.95134E-01 2.94051E-29
9.95722E-01 2.60019E-29
9.96273E-01 2.28273E-29
9.96786E-01 1.98795E-29
9.97261E-01 1.71567E-29
9.97698E-01 1.46574E-29
9.98097E-01 1.23802E-29
9.98459E-01 1.03238E-29
9.98782E-01 8.48700E-30
9.99067E-01 6.86874E-30
9.99315E-01 5.46810E-30
9.99524E-01 4.28430E-30
9.99695E-01 3.31666E-30
9.99829E-01 2.56461E-30
9.99924E-01 2.02775E-30
9.99981E-01 1.70575E-30
1.00000E+00 1.59844E-30
