 #
 # Subroutine ELSEPA. Elastic scattering of electrons and positrons
 #                    by neutral atoms and positive ions
 #
 # Projectile: positron
 # Kinetic energy = 8.00000E+08 eV = 2.93995E+07 a.u.
 #
 # WARNING: High-energy factorization with free-atom DF screening.
 #          Absorption, polarization and exchange corrections are
 #          switched off.
 #          Phase shifts are calculated for the bare nucleus.
 #          Scattering amplitudes are not evaluated.
 #
 # Element: Fr,  Z =  87,  atomic weight = 2.23020E+02 g/mol
 #
 # Nuclear model: Fermi distribution
 #                Average radius = 6.48881E-13 cm
 #                Skin thickness = 5.46000E-14 cm
 #
 # Number of electrons = 87
 #
 # Total elastic cross section = 1.03259E-17 cm**2 = 3.68745E-01 a0**2
 # 1st transport cross section = 2.18539E-26 cm**2 = 7.80417E-10 a0**2
 # 2nd transport cross section = 6.55514E-26 cm**2 = 2.34088E-09 a0**2
 #
 #
 # Differential cross section:                       MU=(1-COS(THETA))/2
 #
 #  THETA        MU          DCS          DCS        Sherman      error
 #  (deg)                 (cm**2/sr)   (a0**2/sr)    function
 #----------------------------------------------------------------------
0.00000E+00 8.05140E-08
7.61557E-13 5.78099E-08
1.18994E-12 5.00048E-08
1.71346E-12 4.30666E-08
2.33225E-12 3.71814E-08
3.04617E-12 3.22982E-08
3.85530E-12 2.82398E-08
4.75964E-12 2.48596E-08
5.75917E-12 2.19983E-08
6.85391E-12 1.95496E-08
8.04379E-12 1.74339E-08
9.32893E-12 1.55823E-08
1.07092E-11 1.39612E-08
1.21847E-11 1.25287E-08
1.37554E-11 1.12651E-08
1.54213E-11 1.01456E-08
1.71823E-11 9.15385E-09
1.90386E-11 8.27501E-09
2.09900E-11 7.49422E-09
2.30367E-11 6.80203E-09
2.51785E-11 6.18519E-09
2.74156E-11 5.63766E-09
2.97478E-11 5.14806E-09
3.21752E-11 4.71208E-09
3.46979E-11 4.32125E-09
3.73157E-11 3.95905E-09
4.00286E-11 3.63122E-09
4.28368E-11 3.34316E-09
4.57402E-11 3.08907E-09
4.87388E-11 2.86411E-09
5.18325E-11 2.66424E-09
5.50215E-11 2.48606E-09
5.83057E-11 2.30985E-09
6.16850E-11 2.14645E-09
6.51595E-11 2.00012E-09
6.87293E-11 1.86870E-09
7.23943E-11 1.75033E-09
7.61544E-11 1.64343E-09
1.18991E-10 9.03055E-10
1.71347E-10 5.37355E-10
2.33223E-10 3.40154E-10
3.04617E-10 2.26359E-10
3.85531E-10 1.57049E-10
4.75965E-10 1.12332E-10
5.75917E-10 8.25029E-11
6.85389E-10 6.17661E-11
8.04380E-10 4.71301E-11
9.32891E-10 3.65202E-11
1.07092E-09 2.87007E-11
1.21847E-09 2.28750E-11
1.37554E-09 1.84747E-11
1.54213E-09 1.50921E-11
1.71823E-09 1.24540E-11
1.90386E-09 1.03713E-11
2.09900E-09 8.70861E-12
2.30367E-09 7.37011E-12
2.51785E-09 6.28081E-12
2.74156E-09 5.38771E-12
2.97478E-09 4.64748E-12
3.21752E-09 4.03082E-12
3.46978E-09 3.51280E-12
3.73156E-09 3.07395E-12
4.00286E-09 2.70249E-12
4.28368E-09 2.38800E-12
4.57402E-09 2.11577E-12
4.87388E-09 1.88212E-12
5.18326E-09 1.68094E-12
5.50215E-09 1.50448E-12
5.83057E-09 1.35150E-12
6.16850E-09 1.21761E-12
6.51596E-09 1.09947E-12
6.87293E-09 9.95869E-13
7.23942E-09 9.03944E-13
7.61544E-09 8.22364E-13
1.18991E-08 3.55370E-13
1.71347E-08 1.77383E-13
2.33223E-08 9.80685E-14
3.04617E-08 5.85577E-14
3.85531E-08 3.71074E-14
4.75965E-08 2.46468E-14
5.75917E-08 1.70056E-14
6.85389E-08 1.21075E-14
8.04380E-08 8.85098E-15
9.32891E-08 6.61820E-15
1.07092E-07 5.04625E-15
1.21847E-07 3.91404E-15
1.37554E-07 3.08203E-15
1.54213E-07 2.45964E-15
1.71823E-07 1.98666E-15
1.90386E-07 1.62207E-15
2.09900E-07 1.33739E-15
2.30367E-07 1.11251E-15
2.51785E-07 9.32980E-16
2.74156E-07 7.88250E-16
2.97478E-07 6.70534E-16
3.21752E-07 5.74001E-16
3.46978E-07 4.94233E-16
3.73156E-07 4.27857E-16
4.00286E-07 3.72260E-16
4.28368E-07 3.25411E-16
4.57402E-07 2.85706E-16
4.87388E-07 2.51877E-16
5.18325E-07 2.22911E-16
5.50215E-07 1.97992E-16
5.83057E-07 1.76460E-16
6.16850E-07 1.57776E-16
6.51596E-07 1.41502E-16
6.87293E-07 1.27272E-16
7.23942E-07 1.14788E-16
7.61543E-07 1.03796E-16
1.18991E-06 4.27156E-17
1.71347E-06 2.06596E-17
2.33223E-06 1.11723E-17
3.04617E-06 6.55703E-18
3.85531E-06 4.09689E-18
4.75964E-06 2.68947E-18
5.75916E-06 1.83763E-18
6.85388E-06 1.29781E-18
8.04378E-06 9.42380E-19
9.32888E-06 7.00684E-19
1.07092E-05 5.31718E-19
1.21846E-05 4.10735E-19
1.37553E-05 3.22276E-19
1.54212E-05 2.56392E-19
1.71822E-05 2.06511E-19
1.90385E-05 1.68070E-19
2.09899E-05 1.38367E-19
2.30365E-05 1.14919E-19
2.51783E-05 9.61996E-20
2.74153E-05 8.11149E-20
2.97475E-05 6.88616E-20
3.21749E-05 5.88358E-20
3.46974E-05 5.05750E-20
3.73152E-05 4.37209E-20
4.00281E-05 3.79949E-20
4.28362E-05 3.31802E-20
4.57395E-05 2.91014E-20
4.87380E-05 2.56280E-20
5.18317E-05 2.26558E-20
5.50205E-05 2.01009E-20
5.83045E-05 1.78955E-20
6.16838E-05 1.59845E-20
6.51582E-05 1.43222E-20
6.87277E-05 1.28708E-20
7.23925E-05 1.15989E-20
7.61524E-05 1.07455E-20
9.21439E-05 7.34256E-21
1.09658E-04 5.18141E-21
1.28695E-04 3.75602E-21
1.49255E-04 2.78503E-21
1.71338E-04 2.10539E-21
1.94942E-04 1.61835E-21
2.20070E-04 1.26211E-21
2.46720E-04 9.96840E-22
2.74892E-04 7.96175E-22
3.04586E-04 6.42221E-22
3.35803E-04 5.22629E-22
3.68542E-04 4.28670E-22
4.02802E-04 3.54104E-22
4.38585E-04 2.94383E-22
4.75889E-04 2.46149E-22
5.14715E-04 2.06901E-22
5.55063E-04 1.74739E-22
5.96931E-04 1.48220E-22
6.40321E-04 1.26224E-22
6.85233E-04 1.07882E-22
7.31665E-04 9.25130E-23
7.79618E-04 7.95749E-23
8.29092E-04 6.86383E-23
8.80086E-04 5.93571E-23
9.32601E-04 5.14525E-23
9.86636E-04 4.46979E-23
1.04219E-03 3.89077E-23
1.09927E-03 3.39304E-23
1.15786E-03 2.96400E-23
1.21797E-03 2.59328E-23
1.27961E-03 2.27219E-23
1.34276E-03 1.99349E-23
1.40743E-03 1.75111E-23
1.47362E-03 1.53992E-23
1.54133E-03 1.35559E-23
1.61056E-03 1.19444E-23
1.68131E-03 1.05335E-23
1.75357E-03 9.29657E-24
1.82735E-03 8.21070E-24
1.90265E-03 7.25637E-24
1.97947E-03 6.41670E-24
2.05780E-03 5.67719E-24
2.13765E-03 5.02530E-24
2.21902E-03 4.45016E-24
2.30190E-03 3.94234E-24
2.38630E-03 3.49365E-24
2.47222E-03 3.09696E-24
2.55965E-03 2.74604E-24
2.64859E-03 2.43545E-24
2.73905E-03 2.16044E-24
2.83103E-03 1.91682E-24
2.92452E-03 1.70094E-24
3.01952E-03 1.50959E-24
3.11604E-03 1.33994E-24
3.21407E-03 1.18949E-24
3.31362E-03 1.05605E-24
3.41468E-03 9.37684E-25
3.51725E-03 8.32673E-25
3.62133E-03 7.39509E-25
3.72692E-03 6.56852E-25
3.83403E-03 5.83518E-25
3.94265E-03 5.18456E-25
4.05278E-03 4.60736E-25
4.16442E-03 4.09534E-25
4.27757E-03 3.64116E-25
4.39223E-03 3.23834E-25
4.50840E-03 2.88110E-25
4.62608E-03 2.56432E-25
4.74527E-03 2.28345E-25
4.86597E-03 2.03444E-25
4.98817E-03 1.81370E-25
5.11188E-03 1.61804E-25
5.23711E-03 1.44461E-25
5.36383E-03 1.29090E-25
5.49207E-03 1.15466E-25
5.62181E-03 1.03389E-25
5.75306E-03 9.26837E-26
5.88581E-03 8.31919E-26
6.02007E-03 7.47742E-26
6.15583E-03 6.73067E-26
6.29310E-03 6.06795E-26
6.43187E-03 5.47949E-26
6.57214E-03 4.95667E-26
6.71392E-03 4.49181E-26
6.85720E-03 4.07813E-26
7.00198E-03 3.70962E-26
7.14827E-03 3.38098E-26
7.29605E-03 3.08750E-26
7.44534E-03 2.82503E-26
7.59612E-03 2.58993E-26
7.97965E-03 2.10158E-26
8.37255E-03 1.72425E-26
8.77480E-03 1.42832E-26
9.18641E-03 1.19243E-26
9.60736E-03 1.00123E-26
1.00376E-02 8.43771E-27
1.04773E-02 7.12256E-27
1.09262E-02 6.01125E-27
1.13844E-02 5.06401E-27
1.18520E-02 4.25211E-27
1.23288E-02 3.55436E-27
1.28150E-02 2.95473E-27
1.33104E-02 2.44061E-27
1.38150E-02 2.00166E-27
1.43290E-02 1.62912E-27
1.48521E-02 1.31522E-27
1.53845E-02 1.05297E-27
1.59262E-02 8.35951E-28
1.64770E-02 6.58244E-28
1.70371E-02 5.14385E-28
1.76063E-02 3.99361E-28
1.81848E-02 3.08611E-28
1.87724E-02 2.38027E-28
1.93692E-02 1.83960E-28
1.99751E-02 1.43206E-28
2.05901E-02 1.12998E-28
2.12143E-02 9.09797E-29
2.18476E-02 7.51810E-29
2.24900E-02 6.39831E-29
2.31415E-02 5.60833E-29
2.38021E-02 5.04564E-29
2.44717E-02 4.63173E-29
2.51504E-02 4.30839E-29
2.58382E-02 4.03417E-29
2.65349E-02 3.78118E-29
2.72407E-02 3.53216E-29
2.79555E-02 3.27794E-29
2.86793E-02 3.01524E-29
2.94120E-02 2.74484E-29
3.01537E-02 2.47009E-29
3.09043E-02 2.19571E-29
3.16639E-02 1.92691E-29
3.24324E-02 1.66874E-29
3.32098E-02 1.42564E-29
3.39961E-02 1.20119E-29
3.47912E-02 9.97956E-30
3.55952E-02 8.17492E-30
3.64081E-02 6.60380E-30
3.72297E-02 5.26347E-30
3.80602E-02 4.14402E-30
3.88995E-02 3.22992E-30
3.97476E-02 2.50162E-30
4.06044E-02 1.93703E-30
4.14700E-02 1.51288E-30
4.23443E-02 1.20585E-30
4.32273E-02 9.93552E-31
4.41190E-02 8.55187E-31
4.50194E-02 7.72106E-31
4.59284E-02 7.28093E-31
4.68461E-02 7.09513E-31
4.87074E-02 7.06894E-31
5.06030E-02 7.04128E-31
5.25328E-02 6.72947E-31
5.44967E-02 6.07688E-31
5.64946E-02 5.16093E-31
5.85262E-02 4.11622E-31
6.05914E-02 3.07974E-31
6.26901E-02 2.15848E-31
6.48222E-02 1.41630E-31
6.69873E-02 8.74514E-32
6.91854E-02 5.20782E-32
7.14163E-02 3.21331E-32
7.36799E-02 2.33046E-32
7.59760E-02 2.13182E-32
7.83043E-02 2.25798E-32
8.06647E-02 2.44908E-32
8.30571E-02 2.54921E-32
8.54812E-02 2.49247E-32
8.79369E-02 2.27911E-32
9.04240E-02 1.94941E-32
9.29422E-02 1.56026E-32
9.54915E-02 1.16758E-32
9.80716E-02 8.15255E-33
1.00682E-01 5.30410E-33
1.03323E-01 3.23341E-33
1.05995E-01 1.90622E-33
1.08696E-01 1.19662E-33
1.11427E-01 9.34274E-34
1.14188E-01 9.44417E-34
1.16978E-01 1.07606E-33
1.19797E-01 1.21742E-33
1.22645E-01 1.30011E-33
1.25522E-01 1.29499E-33
1.28428E-01 1.20310E-33
1.31361E-01 1.04465E-33
1.34323E-01 8.48653E-34
1.37313E-01 6.44511E-34
1.40330E-01 4.56420E-34
1.43375E-01 3.00510E-34
1.46447E-01 1.84324E-34
1.49545E-01 1.07950E-34
1.52671E-01 6.60742E-35
1.55823E-01 5.03261E-35
1.59001E-01 5.14216E-35
1.62205E-01 6.08191E-35
1.65435E-01 7.17645E-35
1.68690E-01 7.97439E-35
1.71970E-01 8.24530E-35
1.75276E-01 7.94338E-35
1.78606E-01 7.15384E-35
1.81961E-01 6.03567E-35
1.85340E-01 4.77070E-35
1.88743E-01 3.52514E-35
1.92169E-01 2.42562E-35
1.95619E-01 1.54901E-35
1.99092E-01 9.23455E-36
2.02589E-01 5.36934E-36
2.06107E-01 3.49769E-36
2.09649E-01 3.07859E-36
2.13212E-01 3.54430E-36
2.16797E-01 4.38830E-36
2.20404E-01 5.21945E-36
2.24032E-01 5.78347E-36
2.27680E-01 5.95843E-36
2.31350E-01 5.73199E-36
2.35040E-01 5.16951E-36
2.38751E-01 4.38003E-36
2.42481E-01 3.48588E-36
2.46231E-01 2.59940E-36
2.50000E-01 1.80791E-36
2.53788E-01 1.16678E-36
2.57595E-01 6.99406E-37
2.61421E-01 4.01885E-37
2.65264E-01 2.50526E-37
2.69126E-01 2.10200E-37
2.73005E-01 2.41999E-37
2.76901E-01 3.09489E-37
2.80814E-01 3.82838E-37
2.84744E-01 4.40955E-37
2.88691E-01 4.71828E-37
2.92653E-01 4.71543E-37
2.96632E-01 4.42483E-37
3.00625E-01 3.91166E-37
3.04634E-01 3.26126E-37
3.08658E-01 2.56128E-37
3.12697E-01 1.88799E-37
3.16749E-01 1.29874E-37
3.20816E-01 8.28233E-38
3.24896E-01 4.89529E-38
3.28990E-01 1.00000E-45
3.33097E-01 1.00000E-45
3.37216E-01 1.00000E-45
3.41348E-01 1.00000E-45
3.45492E-01 1.00000E-45
3.49647E-01 1.00000E-45
3.53814E-01 1.00000E-45
3.57992E-01 1.00000E-45
3.62181E-01 1.00000E-45
3.66381E-01 1.00000E-45
3.70590E-01 1.00000E-45
3.74810E-01 1.00000E-45
3.79039E-01 1.00000E-45
3.83277E-01 1.00000E-45
3.87524E-01 1.00000E-45
3.91780E-01 1.00000E-45
3.96044E-01 1.00000E-45
4.00316E-01 1.00000E-45
4.04596E-01 1.00000E-45
4.08882E-01 1.00000E-45
4.13176E-01 1.00000E-45
4.17476E-01 1.00000E-45
4.21783E-01 1.00000E-45
4.26095E-01 1.00000E-45
4.30413E-01 1.00000E-45
4.34737E-01 1.00000E-45
4.39065E-01 1.00000E-45
4.43398E-01 1.00000E-45
4.47736E-01 1.00000E-45
4.52077E-01 1.00000E-45
4.56422E-01 1.00000E-45
4.60770E-01 1.00000E-45
4.65122E-01 1.00000E-45
4.69476E-01 1.00000E-45
4.73832E-01 1.00000E-45
4.78190E-01 1.00000E-45
4.82550E-01 1.00000E-45
4.86912E-01 1.00000E-45
4.91274E-01 1.00000E-45
4.95637E-01 1.00000E-45
5.00000E-01 1.00000E-45
5.04363E-01 1.00000E-45
5.08726E-01 1.00000E-45
5.13088E-01 1.00000E-45
5.17450E-01 1.00000E-45
5.21810E-01 1.00000E-45
5.26168E-01 1.00000E-45
5.30524E-01 1.00000E-45
5.34878E-01 1.00000E-45
5.39230E-01 1.00000E-45
5.43578E-01 1.00000E-45
5.47923E-01 1.00000E-45
5.52264E-01 1.00000E-45
5.56602E-01 1.00000E-45
5.60935E-01 1.00000E-45
5.65263E-01 1.00000E-45
5.69587E-01 1.00000E-45
5.73905E-01 1.00000E-45
5.78217E-01 1.00000E-45
5.82524E-01 1.00000E-45
5.86824E-01 1.00000E-45
5.91118E-01 1.00000E-45
5.95404E-01 1.00000E-45
5.99684E-01 1.00000E-45
6.03956E-01 1.00000E-45
6.08220E-01 1.00000E-45
6.12476E-01 1.00000E-45
6.16723E-01 1.00000E-45
6.20961E-01 1.00000E-45
6.25190E-01 1.00000E-45
6.29410E-01 1.00000E-45
6.33619E-01 1.00000E-45
6.37819E-01 1.00000E-45
6.42008E-01 1.00000E-45
6.46186E-01 1.00000E-45
6.50353E-01 1.00000E-45
6.54508E-01 1.00000E-45
6.58652E-01 1.00000E-45
6.62784E-01 1.00000E-45
6.66903E-01 1.00000E-45
6.71010E-01 1.00000E-45
6.75104E-01 1.00000E-45
6.79184E-01 1.00000E-45
6.83251E-01 1.00000E-45
6.87303E-01 1.00000E-45
6.91342E-01 1.00000E-45
6.95366E-01 1.00000E-45
6.99375E-01 1.00000E-45
7.03368E-01 1.00000E-45
7.07347E-01 1.00000E-45
7.11309E-01 1.00000E-45
7.15256E-01 1.00000E-45
7.19186E-01 1.00000E-45
7.23099E-01 1.00000E-45
7.26995E-01 1.00000E-45
7.30874E-01 1.00000E-45
7.34736E-01 1.00000E-45
7.38579E-01 1.00000E-45
7.42405E-01 1.00000E-45
7.46212E-01 1.00000E-45
7.50000E-01 1.00000E-45
7.53769E-01 1.00000E-45
7.57519E-01 1.00000E-45
7.61249E-01 1.00000E-45
7.64960E-01 1.00000E-45
7.68650E-01 1.00000E-45
7.72320E-01 1.00000E-45
7.75968E-01 1.00000E-45
7.79596E-01 1.00000E-45
7.83203E-01 1.00000E-45
7.86788E-01 1.00000E-45
7.90351E-01 1.00000E-45
7.93893E-01 1.00000E-45
7.97411E-01 1.00000E-45
8.00908E-01 1.00000E-45
8.04381E-01 1.00000E-45
8.07831E-01 1.00000E-45
8.11257E-01 1.00000E-45
8.14660E-01 1.00000E-45
8.18039E-01 1.00000E-45
8.21394E-01 1.00000E-45
8.24724E-01 1.00000E-45
8.28030E-01 1.00000E-45
8.31310E-01 1.00000E-45
8.34565E-01 1.00000E-45
8.37795E-01 1.00000E-45
8.40999E-01 1.00000E-45
8.44177E-01 1.00000E-45
8.47329E-01 1.00000E-45
8.50455E-01 1.00000E-45
8.53553E-01 1.00000E-45
8.56625E-01 1.00000E-45
8.59670E-01 1.00000E-45
8.62687E-01 1.00000E-45
8.65677E-01 1.00000E-45
8.68639E-01 1.00000E-45
8.71572E-01 1.00000E-45
8.74478E-01 1.00000E-45
8.77355E-01 1.00000E-45
8.80203E-01 1.00000E-45
8.83022E-01 1.00000E-45
8.85812E-01 1.00000E-45
8.88573E-01 1.00000E-45
8.91304E-01 1.00000E-45
8.94005E-01 1.00000E-45
8.96677E-01 1.00000E-45
8.99318E-01 1.00000E-45
9.01928E-01 1.00000E-45
9.04508E-01 1.00000E-45
9.07058E-01 1.00000E-45
9.09576E-01 1.00000E-45
9.12063E-01 1.00000E-45
9.14519E-01 1.00000E-45
9.16943E-01 1.00000E-45
9.19335E-01 1.00000E-45
9.21696E-01 1.00000E-45
9.24024E-01 1.00000E-45
9.26320E-01 1.00000E-45
9.28584E-01 1.00000E-45
9.30815E-01 1.00000E-45
9.33013E-01 1.00000E-45
9.35178E-01 1.00000E-45
9.37310E-01 1.00000E-45
9.39409E-01 1.00000E-45
9.41474E-01 1.00000E-45
9.43505E-01 1.00000E-45
9.45503E-01 1.00000E-45
9.47467E-01 1.00000E-45
9.49397E-01 1.00000E-45
9.51293E-01 1.00000E-45
9.53154E-01 1.00000E-45
9.54981E-01 1.00000E-45
9.56773E-01 1.00000E-45
9.58530E-01 1.00000E-45
9.60252E-01 1.00000E-45
9.61940E-01 1.00000E-45
9.63592E-01 1.00000E-45
9.65209E-01 1.00000E-45
9.66790E-01 1.00000E-45
9.68336E-01 1.00000E-45
9.69846E-01 1.00000E-45
9.71321E-01 1.00000E-45
9.72759E-01 1.00000E-45
9.74162E-01 1.00000E-45
9.75528E-01 1.00000E-45
9.76858E-01 1.00000E-45
9.78152E-01 1.00000E-45
9.79410E-01 1.00000E-45
9.80631E-01 1.00000E-45
9.81815E-01 1.00000E-45
9.82963E-01 1.00000E-45
9.84074E-01 1.00000E-45
9.85148E-01 1.00000E-45
9.86185E-01 1.00000E-45
9.87185E-01 1.00000E-45
9.88148E-01 1.00000E-45
9.89074E-01 1.00000E-45
9.89962E-01 1.00000E-45
9.90814E-01 1.00000E-45
9.91627E-01 1.00000E-45
9.92404E-01 1.00000E-45
9.93143E-01 1.00000E-45
9.93844E-01 1.00000E-45
9.94508E-01 1.00000E-45
9.95134E-01 1.00000E-45
9.95722E-01 1.00000E-45
9.96273E-01 1.00000E-45
9.96786E-01 1.00000E-45
9.97261E-01 1.00000E-45
9.97698E-01 1.00000E-45
9.98097E-01 1.00000E-45
9.98459E-01 1.00000E-45
9.98782E-01 1.00000E-45
9.99067E-01 1.00000E-45
9.99315E-01 1.00000E-45
9.99524E-01 1.00000E-45
9.99695E-01 1.00000E-45
9.99829E-01 1.00000E-45
9.99924E-01 1.00000E-45
9.99981E-01 1.00000E-45
1.00000E+00 1.00000E-45
