 #
 # Subroutine ELSEPA. Elastic scattering of electrons and positrons
 #                    by neutral atoms and positive ions
 #
 # Projectile: positron
 # Kinetic energy = 3.00000E+07 eV = 1.10248E+06 a.u.
 #
 # WARNING: High-energy factorization with free-atom DF screening.
 #          Absorption, polarization and exchange corrections are
 #          switched off.
 #          Phase shifts are calculated for the bare nucleus.
 #          Scattering amplitudes are not evaluated.
 #
 # Element: Fr,  Z =  87,  atomic weight = 2.23020E+02 g/mol
 #
 # Nuclear model: Fermi distribution
 #                Average radius = 6.48881E-13 cm
 #                Skin thickness = 5.46000E-14 cm
 #
 # Number of electrons = 87
 #
 # Total elastic cross section = 1.04190E-17 cm**2 = 3.72068E-01 a0**2
 # 1st transport cross section = 1.29724E-23 cm**2 = 4.63251E-07 a0**2
 # 2nd transport cross section = 3.78366E-23 cm**2 = 1.35117E-06 a0**2
 #
 #
 # Differential cross section:                       MU=(1-COS(THETA))/2
 #
 #  THETA        MU          DCS          DCS        Sherman      error
 #  (deg)                 (cm**2/sr)   (a0**2/sr)    function
 #----------------------------------------------------------------------
0.00000E+00 1.16963E-10
7.61557E-13 1.16896E-10
1.18994E-12 1.16859E-10
1.71346E-12 1.16813E-10
2.33225E-12 1.16759E-10
3.04617E-12 1.16697E-10
3.85530E-12 1.16627E-10
4.75964E-12 1.16548E-10
5.75917E-12 1.16461E-10
6.85391E-12 1.16367E-10
8.04379E-12 1.16264E-10
9.32893E-12 1.16153E-10
1.07092E-11 1.16034E-10
1.21847E-11 1.15907E-10
1.37554E-11 1.15773E-10
1.54213E-11 1.15630E-10
1.71823E-11 1.15480E-10
1.90386E-11 1.15322E-10
2.09900E-11 1.15156E-10
2.30367E-11 1.14983E-10
2.51785E-11 1.14802E-10
2.74156E-11 1.14614E-10
2.97478E-11 1.14419E-10
3.21752E-11 1.14216E-10
3.46979E-11 1.14006E-10
3.73157E-11 1.13788E-10
4.00286E-11 1.13564E-10
4.28368E-11 1.13333E-10
4.57402E-11 1.13095E-10
4.87388E-11 1.12850E-10
5.18325E-11 1.12598E-10
5.50215E-11 1.12340E-10
5.83057E-11 1.12075E-10
6.16850E-11 1.11804E-10
6.51595E-11 1.11527E-10
6.87293E-11 1.11243E-10
7.23943E-11 1.10953E-10
7.61544E-11 1.10657E-10
1.18991E-10 1.07392E-10
1.71347E-10 1.03649E-10
2.33223E-10 9.95436E-11
3.04617E-10 9.52524E-11
3.85531E-10 9.07070E-11
4.75965E-10 8.62457E-11
5.75917E-10 8.17192E-11
6.85389E-10 7.73702E-11
8.04380E-10 7.31289E-11
9.32891E-10 6.90894E-11
1.07092E-09 6.52733E-11
1.21847E-09 6.16411E-11
1.37554E-09 5.82922E-11
1.54213E-09 5.50947E-11
1.71823E-09 5.21910E-11
1.90386E-09 4.94330E-11
2.09900E-09 4.68992E-11
2.30367E-09 4.45218E-11
2.51785E-09 4.23136E-11
2.74156E-09 4.02545E-11
2.97478E-09 3.83255E-11
3.21752E-09 3.65279E-11
3.46978E-09 3.48355E-11
3.73156E-09 3.32517E-11
4.00286E-09 3.17583E-11
4.28368E-09 3.03510E-11
4.57402E-09 2.90218E-11
4.87388E-09 2.77655E-11
5.18326E-09 2.65737E-11
5.50215E-09 2.54474E-11
5.83057E-09 2.43723E-11
6.16850E-09 2.33583E-11
6.51596E-09 2.23847E-11
6.87293E-09 2.14650E-11
7.23942E-09 2.05844E-11
7.61544E-09 1.97479E-11
1.18991E-08 1.32235E-11
1.71347E-08 9.09884E-12
2.33223E-08 6.45398E-12
3.04617E-08 4.67042E-12
3.85531E-08 3.53836E-12
4.75965E-08 2.69456E-12
5.75917E-08 2.11523E-12
6.85389E-08 1.67287E-12
8.04380E-08 1.34630E-12
9.32891E-08 1.09401E-12
1.07092E-07 8.97858E-13
1.21847E-07 7.45322E-13
1.37554E-07 6.22244E-13
1.54213E-07 5.25725E-13
1.71823E-07 4.45688E-13
1.90386E-07 3.81672E-13
2.09900E-07 3.28347E-13
2.30367E-07 2.84457E-13
2.51785E-07 2.47681E-13
2.74156E-07 2.16655E-13
2.97478E-07 1.90521E-13
3.21752E-07 1.67995E-13
3.46978E-07 1.48932E-13
3.73156E-07 1.32224E-13
4.00286E-07 1.17936E-13
4.28368E-07 1.05404E-13
4.57402E-07 9.45197E-14
4.87388E-07 8.49703E-14
5.18325E-07 7.65678E-14
5.50215E-07 6.91934E-14
5.83057E-07 6.26539E-14
6.16850E-07 5.69078E-14
6.51596E-07 5.17158E-14
6.87293E-07 4.71290E-14
7.23942E-07 4.30261E-14
7.61543E-07 3.93715E-14
1.18991E-06 1.78929E-14
1.71347E-06 9.30917E-15
2.33223E-06 5.32618E-15
3.04617E-06 3.26457E-15
3.85531E-06 2.11264E-15
4.75964E-06 1.42890E-15
5.75916E-06 1.00070E-15
6.85388E-06 7.21646E-16
8.04378E-06 5.33404E-16
9.32888E-06 4.02462E-16
1.07092E-05 3.09324E-16
1.21846E-05 2.41561E-16
1.37553E-05 1.91356E-16
1.54212E-05 1.53554E-16
1.71822E-05 1.24629E-16
1.90385E-05 1.02148E-16
2.09899E-05 8.46414E-17
2.30365E-05 7.07188E-17
2.51783E-05 5.95310E-17
2.74153E-05 5.04539E-17
2.97475E-05 4.30381E-17
3.21749E-05 3.69362E-17
3.46974E-05 3.18809E-17
3.73152E-05 2.76665E-17
4.00281E-05 2.41277E-17
4.28362E-05 2.11380E-17
4.57395E-05 1.85967E-17
4.87380E-05 1.64242E-17
5.18317E-05 1.45585E-17
5.50205E-05 1.29490E-17
5.83045E-05 1.15551E-17
6.16838E-05 1.03437E-17
6.51582E-05 9.28676E-18
6.87277E-05 8.36156E-18
7.23925E-05 7.54868E-18
7.61524E-05 6.83203E-18
9.21439E-05 4.69016E-18
1.09658E-04 3.32461E-18
1.28695E-04 2.42147E-18
1.49255E-04 1.80497E-18
1.71338E-04 1.37264E-18
1.94942E-04 1.06228E-18
2.20070E-04 8.34826E-19
2.46720E-04 6.65082E-19
2.74892E-04 5.36345E-19
3.04586E-04 4.37273E-19
3.35803E-04 3.60043E-19
3.68542E-04 2.99116E-19
4.02802E-04 2.50533E-19
4.38585E-04 2.11415E-19
4.75889E-04 1.79631E-19
5.14715E-04 1.53596E-19
5.55063E-04 1.32102E-19
5.96931E-04 1.14234E-19
6.40321E-04 9.92827E-20
6.85233E-04 8.66947E-20
7.31665E-04 7.60365E-20
7.79618E-04 6.69633E-20
8.29092E-04 5.92016E-20
8.80086E-04 5.25300E-20
9.32601E-04 4.67702E-20
9.86636E-04 4.17769E-20
1.04219E-03 3.74308E-20
1.09927E-03 3.36343E-20
1.15786E-03 3.03057E-20
1.21797E-03 2.73780E-20
1.27961E-03 2.47944E-20
1.34276E-03 2.25077E-20
1.40743E-03 2.04780E-20
1.47362E-03 1.86712E-20
1.54133E-03 1.70589E-20
1.61056E-03 1.56163E-20
1.68131E-03 1.43227E-20
1.75357E-03 1.31598E-20
1.82735E-03 1.21122E-20
1.90265E-03 1.11665E-20
1.97947E-03 1.03110E-20
2.05780E-03 9.53559E-21
2.13765E-03 8.83148E-21
2.21902E-03 8.19095E-21
2.30190E-03 7.60725E-21
2.38630E-03 7.07443E-21
2.47222E-03 6.58729E-21
2.55965E-03 6.14121E-21
2.64859E-03 5.73211E-21
2.73905E-03 5.35639E-21
2.83103E-03 5.01083E-21
2.92452E-03 4.69259E-21
3.01952E-03 4.39910E-21
3.11604E-03 4.12811E-21
3.21407E-03 3.87759E-21
3.31362E-03 3.64570E-21
3.41468E-03 3.43082E-21
3.51725E-03 3.23146E-21
3.62133E-03 3.04632E-21
3.72692E-03 2.87418E-21
3.83403E-03 2.71398E-21
3.94265E-03 2.56474E-21
4.05278E-03 2.42557E-21
4.16442E-03 2.29566E-21
4.27757E-03 2.17429E-21
4.39223E-03 2.06080E-21
4.50840E-03 1.95459E-21
4.62608E-03 1.85509E-21
4.74527E-03 1.76181E-21
4.86597E-03 1.67429E-21
4.98817E-03 1.59211E-21
5.11188E-03 1.51489E-21
5.23711E-03 1.44227E-21
5.36383E-03 1.37392E-21
5.49207E-03 1.30955E-21
5.62181E-03 1.24889E-21
5.75306E-03 1.19167E-21
5.88581E-03 1.13769E-21
6.02007E-03 1.08670E-21
6.15583E-03 1.03852E-21
6.29310E-03 9.92969E-22
6.43187E-03 9.49871E-22
6.57214E-03 9.09073E-22
6.71392E-03 8.70430E-22
6.85720E-03 8.33804E-22
7.00198E-03 7.99073E-22
7.14827E-03 7.66119E-22
7.29605E-03 7.34836E-22
7.44534E-03 7.05125E-22
7.59612E-03 6.76890E-22
7.97965E-03 6.12206E-22
8.37255E-03 5.55020E-22
8.77480E-03 5.04316E-22
9.18641E-03 4.59233E-22
9.60736E-03 4.19045E-22
1.00376E-02 3.83126E-22
1.04773E-02 3.50949E-22
1.09262E-02 3.22054E-22
1.13844E-02 2.96052E-22
1.18520E-02 2.72602E-22
1.23288E-02 2.51410E-22
1.28150E-02 2.32221E-22
1.33104E-02 2.14814E-22
1.38150E-02 1.98994E-22
1.43290E-02 1.84592E-22
1.48521E-02 1.71458E-22
1.53845E-02 1.59461E-22
1.59262E-02 1.48486E-22
1.64770E-02 1.38430E-22
1.70371E-02 1.29204E-22
1.76063E-02 1.20725E-22
1.81848E-02 1.12925E-22
1.87724E-02 1.05738E-22
1.93692E-02 9.91075E-23
1.99751E-02 9.29836E-23
2.05901E-02 8.73205E-23
2.12143E-02 8.20775E-23
2.18476E-02 7.72178E-23
2.24900E-02 7.27085E-23
2.31415E-02 6.85200E-23
2.38021E-02 6.46253E-23
2.44717E-02 6.10002E-23
2.51504E-02 5.76229E-23
2.58382E-02 5.44734E-23
2.65349E-02 5.15336E-23
2.72407E-02 4.87872E-23
2.79555E-02 4.62194E-23
2.86793E-02 4.38165E-23
2.94120E-02 4.15664E-23
3.01537E-02 3.94563E-23
3.09043E-02 3.74751E-23
3.16639E-02 3.56150E-23
3.24324E-02 3.38673E-23
3.32098E-02 3.22240E-23
3.39961E-02 3.06776E-23
3.47912E-02 2.92216E-23
3.55952E-02 2.78497E-23
3.64081E-02 2.65561E-23
3.72297E-02 2.53356E-23
3.80602E-02 2.41833E-23
3.88995E-02 2.30948E-23
3.97476E-02 2.20659E-23
4.06044E-02 2.10927E-23
4.14700E-02 2.01717E-23
4.23443E-02 1.92995E-23
4.32273E-02 1.84733E-23
4.41190E-02 1.76900E-23
4.50194E-02 1.69471E-23
4.59284E-02 1.62421E-23
4.68461E-02 1.55727E-23
4.87074E-02 1.43325E-23
5.06030E-02 1.32112E-23
5.25328E-02 1.21955E-23
5.44967E-02 1.12739E-23
5.64946E-02 1.04360E-23
5.85262E-02 9.67308E-24
6.05914E-02 8.97725E-24
6.26901E-02 8.34164E-24
6.48222E-02 7.76015E-24
6.69873E-02 7.22741E-24
6.91854E-02 6.73864E-24
7.14163E-02 6.28959E-24
7.36799E-02 5.87651E-24
7.59760E-02 5.49602E-24
7.83043E-02 5.14512E-24
8.06647E-02 4.82113E-24
8.30571E-02 4.52163E-24
8.54812E-02 4.24446E-24
8.79369E-02 3.98767E-24
9.04240E-02 3.74952E-24
9.29422E-02 3.52842E-24
9.54915E-02 3.32295E-24
9.80716E-02 3.13183E-24
1.00682E-01 2.95387E-24
1.03323E-01 2.78802E-24
1.05995E-01 2.63332E-24
1.08696E-01 2.48889E-24
1.11427E-01 2.35394E-24
1.14188E-01 2.22774E-24
1.16978E-01 2.10963E-24
1.19797E-01 1.99900E-24
1.22645E-01 1.89530E-24
1.25522E-01 1.79802E-24
1.28428E-01 1.70671E-24
1.31361E-01 1.62093E-24
1.34323E-01 1.54029E-24
1.37313E-01 1.46443E-24
1.40330E-01 1.39303E-24
1.43375E-01 1.32577E-24
1.46447E-01 1.26238E-24
1.49545E-01 1.20259E-24
1.52671E-01 1.14618E-24
1.55823E-01 1.09291E-24
1.59001E-01 1.04258E-24
1.62205E-01 9.95010E-25
1.65435E-01 9.50014E-25
1.68690E-01 9.07433E-25
1.71970E-01 8.67116E-25
1.75276E-01 8.28923E-25
1.78606E-01 7.92724E-25
1.81961E-01 7.58397E-25
1.85340E-01 7.25829E-25
1.88743E-01 6.94917E-25
1.92169E-01 6.65562E-25
1.95619E-01 6.37672E-25
1.99092E-01 6.11163E-25
2.02589E-01 5.85955E-25
2.06107E-01 5.61974E-25
2.09649E-01 5.39151E-25
2.13212E-01 5.17420E-25
2.16797E-01 4.96721E-25
2.20404E-01 4.76997E-25
2.24032E-01 4.58195E-25
2.27680E-01 4.40264E-25
2.31350E-01 4.23158E-25
2.35040E-01 4.06832E-25
2.38751E-01 3.91246E-25
2.42481E-01 3.76361E-25
2.46231E-01 3.62139E-25
2.50000E-01 3.48547E-25
2.53788E-01 3.35552E-25
2.57595E-01 3.23124E-25
2.61421E-01 3.11235E-25
2.65264E-01 2.99856E-25
2.69126E-01 2.88964E-25
2.73005E-01 2.78533E-25
2.76901E-01 2.68541E-25
2.80814E-01 2.58967E-25
2.84744E-01 2.49790E-25
2.88691E-01 2.40991E-25
2.92653E-01 2.32553E-25
2.96632E-01 2.24459E-25
3.00625E-01 2.16691E-25
3.04634E-01 2.09235E-25
3.08658E-01 2.02077E-25
3.12697E-01 1.95202E-25
3.16749E-01 1.88598E-25
3.20816E-01 1.82252E-25
3.24896E-01 1.76153E-25
3.28990E-01 1.70290E-25
3.33097E-01 1.64651E-25
3.37216E-01 1.59228E-25
3.41348E-01 1.54011E-25
3.45492E-01 1.48990E-25
3.49647E-01 1.44157E-25
3.53814E-01 1.39505E-25
3.57992E-01 1.35025E-25
3.62181E-01 1.30709E-25
3.66381E-01 1.26552E-25
3.70590E-01 1.22546E-25
3.74810E-01 1.18685E-25
3.79039E-01 1.14962E-25
3.83277E-01 1.11373E-25
3.87524E-01 1.07912E-25
3.91780E-01 1.04573E-25
3.96044E-01 1.01352E-25
4.00316E-01 9.82430E-26
4.04596E-01 9.52426E-26
4.08882E-01 9.23461E-26
4.13176E-01 8.95493E-26
4.17476E-01 8.68483E-26
4.21783E-01 8.42394E-26
4.26095E-01 8.17189E-26
4.30413E-01 7.92834E-26
4.34737E-01 7.69297E-26
4.39065E-01 7.46546E-26
4.43398E-01 7.24550E-26
4.47736E-01 7.03281E-26
4.52077E-01 6.82712E-26
4.56422E-01 6.62816E-26
4.60770E-01 6.43568E-26
4.65122E-01 6.24944E-26
4.69476E-01 6.06920E-26
4.73832E-01 5.89476E-26
4.78190E-01 5.72588E-26
4.82550E-01 5.56238E-26
4.86912E-01 5.40405E-26
4.91274E-01 5.25071E-26
4.95637E-01 5.10218E-26
5.00000E-01 4.95828E-26
5.04363E-01 4.81886E-26
5.08726E-01 4.68375E-26
5.13088E-01 4.55281E-26
5.17450E-01 4.42588E-26
5.21810E-01 4.30282E-26
5.26168E-01 4.18351E-26
5.30524E-01 4.06781E-26
5.34878E-01 3.95559E-26
5.39230E-01 3.84674E-26
5.43578E-01 3.74115E-26
5.47923E-01 3.63869E-26
5.52264E-01 3.53928E-26
5.56602E-01 3.44280E-26
5.60935E-01 3.34915E-26
5.65263E-01 3.25825E-26
5.69587E-01 3.16999E-26
5.73905E-01 3.08430E-26
5.78217E-01 3.00109E-26
5.82524E-01 2.92028E-26
5.86824E-01 2.84178E-26
5.91118E-01 2.76553E-26
5.95404E-01 2.69145E-26
5.99684E-01 2.61947E-26
6.03956E-01 2.54953E-26
6.08220E-01 2.48156E-26
6.12476E-01 2.41549E-26
6.16723E-01 2.35128E-26
6.20961E-01 2.28884E-26
6.25190E-01 2.22815E-26
6.29410E-01 2.16913E-26
6.33619E-01 2.11174E-26
6.37819E-01 2.05592E-26
6.42008E-01 2.00163E-26
6.46186E-01 1.94882E-26
6.50353E-01 1.89744E-26
6.54508E-01 1.84746E-26
6.58652E-01 1.79883E-26
6.62784E-01 1.75150E-26
6.66903E-01 1.70545E-26
6.71010E-01 1.66062E-26
6.75104E-01 1.61699E-26
6.79184E-01 1.57452E-26
6.83251E-01 1.53317E-26
6.87303E-01 1.49291E-26
6.91342E-01 1.45372E-26
6.95366E-01 1.41555E-26
6.99375E-01 1.37838E-26
7.03368E-01 1.34217E-26
7.07347E-01 1.30691E-26
7.11309E-01 1.27257E-26
7.15256E-01 1.23911E-26
7.19186E-01 1.20651E-26
7.23099E-01 1.17475E-26
7.26995E-01 1.14381E-26
7.30874E-01 1.11365E-26
7.34736E-01 1.08427E-26
7.38579E-01 1.05563E-26
7.42405E-01 1.02772E-26
7.46212E-01 1.00051E-26
7.50000E-01 9.73996E-27
7.53769E-01 9.48144E-27
7.57519E-01 9.22943E-27
7.61249E-01 8.98372E-27
7.64960E-01 8.74416E-27
7.68650E-01 8.51057E-27
7.72320E-01 8.28279E-27
7.75968E-01 8.06067E-27
7.79596E-01 7.84406E-27
7.83203E-01 7.63279E-27
7.86788E-01 7.42675E-27
7.90351E-01 7.22578E-27
7.93893E-01 7.02974E-27
7.97411E-01 6.83852E-27
8.00908E-01 6.65198E-27
8.04381E-01 6.47001E-27
8.07831E-01 6.29247E-27
8.11257E-01 6.11926E-27
8.14660E-01 5.95027E-27
8.18039E-01 5.78539E-27
8.21394E-01 5.62450E-27
8.24724E-01 5.46752E-27
8.28030E-01 5.31433E-27
8.31310E-01 5.16485E-27
8.34565E-01 5.01898E-27
8.37795E-01 4.87662E-27
8.40999E-01 4.73770E-27
8.44177E-01 4.60213E-27
8.47329E-01 4.46982E-27
8.50455E-01 4.34069E-27
8.53553E-01 4.21466E-27
8.56625E-01 4.09167E-27
8.59670E-01 3.97163E-27
8.62687E-01 3.85447E-27
8.65677E-01 3.74012E-27
8.68639E-01 3.62852E-27
8.71572E-01 3.51960E-27
8.74478E-01 3.41330E-27
8.77355E-01 3.30955E-27
8.80203E-01 3.20830E-27
8.83022E-01 3.10948E-27
8.85812E-01 3.01304E-27
8.88573E-01 2.91893E-27
8.91304E-01 2.82709E-27
8.94005E-01 2.73746E-27
8.96677E-01 2.65000E-27
8.99318E-01 2.56466E-27
9.01928E-01 2.48140E-27
9.04508E-01 2.40015E-27
9.07058E-01 2.32089E-27
9.09576E-01 2.24356E-27
9.12063E-01 2.16813E-27
9.14519E-01 2.09455E-27
9.16943E-01 2.02278E-27
9.19335E-01 1.95278E-27
9.21696E-01 1.88452E-27
9.24024E-01 1.81795E-27
9.26320E-01 1.75305E-27
9.28584E-01 1.68978E-27
9.30815E-01 1.62810E-27
9.33013E-01 1.56798E-27
9.35178E-01 1.50939E-27
9.37310E-01 1.45230E-27
9.39409E-01 1.39667E-27
9.41474E-01 1.34249E-27
9.43505E-01 1.28972E-27
9.45503E-01 1.23833E-27
9.47467E-01 1.18830E-27
9.49397E-01 1.13960E-27
9.51293E-01 1.09220E-27
9.53154E-01 1.04609E-27
9.54981E-01 1.00124E-27
9.56773E-01 9.57616E-28
9.58530E-01 9.15210E-28
9.60252E-01 8.73995E-28
9.61940E-01 8.33951E-28
9.63592E-01 7.95058E-28
9.65209E-01 7.57295E-28
9.66790E-01 7.20645E-28
9.68336E-01 6.85088E-28
9.69846E-01 6.50607E-28
9.71321E-01 6.17185E-28
9.72759E-01 5.84805E-28
9.74162E-01 5.53452E-28
9.75528E-01 5.23108E-28
9.76858E-01 4.93761E-28
9.78152E-01 4.65395E-28
9.79410E-01 4.37996E-28
9.80631E-01 4.11551E-28
9.81815E-01 3.86047E-28
9.82963E-01 3.61472E-28
9.84074E-01 3.37813E-28
9.85148E-01 3.15060E-28
9.86185E-01 2.93200E-28
9.87185E-01 2.72224E-28
9.88148E-01 2.52122E-28
9.89074E-01 2.32883E-28
9.89962E-01 2.14498E-28
9.90814E-01 1.96959E-28
9.91627E-01 1.80257E-28
9.92404E-01 1.64385E-28
9.93143E-01 1.49334E-28
9.93844E-01 1.35097E-28
9.94508E-01 1.21667E-28
9.95134E-01 1.09039E-28
9.95722E-01 9.72061E-29
9.96273E-01 8.61624E-29
9.96786E-01 7.59030E-29
9.97261E-01 6.64230E-29
9.97698E-01 5.77178E-29
9.98097E-01 4.97832E-29
9.98459E-01 4.26157E-29
9.98782E-01 3.62117E-29
9.99067E-01 3.05682E-29
9.99315E-01 2.56826E-29
9.99524E-01 2.15525E-29
9.99695E-01 1.81759E-29
9.99829E-01 1.55514E-29
9.99924E-01 1.36776E-29
9.99981E-01 1.25537E-29
1.00000E+00 1.21792E-29
