 #
 # Subroutine ELSEPA. Elastic scattering of electrons and positrons
 #                    by neutral atoms and positive ions
 #
 # Projectile: electron
 # Kinetic energy = 5.00000E+08 eV = 1.83747E+07 a.u.
 #
 # WARNING: High-energy factorization with free-atom DF screening.
 #          Absorption, polarization and exchange corrections are
 #          switched off.
 #          Phase shifts are calculated for the bare nucleus.
 #          Scattering amplitudes are not evaluated.
 #
 # Element:  Y,  Z =  39,  atomic weight = 8.89059E+01 g/mol
 #
 # Nuclear model: Fermi distribution
 #                Average radius = 4.77559E-13 cm
 #                Skin thickness = 5.46000E-14 cm
 #
 # Number of electrons = 39
 #
 # Total elastic cross section = 3.93331E-18 cm**2 = 1.40461E-01 a0**2
 # 1st transport cross section = 1.21983E-26 cm**2 = 4.35611E-10 a0**2
 # 2nd transport cross section = 3.65796E-26 cm**2 = 1.30628E-09 a0**2
 #
 #
 # Differential cross section:                       MU=(1-COS(THETA))/2
 #
 #  THETA        MU          DCS          DCS        Sherman      error
 #  (deg)                 (cm**2/sr)   (a0**2/sr)    function
 #----------------------------------------------------------------------
0.00000E+00 1.51501E-08
7.61557E-13 1.35077E-08
1.18994E-12 1.27036E-08
1.71346E-12 1.18181E-08
2.33225E-12 1.08916E-08
3.04617E-12 9.95951E-09
3.85530E-12 9.05030E-09
4.75964E-12 8.18526E-09
5.75917E-12 7.37866E-09
6.85391E-12 6.63947E-09
8.04379E-12 5.97027E-09
9.32893E-12 5.36970E-09
1.07092E-11 4.83460E-09
1.21847E-11 4.36015E-09
1.37554E-11 3.94080E-09
1.54213E-11 3.57073E-09
1.71823E-11 3.24425E-09
1.90386E-11 2.95598E-09
2.09900E-11 2.70105E-09
2.30367E-11 2.47506E-09
2.51785E-11 2.27418E-09
2.74156E-11 2.09502E-09
2.97478E-11 1.93461E-09
3.21752E-11 1.79049E-09
3.46979E-11 1.66055E-09
3.73157E-11 1.54301E-09
4.00286E-11 1.43632E-09
4.28368E-11 1.33918E-09
4.57402E-11 1.25048E-09
4.87388E-11 1.16924E-09
5.18325E-11 1.09465E-09
5.50215E-11 1.02601E-09
5.83057E-11 9.62610E-10
6.16850E-11 9.04008E-10
6.51595E-11 8.49761E-10
6.87293E-11 7.99467E-10
7.23943E-11 7.52772E-10
7.61544E-11 7.09363E-10
1.18991E-10 4.02536E-10
1.71347E-10 2.47060E-10
2.33223E-10 1.60642E-10
3.04617E-10 1.09931E-10
3.85531E-10 7.84464E-11
4.75965E-10 5.78059E-11
5.75917E-10 4.36216E-11
6.85389E-10 3.34695E-11
8.04380E-10 2.60245E-11
9.32891E-10 2.04723E-11
1.07092E-09 1.62696E-11
1.21847E-09 1.30512E-11
1.37554E-09 1.05624E-11
1.54213E-09 8.62140E-12
1.71823E-09 7.09547E-12
1.90386E-09 5.88662E-12
2.09900E-09 4.92179E-12
2.30367E-09 4.14619E-12
2.51785E-09 3.51651E-12
2.74156E-09 3.00263E-12
2.97478E-09 2.58049E-12
3.21752E-09 2.23117E-12
3.46978E-09 1.94002E-12
3.73156E-09 1.69567E-12
4.00286E-09 1.48924E-12
4.28368E-09 1.31377E-12
4.57402E-09 1.16377E-12
4.87388E-09 1.03486E-12
5.18326E-09 9.23534E-13
5.50215E-09 8.26960E-13
5.83057E-09 7.42791E-13
6.16850E-09 6.69158E-13
6.51596E-09 6.04493E-13
6.87293E-09 5.47491E-13
7.23942E-09 4.97066E-13
7.61544E-09 4.52312E-13
1.18991E-08 1.94940E-13
1.71347E-08 9.67785E-14
2.33223E-08 5.31414E-14
3.04617E-08 3.15039E-14
3.85531E-08 1.98395E-14
4.75965E-08 1.31120E-14
5.75917E-08 9.01274E-15
6.85389E-08 6.39933E-15
8.04380E-08 4.66931E-15
9.32891E-08 3.48691E-15
1.07092E-07 2.65635E-15
1.21847E-07 2.05907E-15
1.37554E-07 1.62062E-15
1.54213E-07 1.29287E-15
1.71823E-07 1.04389E-15
1.90386E-07 8.52034E-16
2.09900E-07 7.02266E-16
2.30367E-07 5.83976E-16
2.51785E-07 4.89553E-16
2.74156E-07 4.13450E-16
2.97478E-07 3.51564E-16
3.21752E-07 3.00823E-16
3.46978E-07 2.58907E-16
3.73156E-07 2.24038E-16
4.00286E-07 1.94840E-16
4.28368E-07 1.70244E-16
4.57402E-07 1.49406E-16
4.87388E-07 1.31659E-16
5.18325E-07 1.16468E-16
5.50215E-07 1.03405E-16
5.83057E-07 9.21214E-17
6.16850E-07 8.23349E-17
6.51596E-07 7.38133E-17
6.87293E-07 6.63656E-17
7.23942E-07 5.98334E-17
7.61543E-07 5.40851E-17
1.18991E-06 2.21934E-17
1.71347E-06 1.07133E-17
2.33223E-06 5.78634E-18
3.04617E-06 3.39332E-18
3.85531E-06 2.11914E-18
4.75964E-06 1.39076E-18
5.75916E-06 9.50134E-19
6.85388E-06 6.71004E-19
8.04378E-06 4.87263E-19
9.32888E-06 3.62333E-19
1.07092E-05 2.75001E-19
1.21846E-05 2.12468E-19
1.37553E-05 1.66745E-19
1.54212E-05 1.32688E-19
1.71822E-05 1.06900E-19
1.90385E-05 8.70724E-20
2.09899E-05 7.16619E-20
2.30365E-05 5.95124E-20
2.51783E-05 4.98280E-20
2.74153E-05 4.20325E-20
2.97475E-05 3.57020E-20
3.21749E-05 3.05197E-20
3.46974E-05 2.62458E-20
3.73152E-05 2.26960E-20
4.00281E-05 1.97277E-20
4.28362E-05 1.72298E-20
4.57395E-05 1.51152E-20
4.87380E-05 1.33150E-20
5.18317E-05 1.17748E-20
5.50205E-05 1.04509E-20
5.83045E-05 9.30780E-21
6.16838E-05 8.31693E-21
6.51582E-05 7.45464E-21
6.87277E-05 6.70147E-21
7.23925E-05 6.04120E-21
7.61524E-05 5.45064E-21
9.21439E-05 3.72093E-21
1.09658E-04 2.62515E-21
1.28695E-04 1.90408E-21
1.49255E-04 1.41380E-21
1.71338E-04 1.07124E-21
1.94942E-04 8.26043E-22
2.20070E-04 6.46853E-22
2.46720E-04 5.13474E-22
2.74892E-04 4.12552E-22
3.04586E-04 3.35080E-22
3.35803E-04 2.74817E-22
3.68542E-04 2.27388E-22
4.02802E-04 1.89656E-22
4.38585E-04 1.59343E-22
4.75889E-04 1.34772E-22
5.14715E-04 1.14690E-22
5.55063E-04 9.81537E-23
5.96931E-04 8.44406E-23
6.40321E-04 7.29951E-23
6.85233E-04 6.33845E-23
7.31665E-04 5.52692E-23
7.79618E-04 4.83807E-23
8.29092E-04 4.25048E-23
8.80086E-04 3.74697E-23
9.32601E-04 3.31363E-23
9.86636E-04 2.93919E-23
1.04219E-03 2.61440E-23
1.09927E-03 2.33165E-23
1.15786E-03 2.08468E-23
1.21797E-03 1.86826E-23
1.27961E-03 1.67804E-23
1.34276E-03 1.51035E-23
1.40743E-03 1.36213E-23
1.47362E-03 1.23078E-23
1.54133E-03 1.11408E-23
1.61056E-03 1.01017E-23
1.68131E-03 9.17422E-24
1.75357E-03 8.34470E-24
1.82735E-03 7.60126E-24
1.90265E-03 6.93367E-24
1.97947E-03 6.33308E-24
2.05780E-03 5.79180E-24
2.13765E-03 5.30315E-24
2.21902E-03 4.86128E-24
2.30190E-03 4.46110E-24
2.38630E-03 4.09814E-24
2.47222E-03 3.76845E-24
2.55965E-03 3.46858E-24
2.64859E-03 3.19547E-24
2.73905E-03 2.94642E-24
2.83103E-03 2.71904E-24
2.92452E-03 2.51119E-24
3.01952E-03 2.32098E-24
3.11604E-03 2.14674E-24
3.21407E-03 1.98695E-24
3.31362E-03 1.84027E-24
3.41468E-03 1.70549E-24
3.51725E-03 1.58155E-24
3.62133E-03 1.46745E-24
3.72692E-03 1.36234E-24
3.83403E-03 1.26543E-24
3.94265E-03 1.17600E-24
4.05278E-03 1.09341E-24
4.16442E-03 1.01709E-24
4.27757E-03 9.46514E-25
4.39223E-03 8.81200E-25
4.50840E-03 8.20719E-25
4.62608E-03 7.64678E-25
4.74527E-03 7.12720E-25
4.86597E-03 6.64520E-25
4.98817E-03 6.19781E-25
5.11188E-03 5.78232E-25
5.23711E-03 5.39625E-25
5.36383E-03 5.03736E-25
5.49207E-03 4.70356E-25
5.62181E-03 4.39297E-25
5.75306E-03 4.10384E-25
5.88581E-03 3.83457E-25
6.02007E-03 3.58371E-25
6.15583E-03 3.34989E-25
6.29310E-03 3.13190E-25
6.43187E-03 2.92857E-25
6.57214E-03 2.73887E-25
6.71392E-03 2.56182E-25
6.85720E-03 2.39652E-25
7.00198E-03 2.24216E-25
7.14827E-03 2.09797E-25
7.29605E-03 1.96324E-25
7.44534E-03 1.83732E-25
7.59612E-03 1.71960E-25
7.97965E-03 1.45765E-25
8.37255E-03 1.23591E-25
8.77480E-03 1.04801E-25
9.18641E-03 8.88641E-26
9.60736E-03 7.53369E-26
1.00376E-02 6.38486E-26
1.04773E-02 5.40880E-26
1.09262E-02 4.57931E-26
1.13844E-02 3.87431E-26
1.18520E-02 3.27515E-26
1.23288E-02 2.76603E-26
1.28150E-02 2.33357E-26
1.33104E-02 1.96642E-26
1.38150E-02 1.65489E-26
1.43290E-02 1.39078E-26
1.48521E-02 1.16706E-26
1.53845E-02 9.77770E-27
1.59262E-02 8.17802E-27
1.64770E-02 6.82800E-27
1.70371E-02 5.69044E-27
1.76063E-02 4.73353E-27
1.81848E-02 3.93009E-27
1.87724E-02 3.25688E-27
1.93692E-02 2.69406E-27
1.99751E-02 2.22467E-27
2.05901E-02 1.83422E-27
2.12143E-02 1.51036E-27
2.18476E-02 1.24254E-27
2.24900E-02 1.02180E-27
2.31415E-02 8.40489E-28
2.38021E-02 6.92123E-28
2.44717E-02 5.71195E-28
2.51504E-02 4.73038E-28
2.58382E-02 3.93712E-28
2.65349E-02 3.29890E-28
2.72407E-02 2.78776E-28
2.79555E-02 2.38022E-28
2.86793E-02 2.05667E-28
2.94120E-02 1.80073E-28
3.01537E-02 1.59885E-28
3.09043E-02 1.43980E-28
3.16639E-02 1.31438E-28
3.24324E-02 1.21503E-28
3.32098E-02 1.13564E-28
3.39961E-02 1.07130E-28
3.47912E-02 1.01806E-28
3.55952E-02 9.72810E-29
3.64081E-02 9.33138E-29
3.72297E-02 8.97180E-29
3.80602E-02 8.63540E-29
3.88995E-02 8.31195E-29
3.97476E-02 7.99423E-29
4.06044E-02 7.67742E-29
4.14700E-02 7.35859E-29
4.23443E-02 7.03627E-29
4.32273E-02 6.71010E-29
4.41190E-02 6.38051E-29
4.50194E-02 6.04854E-29
4.59284E-02 5.71558E-29
4.68461E-02 5.38327E-29
4.87074E-02 4.72763E-29
5.06030E-02 4.09536E-29
5.25328E-02 3.49864E-29
5.44967E-02 2.94698E-29
5.64946E-02 2.44693E-29
5.85262E-02 2.00210E-29
6.05914E-02 1.61353E-29
6.26901E-02 1.28007E-29
6.48222E-02 9.98926E-30
6.69873E-02 7.66091E-30
6.91854E-02 5.76792E-30
7.14163E-02 4.25854E-30
7.36799E-02 3.08003E-30
7.59760E-02 2.18100E-30
7.83043E-02 1.51311E-30
8.06647E-02 1.03222E-30
8.30571E-02 6.99084E-31
8.54812E-02 4.79641E-31
8.79369E-02 3.45038E-31
9.04240E-02 2.71391E-31
9.29422E-02 2.39427E-31
9.54915E-02 2.34007E-31
9.80716E-02 2.43604E-31
1.00682E-01 2.59772E-31
1.03323E-01 2.76619E-31
1.05995E-01 2.90317E-31
1.08696E-01 2.98659E-31
1.11427E-01 3.00659E-31
1.14188E-01 2.96223E-31
1.16978E-01 2.85865E-31
1.19797E-01 2.70477E-31
1.22645E-01 2.51151E-31
1.25522E-01 2.29045E-31
1.28428E-01 2.05280E-31
1.31361E-01 1.80878E-31
1.34323E-01 1.56716E-31
1.37313E-01 1.33512E-31
1.40330E-01 1.11813E-31
1.43375E-01 9.20063E-32
1.46447E-01 7.43320E-32
1.49545E-01 5.89018E-32
1.52671E-01 4.57210E-32
1.55823E-01 3.47105E-32
1.59001E-01 2.57275E-32
1.62205E-01 1.85856E-32
1.65435E-01 1.30717E-32
1.68690E-01 8.96061E-33
1.71970E-01 6.02690E-33
1.75276E-01 4.05415E-33
1.78606E-01 2.84158E-33
1.81961E-01 2.20862E-33
1.85340E-01 1.99749E-33
1.88743E-01 2.07426E-33
1.92169E-01 2.32866E-33
1.95619E-01 2.67284E-33
1.99092E-01 3.03960E-33
2.02589E-01 3.38006E-33
2.06107E-01 3.66115E-33
2.09649E-01 3.86302E-33
2.13212E-01 3.97652E-33
2.16797E-01 4.00077E-33
2.20404E-01 3.94107E-33
2.24032E-01 3.80695E-33
2.27680E-01 3.61060E-33
2.31350E-01 3.36547E-33
2.35040E-01 3.08530E-33
2.38751E-01 2.78323E-33
2.42481E-01 2.47128E-33
2.46231E-01 2.15997E-33
2.50000E-01 1.85806E-33
2.53788E-01 1.57255E-33
2.57595E-01 1.30865E-33
2.61421E-01 1.06990E-33
2.65264E-01 8.58371E-34
2.69126E-01 6.74811E-34
2.73005E-01 5.18905E-34
2.76901E-01 3.89469E-34
2.80814E-01 2.84669E-34
2.84744E-01 2.02216E-34
2.88691E-01 1.39536E-34
2.92653E-01 9.39271E-35
2.96632E-01 6.26775E-35
3.00625E-01 4.31702E-35
3.04634E-01 3.29565E-35
3.08658E-01 2.98103E-35
3.12697E-01 3.17617E-35
3.16749E-01 3.71145E-35
3.20816E-01 4.44493E-35
3.24896E-01 5.26158E-35
3.28990E-01 6.07160E-35
3.33097E-01 6.80822E-35
3.37216E-01 7.42505E-35
3.41348E-01 7.89325E-35
3.45492E-01 8.19863E-35
3.49647E-01 8.33888E-35
3.53814E-01 8.32086E-35
3.57992E-01 8.15824E-35
3.62181E-01 7.86929E-35
3.66381E-01 7.47509E-35
3.70590E-01 6.99793E-35
3.74810E-01 6.46008E-35
3.79039E-01 5.88282E-35
3.83277E-01 5.28571E-35
3.87524E-01 4.68609E-35
3.91780E-01 4.09881E-35
3.96044E-01 3.53608E-35
4.00316E-01 3.00747E-35
4.04596E-01 2.52006E-35
4.08882E-01 2.07856E-35
4.13176E-01 1.68562E-35
4.17476E-01 1.34205E-35
4.21783E-01 1.04714E-35
4.26095E-01 7.98946E-36
4.30413E-01 5.94559E-36
4.34737E-01 4.30377E-36
4.39065E-01 3.02339E-36
4.43398E-01 2.06130E-36
4.47736E-01 1.37363E-36
4.52077E-01 9.17211E-37
4.56422E-01 6.50790E-37
4.60770E-01 5.35881E-37
4.65122E-01 5.37411E-37
4.69476E-01 6.24113E-37
4.73832E-01 7.68736E-37
4.78190E-01 9.48073E-37
4.82550E-01 1.14288E-36
4.86912E-01 1.33765E-36
4.91274E-01 1.52037E-36
4.95637E-01 1.68216E-36
5.00000E-01 1.81690E-36
5.04363E-01 1.92091E-36
5.08726E-01 1.99249E-36
5.13088E-01 2.03163E-36
5.17450E-01 2.03960E-36
5.21810E-01 2.01871E-36
5.26168E-01 1.97194E-36
5.30524E-01 1.90276E-36
5.34878E-01 1.81489E-36
5.39230E-01 1.71210E-36
5.43578E-01 1.59813E-36
5.47923E-01 1.47648E-36
5.52264E-01 1.35043E-36
5.56602E-01 1.22289E-36
5.60935E-01 1.09644E-36
5.65263E-01 9.73257E-37
5.69587E-01 8.55139E-37
5.73905E-01 7.43509E-37
5.78217E-01 6.39439E-37
5.82524E-01 5.43676E-37
5.86824E-01 4.56672E-37
5.91118E-01 3.78622E-37
5.95404E-01 3.09503E-37
5.99684E-01 2.49103E-37
6.03956E-01 1.97061E-37
6.08220E-01 1.52901E-37
6.12476E-01 1.16060E-37
6.16723E-01 8.59126E-38
6.20961E-01 6.18026E-38
6.25190E-01 4.30567E-38
6.29410E-01 2.90074E-38
6.33619E-01 1.90045E-38
6.37819E-01 1.24270E-38
6.42008E-01 8.69332E-39
6.46186E-01 7.26661E-39
6.50353E-01 7.65959E-39
6.54508E-01 9.43615E-39
6.58652E-01 1.22125E-38
6.62784E-01 1.56564E-38
6.66903E-01 1.94847E-38
6.71010E-01 2.34616E-38
6.75104E-01 2.73948E-38
6.79184E-01 3.11310E-38
6.83251E-01 3.45535E-38
6.87303E-01 3.75770E-38
6.91342E-01 4.01443E-38
6.95366E-01 4.22216E-38
6.99375E-01 4.37946E-38
7.03368E-01 4.48660E-38
7.07347E-01 4.54528E-38
7.11309E-01 4.55806E-38
7.15256E-01 4.52838E-38
7.19186E-01 4.46034E-38
7.23099E-01 4.35827E-38
7.26995E-01 4.22663E-38
7.30874E-01 4.07015E-38
7.34736E-01 3.89330E-38
7.38579E-01 3.70050E-38
7.42405E-01 3.49576E-38
7.46212E-01 3.28303E-38
7.50000E-01 3.06574E-38
7.53769E-01 2.84698E-38
7.57519E-01 2.62954E-38
7.61249E-01 2.41578E-38
7.64960E-01 2.20768E-38
7.68650E-01 2.00692E-38
7.72320E-01 1.81481E-38
7.75968E-01 1.63236E-38
7.79596E-01 1.46039E-38
7.83203E-01 1.29931E-38
7.86788E-01 1.14948E-38
7.90351E-01 1.01100E-38
7.93893E-01 8.83767E-39
7.97411E-01 7.67655E-39
8.00908E-01 6.62318E-39
8.04381E-01 5.67370E-39
8.07831E-01 4.82360E-39
8.11257E-01 4.06726E-39
8.14660E-01 3.39910E-39
8.18039E-01 2.81329E-39
8.21394E-01 2.30337E-39
8.24724E-01 1.86364E-39
8.28030E-01 1.00000E-45
8.31310E-01 1.00000E-45
8.34565E-01 1.00000E-45
8.37795E-01 1.00000E-45
8.40999E-01 1.00000E-45
8.44177E-01 1.00000E-45
8.47329E-01 1.00000E-45
8.50455E-01 1.00000E-45
8.53553E-01 1.00000E-45
8.56625E-01 1.00000E-45
8.59670E-01 1.00000E-45
8.62687E-01 1.00000E-45
8.65677E-01 1.00000E-45
8.68639E-01 1.00000E-45
8.71572E-01 1.00000E-45
8.74478E-01 1.00000E-45
8.77355E-01 1.00000E-45
8.80203E-01 1.00000E-45
8.83022E-01 1.00000E-45
8.85812E-01 1.00000E-45
8.88573E-01 1.00000E-45
8.91304E-01 1.00000E-45
8.94005E-01 1.00000E-45
8.96677E-01 1.00000E-45
8.99318E-01 1.00000E-45
9.01928E-01 1.00000E-45
9.04508E-01 1.00000E-45
9.07058E-01 1.00000E-45
9.09576E-01 1.00000E-45
9.12063E-01 1.00000E-45
9.14519E-01 1.00000E-45
9.16943E-01 1.00000E-45
9.19335E-01 1.00000E-45
9.21696E-01 1.00000E-45
9.24024E-01 1.00000E-45
9.26320E-01 1.00000E-45
9.28584E-01 1.00000E-45
9.30815E-01 1.00000E-45
9.33013E-01 1.00000E-45
9.35178E-01 1.00000E-45
9.37310E-01 1.00000E-45
9.39409E-01 1.00000E-45
9.41474E-01 1.00000E-45
9.43505E-01 1.00000E-45
9.45503E-01 1.00000E-45
9.47467E-01 1.00000E-45
9.49397E-01 1.00000E-45
9.51293E-01 1.00000E-45
9.53154E-01 1.00000E-45
9.54981E-01 1.00000E-45
9.56773E-01 1.00000E-45
9.58530E-01 1.00000E-45
9.60252E-01 1.00000E-45
9.61940E-01 1.00000E-45
9.63592E-01 1.00000E-45
9.65209E-01 1.00000E-45
9.66790E-01 1.00000E-45
9.68336E-01 1.00000E-45
9.69846E-01 1.00000E-45
9.71321E-01 1.00000E-45
9.72759E-01 1.00000E-45
9.74162E-01 1.00000E-45
9.75528E-01 1.00000E-45
9.76858E-01 1.00000E-45
9.78152E-01 1.00000E-45
9.79410E-01 1.00000E-45
9.80631E-01 1.00000E-45
9.81815E-01 1.00000E-45
9.82963E-01 1.00000E-45
9.84074E-01 1.00000E-45
9.85148E-01 1.00000E-45
9.86185E-01 1.00000E-45
9.87185E-01 1.00000E-45
9.88148E-01 1.00000E-45
9.89074E-01 1.00000E-45
9.89962E-01 1.00000E-45
9.90814E-01 1.00000E-45
9.91627E-01 1.00000E-45
9.92404E-01 1.00000E-45
9.93143E-01 1.00000E-45
9.93844E-01 1.00000E-45
9.94508E-01 1.00000E-45
9.95134E-01 1.00000E-45
9.95722E-01 1.00000E-45
9.96273E-01 1.00000E-45
9.96786E-01 1.00000E-45
9.97261E-01 1.00000E-45
9.97698E-01 1.00000E-45
9.98097E-01 1.00000E-45
9.98459E-01 1.00000E-45
9.98782E-01 1.00000E-45
9.99067E-01 1.00000E-45
9.99315E-01 1.00000E-45
9.99524E-01 1.00000E-45
9.99695E-01 1.00000E-45
9.99829E-01 1.00000E-45
9.99924E-01 1.00000E-45
9.99981E-01 1.00000E-45
1.00000E+00 1.00000E-45
