 #
 # Subroutine ELSEPA. Elastic scattering of electrons and positrons
 #                    by neutral atoms and positive ions
 #
 # Projectile: electron
 # Kinetic energy = 1.00000E+07 eV = 3.67493E+05 a.u.
 #
 # WARNING: High-energy factorization with free-atom DF screening.
 #          Absorption, polarization and exchange corrections are
 #          switched off.
 #          Phase shifts are calculated for the bare nucleus.
 #          Scattering amplitudes are not evaluated.
 #
 # Element:  Y,  Z =  39,  atomic weight = 8.89059E+01 g/mol
 #
 # Nuclear model: Fermi distribution
 #                Average radius = 4.77559E-13 cm
 #                Skin thickness = 5.46000E-14 cm
 #
 # Number of electrons = 39
 #
 # Total elastic cross section = 3.95171E-18 cm**2 = 1.41118E-01 a0**2
 # 1st transport cross section = 2.38835E-23 cm**2 = 8.52895E-07 a0**2
 # 2nd transport cross section = 6.77829E-23 cm**2 = 2.42057E-06 a0**2
 #
 #
 # Differential cross section:                       MU=(1-COS(THETA))/2
 #
 #  THETA        MU          DCS          DCS        Sherman      error
 #  (deg)                 (cm**2/sr)   (a0**2/sr)    function
 #----------------------------------------------------------------------
0.00000E+00 6.68154E-12
7.61557E-13 6.68119E-12
1.18994E-12 6.68099E-12
1.71346E-12 6.68075E-12
2.33225E-12 6.68047E-12
3.04617E-12 6.68014E-12
3.85530E-12 6.67977E-12
4.75964E-12 6.67936E-12
5.75917E-12 6.67890E-12
6.85391E-12 6.67840E-12
8.04379E-12 6.67786E-12
9.32893E-12 6.67727E-12
1.07092E-11 6.67664E-12
1.21847E-11 6.67596E-12
1.37554E-11 6.67525E-12
1.54213E-11 6.67449E-12
1.71823E-11 6.67368E-12
1.90386E-11 6.67284E-12
2.09900E-11 6.67194E-12
2.30367E-11 6.67101E-12
2.51785E-11 6.67003E-12
2.74156E-11 6.66901E-12
2.97478E-11 6.66795E-12
3.21752E-11 6.66684E-12
3.46979E-11 6.66570E-12
3.73157E-11 6.66450E-12
4.00286E-11 6.66327E-12
4.28368E-11 6.66199E-12
4.57402E-11 6.66067E-12
4.87388E-11 6.65931E-12
5.18325E-11 6.65790E-12
5.50215E-11 6.65645E-12
5.83057E-11 6.65496E-12
6.16850E-11 6.65342E-12
6.51595E-11 6.65184E-12
6.87293E-11 6.65022E-12
7.23943E-11 6.64856E-12
7.61544E-11 6.64686E-12
1.18991E-10 6.62748E-12
1.71347E-10 6.60391E-12
2.33223E-10 6.57623E-12
3.04617E-10 6.54451E-12
3.85531E-10 6.50885E-12
4.75965E-10 6.46934E-12
5.75917E-10 6.42611E-12
6.85389E-10 6.37927E-12
8.04380E-10 6.32895E-12
9.32891E-10 6.27529E-12
1.07092E-09 6.21844E-12
1.21847E-09 6.15855E-12
1.37554E-09 6.09577E-12
1.54213E-09 6.03027E-12
1.71823E-09 5.96221E-12
1.90386E-09 5.89176E-12
2.09900E-09 5.81911E-12
2.30367E-09 5.74466E-12
2.51785E-09 5.66820E-12
2.74156E-09 5.58991E-12
2.97478E-09 5.50993E-12
3.21752E-09 5.42842E-12
3.46978E-09 5.34630E-12
3.73156E-09 5.26308E-12
4.00286E-09 5.17880E-12
4.28368E-09 5.09361E-12
4.57402E-09 5.00765E-12
4.87388E-09 4.92176E-12
5.18326E-09 4.83577E-12
5.50215E-09 4.74941E-12
5.83057E-09 4.66281E-12
6.16850E-09 4.57607E-12
6.51596E-09 4.48986E-12
6.87293E-09 4.40450E-12
7.23942E-09 4.31932E-12
7.61544E-09 4.23442E-12
1.18991E-08 3.43375E-12
1.71347E-08 2.75242E-12
2.33223E-08 2.20427E-12
3.04617E-08 1.77674E-12
3.85531E-08 1.44751E-12
4.75965E-08 1.19396E-12
5.75917E-08 9.97027E-13
6.85389E-08 8.42019E-13
8.04380E-08 7.18083E-13
9.32891E-08 6.17458E-13
1.07092E-07 5.34602E-13
1.21847E-07 4.65530E-13
1.37554E-07 4.07349E-13
1.54213E-07 3.57924E-13
1.71823E-07 3.15649E-13
1.90386E-07 2.79291E-13
2.09900E-07 2.47697E-13
2.30367E-07 2.18988E-13
2.51785E-07 1.94876E-13
2.74156E-07 1.74492E-13
2.97478E-07 1.57151E-13
3.21752E-07 1.42310E-13
3.46978E-07 1.28103E-13
3.73156E-07 1.15679E-13
4.00286E-07 1.04941E-13
4.28368E-07 9.56159E-14
4.57402E-07 8.74799E-14
4.87388E-07 7.99741E-14
5.18325E-07 7.31904E-14
5.50215E-07 6.72184E-14
5.83057E-07 6.19408E-14
6.16850E-07 5.72599E-14
6.51596E-07 5.29842E-14
6.87293E-07 4.90258E-14
7.23942E-07 4.54885E-14
7.61543E-07 4.23180E-14
1.18991E-06 2.21401E-14
1.71347E-06 1.27139E-14
2.33223E-06 7.71621E-15
3.04617E-06 4.88260E-15
3.85531E-06 3.20766E-15
4.75964E-06 2.18311E-15
5.75916E-06 1.53512E-15
6.85388E-06 1.11166E-15
8.04378E-06 8.26424E-16
9.32888E-06 6.28324E-16
1.07092E-05 4.86901E-16
1.21846E-05 3.83544E-16
1.37553E-05 3.06470E-16
1.54212E-05 2.47949E-16
1.71822E-05 2.02787E-16
1.90385E-05 1.67410E-16
2.09899E-05 1.39421E-16
2.30365E-05 1.16936E-16
2.51783E-05 9.89169E-17
2.74153E-05 8.40809E-17
2.97475E-05 7.19837E-17
3.21749E-05 6.19088E-17
3.46974E-05 5.35618E-17
3.73152E-05 4.65439E-17
4.00281E-05 4.06484E-17
4.28362E-05 3.56426E-17
4.57395E-05 3.13853E-17
4.87380E-05 2.77386E-17
5.18317E-05 2.46052E-17
5.50205E-05 2.18996E-17
5.83045E-05 1.95545E-17
6.16838E-05 1.75151E-17
6.51582E-05 1.57341E-17
6.87277E-05 1.41748E-17
7.23925E-05 1.28034E-17
7.61524E-05 1.15951E-17
9.21439E-05 7.97910E-18
1.09658E-04 5.67082E-18
1.28695E-04 4.14183E-18
1.49255E-04 3.09599E-18
1.71338E-04 2.36112E-18
1.94942E-04 1.83225E-18
2.20070E-04 1.44374E-18
2.46720E-04 1.15311E-18
2.74892E-04 9.32134E-19
3.04586E-04 7.61706E-19
3.35803E-04 6.28529E-19
3.68542E-04 5.23250E-19
4.02802E-04 4.39131E-19
4.38585E-04 3.71262E-19
4.75889E-04 3.16022E-19
5.14715E-04 2.70687E-19
5.55063E-04 2.33203E-19
5.96931E-04 2.01992E-19
6.40321E-04 1.75835E-19
6.85233E-04 1.53781E-19
7.31665E-04 1.35081E-19
7.79618E-04 1.19142E-19
8.29092E-04 1.05488E-19
8.80086E-04 9.37373E-20
9.32601E-04 8.35797E-20
9.86636E-04 7.47630E-20
1.04219E-03 6.70805E-20
1.09927E-03 6.03611E-20
1.15786E-03 5.44638E-20
1.21797E-03 4.92705E-20
1.27961E-03 4.46828E-20
1.34276E-03 4.06178E-20
1.40743E-03 3.70056E-20
1.47362E-03 3.37870E-20
1.54133E-03 3.09115E-20
1.61056E-03 2.83362E-20
1.68131E-03 2.60243E-20
1.75357E-03 2.39439E-20
1.82735E-03 2.20678E-20
1.90265E-03 2.03724E-20
1.97947E-03 1.88372E-20
2.05780E-03 1.74443E-20
2.13765E-03 1.61782E-20
2.21902E-03 1.50252E-20
2.30190E-03 1.39735E-20
2.38630E-03 1.30124E-20
2.47222E-03 1.21329E-20
2.55965E-03 1.13266E-20
2.64859E-03 1.05865E-20
2.73905E-03 9.90609E-21
2.83103E-03 9.27963E-21
2.92452E-03 8.70211E-21
3.01952E-03 8.16899E-21
3.11604E-03 7.67624E-21
3.21407E-03 7.22023E-21
3.31362E-03 6.79772E-21
3.41468E-03 6.40579E-21
3.51725E-03 6.04182E-21
3.62133E-03 5.70345E-21
3.72692E-03 5.38854E-21
3.83403E-03 5.09516E-21
3.94265E-03 4.82157E-21
4.05278E-03 4.56618E-21
4.16442E-03 4.32755E-21
4.27757E-03 4.10439E-21
4.39223E-03 3.89549E-21
4.50840E-03 3.69978E-21
4.62608E-03 3.51627E-21
4.74527E-03 3.34405E-21
4.86597E-03 3.18230E-21
4.98817E-03 3.03026E-21
5.11188E-03 2.88724E-21
5.23711E-03 2.75261E-21
5.36383E-03 2.62577E-21
5.49207E-03 2.50619E-21
5.62181E-03 2.39339E-21
5.75306E-03 2.28689E-21
5.88581E-03 2.18628E-21
6.02007E-03 2.09118E-21
6.15583E-03 2.00122E-21
6.29310E-03 1.91607E-21
6.43187E-03 1.83544E-21
6.57214E-03 1.75902E-21
6.71392E-03 1.68656E-21
6.85720E-03 1.61782E-21
7.00198E-03 1.55257E-21
7.14827E-03 1.49059E-21
7.29605E-03 1.43170E-21
7.44534E-03 1.37570E-21
7.59612E-03 1.32243E-21
7.97965E-03 1.20018E-21
8.37255E-03 1.09183E-21
8.77480E-03 9.95499E-22
9.18641E-03 9.09632E-22
9.60736E-03 8.32885E-22
1.00376E-02 7.64116E-22
1.04773E-02 7.02348E-22
1.09262E-02 6.46739E-22
1.13844E-02 5.96565E-22
1.18520E-02 5.51197E-22
1.23288E-02 5.10092E-22
1.28150E-02 4.72776E-22
1.33104E-02 4.38835E-22
1.38150E-02 4.07909E-22
1.43290E-02 3.79680E-22
1.48521E-02 3.53870E-22
1.53845E-02 3.30234E-22
1.59262E-02 3.08554E-22
1.64770E-02 2.88639E-22
1.70371E-02 2.70317E-22
1.76063E-02 2.53438E-22
1.81848E-02 2.37866E-22
1.87724E-02 2.23483E-22
1.93692E-02 2.10179E-22
1.99751E-02 1.97859E-22
2.05901E-02 1.86437E-22
2.12143E-02 1.75834E-22
2.18476E-02 1.65980E-22
2.24900E-02 1.56813E-22
2.31415E-02 1.48276E-22
2.38021E-02 1.40317E-22
2.44717E-02 1.32889E-22
2.51504E-02 1.25951E-22
2.58382E-02 1.19464E-22
2.65349E-02 1.13393E-22
2.72407E-02 1.07706E-22
2.79555E-02 1.02374E-22
2.86793E-02 9.73714E-23
2.94120E-02 9.26733E-23
3.01537E-02 8.82577E-23
3.09043E-02 8.41042E-23
3.16639E-02 8.01945E-23
3.24324E-02 7.65113E-23
3.32098E-02 7.30391E-23
3.39961E-02 6.97635E-23
3.47912E-02 6.66711E-23
3.55952E-02 6.37498E-23
3.64081E-02 6.09880E-23
3.72297E-02 5.83756E-23
3.80602E-02 5.59028E-23
3.88995E-02 5.35608E-23
3.97476E-02 5.13412E-23
4.06044E-02 4.92365E-23
4.14700E-02 4.72395E-23
4.23443E-02 4.53436E-23
4.32273E-02 4.35426E-23
4.41190E-02 4.18310E-23
4.50194E-02 4.02034E-23
4.59284E-02 3.86549E-23
4.68461E-02 3.71809E-23
4.87074E-02 3.44395E-23
5.06030E-02 3.19480E-23
5.25328E-02 2.96797E-23
5.44967E-02 2.76108E-23
5.64946E-02 2.57203E-23
5.85262E-02 2.39901E-23
6.05914E-02 2.24041E-23
6.26901E-02 2.09479E-23
6.48222E-02 1.96089E-23
6.69873E-02 1.83760E-23
6.91854E-02 1.72390E-23
7.14163E-02 1.61892E-23
7.36799E-02 1.52186E-23
7.59760E-02 1.43201E-23
7.83043E-02 1.34873E-23
8.06647E-02 1.27144E-23
8.30571E-02 1.19965E-23
8.54812E-02 1.13287E-23
8.79369E-02 1.07069E-23
9.04240E-02 1.01274E-23
9.29422E-02 9.58672E-24
9.54915E-02 9.08173E-24
9.80716E-02 8.60973E-24
1.00682E-01 8.16799E-24
1.03323E-01 7.75433E-24
1.05995E-01 7.36658E-24
1.08696E-01 7.00276E-24
1.11427E-01 6.66117E-24
1.14188E-01 6.34018E-24
1.16978E-01 6.03827E-24
1.19797E-01 5.75411E-24
1.22645E-01 5.48648E-24
1.25522E-01 5.23419E-24
1.28428E-01 4.99621E-24
1.31361E-01 4.77158E-24
1.34323E-01 4.55938E-24
1.37313E-01 4.35882E-24
1.40330E-01 4.16912E-24
1.43375E-01 3.98957E-24
1.46447E-01 3.81954E-24
1.49545E-01 3.65842E-24
1.52671E-01 3.50565E-24
1.55823E-01 3.36072E-24
1.59001E-01 3.22315E-24
1.62205E-01 3.09249E-24
1.65435E-01 2.96832E-24
1.68690E-01 2.85026E-24
1.71970E-01 2.73796E-24
1.75276E-01 2.63108E-24
1.78606E-01 2.52930E-24
1.81961E-01 2.43233E-24
1.85340E-01 2.33991E-24
1.88743E-01 2.25177E-24
1.92169E-01 2.16769E-24
1.95619E-01 2.08744E-24
1.99092E-01 2.01081E-24
2.02589E-01 1.93760E-24
2.06107E-01 1.86764E-24
2.09649E-01 1.80075E-24
2.13212E-01 1.73677E-24
2.16797E-01 1.67555E-24
2.20404E-01 1.61695E-24
2.24032E-01 1.56083E-24
2.27680E-01 1.50708E-24
2.31350E-01 1.45556E-24
2.35040E-01 1.40618E-24
2.38751E-01 1.35881E-24
2.42481E-01 1.31338E-24
2.46231E-01 1.26977E-24
2.50000E-01 1.22792E-24
2.53788E-01 1.18772E-24
2.57595E-01 1.14910E-24
2.61421E-01 1.11200E-24
2.65264E-01 1.07633E-24
2.69126E-01 1.04203E-24
2.73005E-01 1.00905E-24
2.76901E-01 9.77312E-25
2.80814E-01 9.46769E-25
2.84744E-01 9.17367E-25
2.88691E-01 8.89053E-25
2.92653E-01 8.61782E-25
2.96632E-01 8.35506E-25
3.00625E-01 8.10183E-25
3.04634E-01 7.85772E-25
3.08658E-01 7.62234E-25
3.12697E-01 7.39531E-25
3.16749E-01 7.17629E-25
3.20816E-01 6.96494E-25
3.24896E-01 6.76094E-25
3.28990E-01 6.56398E-25
3.33097E-01 6.37379E-25
3.37216E-01 6.19008E-25
3.41348E-01 6.01259E-25
3.45492E-01 5.84107E-25
3.49647E-01 5.67528E-25
3.53814E-01 5.51501E-25
3.57992E-01 5.36002E-25
3.62181E-01 5.21011E-25
3.66381E-01 5.06510E-25
3.70590E-01 4.92478E-25
3.74810E-01 4.78897E-25
3.79039E-01 4.65752E-25
3.83277E-01 4.53024E-25
3.87524E-01 4.40699E-25
3.91780E-01 4.28761E-25
3.96044E-01 4.17196E-25
4.00316E-01 4.05991E-25
4.04596E-01 3.95131E-25
4.08882E-01 3.84605E-25
4.13176E-01 3.74400E-25
4.17476E-01 3.64505E-25
4.21783E-01 3.54909E-25
4.26095E-01 3.45601E-25
4.30413E-01 3.36571E-25
4.34737E-01 3.27809E-25
4.39065E-01 3.19306E-25
4.43398E-01 3.11052E-25
4.47736E-01 3.03040E-25
4.52077E-01 2.95260E-25
4.56422E-01 2.87706E-25
4.60770E-01 2.80368E-25
4.65122E-01 2.73241E-25
4.69476E-01 2.66316E-25
4.73832E-01 2.59588E-25
4.78190E-01 2.53049E-25
4.82550E-01 2.46694E-25
4.86912E-01 2.40515E-25
4.91274E-01 2.34509E-25
4.95637E-01 2.28668E-25
5.00000E-01 2.22988E-25
5.04363E-01 2.17463E-25
5.08726E-01 2.12089E-25
5.13088E-01 2.06860E-25
5.17450E-01 2.01773E-25
5.21810E-01 1.96822E-25
5.26168E-01 1.92003E-25
5.30524E-01 1.87313E-25
5.34878E-01 1.82746E-25
5.39230E-01 1.78301E-25
5.43578E-01 1.73972E-25
5.47923E-01 1.69756E-25
5.52264E-01 1.65649E-25
5.56602E-01 1.61649E-25
5.60935E-01 1.57753E-25
5.65263E-01 1.53956E-25
5.69587E-01 1.50257E-25
5.73905E-01 1.46652E-25
5.78217E-01 1.43138E-25
5.82524E-01 1.39713E-25
5.86824E-01 1.36374E-25
5.91118E-01 1.33119E-25
5.95404E-01 1.29945E-25
5.99684E-01 1.26850E-25
6.03956E-01 1.23832E-25
6.08220E-01 1.20888E-25
6.12476E-01 1.18017E-25
6.16723E-01 1.15216E-25
6.20961E-01 1.12483E-25
6.25190E-01 1.09816E-25
6.29410E-01 1.07214E-25
6.33619E-01 1.04675E-25
6.37819E-01 1.02197E-25
6.42008E-01 9.97786E-26
6.46186E-01 9.74176E-26
6.50353E-01 9.51129E-26
6.54508E-01 9.28627E-26
6.58652E-01 9.06657E-26
6.62784E-01 8.85205E-26
6.66903E-01 8.64256E-26
6.71010E-01 8.43797E-26
6.75104E-01 8.23815E-26
6.79184E-01 8.04298E-26
6.83251E-01 7.85233E-26
6.87303E-01 7.66608E-26
6.91342E-01 7.48413E-26
6.95366E-01 7.30635E-26
6.99375E-01 7.13264E-26
7.03368E-01 6.96290E-26
7.07347E-01 6.79702E-26
7.11309E-01 6.63491E-26
7.15256E-01 6.47647E-26
7.19186E-01 6.32160E-26
7.23099E-01 6.17023E-26
7.26995E-01 6.02225E-26
7.30874E-01 5.87759E-26
7.34736E-01 5.73616E-26
7.38579E-01 5.59788E-26
7.42405E-01 5.46268E-26
7.46212E-01 5.33048E-26
7.50000E-01 5.20120E-26
7.53769E-01 5.07478E-26
7.57519E-01 4.95115E-26
7.61249E-01 4.83024E-26
7.64960E-01 4.71198E-26
7.68650E-01 4.59631E-26
7.72320E-01 4.48317E-26
7.75968E-01 4.37250E-26
7.79596E-01 4.26424E-26
7.83203E-01 4.15834E-26
7.86788E-01 4.05474E-26
7.90351E-01 3.95338E-26
7.93893E-01 3.85422E-26
7.97411E-01 3.75720E-26
8.00908E-01 3.66228E-26
8.04381E-01 3.56940E-26
8.07831E-01 3.47852E-26
8.11257E-01 3.38960E-26
8.14660E-01 3.30259E-26
8.18039E-01 3.21745E-26
8.21394E-01 3.13414E-26
8.24724E-01 3.05261E-26
8.28030E-01 2.97283E-26
8.31310E-01 2.89476E-26
8.34565E-01 2.81836E-26
8.37795E-01 2.74360E-26
8.40999E-01 2.67043E-26
8.44177E-01 2.59883E-26
8.47329E-01 2.52877E-26
8.50455E-01 2.46020E-26
8.53553E-01 2.39310E-26
8.56625E-01 2.32743E-26
8.59670E-01 2.26318E-26
8.62687E-01 2.20030E-26
8.65677E-01 2.13877E-26
8.68639E-01 2.07856E-26
8.71572E-01 2.01964E-26
8.74478E-01 1.96199E-26
8.77355E-01 1.90559E-26
8.80203E-01 1.85040E-26
8.83022E-01 1.79641E-26
8.85812E-01 1.74358E-26
8.88573E-01 1.69190E-26
8.91304E-01 1.64135E-26
8.94005E-01 1.59189E-26
8.96677E-01 1.54352E-26
8.99318E-01 1.49621E-26
9.01928E-01 1.44993E-26
9.04508E-01 1.40468E-26
9.07058E-01 1.36043E-26
9.09576E-01 1.31716E-26
9.12063E-01 1.27485E-26
9.14519E-01 1.23349E-26
9.16943E-01 1.19306E-26
9.19335E-01 1.15354E-26
9.21696E-01 1.11492E-26
9.24024E-01 1.07718E-26
9.26320E-01 1.04031E-26
9.28584E-01 1.00428E-26
9.30815E-01 9.69093E-27
9.33013E-01 9.34725E-27
9.35178E-01 9.01163E-27
9.37310E-01 8.68395E-27
9.39409E-01 8.36408E-27
9.41474E-01 8.05188E-27
9.43505E-01 7.74724E-27
9.45503E-01 7.45004E-27
9.47467E-01 7.16015E-27
9.49397E-01 6.87746E-27
9.51293E-01 6.60186E-27
9.53154E-01 6.33325E-27
9.54981E-01 6.07152E-27
9.56773E-01 5.81656E-27
9.58530E-01 5.56828E-27
9.60252E-01 5.32658E-27
9.61940E-01 5.09137E-27
9.63592E-01 4.86256E-27
9.65209E-01 4.64007E-27
9.66790E-01 4.42379E-27
9.68336E-01 4.21366E-27
9.69846E-01 4.00959E-27
9.71321E-01 3.81151E-27
9.72759E-01 3.61934E-27
9.74162E-01 3.43301E-27
9.75528E-01 3.25245E-27
9.76858E-01 3.07758E-27
9.78152E-01 2.90835E-27
9.79410E-01 2.74470E-27
9.80631E-01 2.58655E-27
9.81815E-01 2.43385E-27
9.82963E-01 2.28655E-27
9.84074E-01 2.14459E-27
9.85148E-01 2.00792E-27
9.86185E-01 1.87648E-27
9.87185E-01 1.75023E-27
9.88148E-01 1.62913E-27
9.89074E-01 1.51312E-27
9.89962E-01 1.40216E-27
9.90814E-01 1.29622E-27
9.91627E-01 1.19526E-27
9.92404E-01 1.09923E-27
9.93143E-01 1.00810E-27
9.93844E-01 9.21850E-28
9.94508E-01 8.40433E-28
9.95134E-01 7.63826E-28
9.95722E-01 6.91999E-28
9.96273E-01 6.24928E-28
9.96786E-01 5.62586E-28
9.97261E-01 5.04953E-28
9.97698E-01 4.52007E-28
9.98097E-01 4.03728E-28
9.98459E-01 3.60100E-28
9.98782E-01 3.21107E-28
9.99067E-01 2.86734E-28
9.99315E-01 2.56969E-28
9.99524E-01 2.31802E-28
9.99695E-01 2.11222E-28
9.99829E-01 1.95224E-28
9.99924E-01 1.83801E-28
9.99981E-01 1.76948E-28
1.00000E+00 1.74664E-28
