 #
 # Subroutine ELSEPA. Elastic scattering of electrons and positrons
 #                    by neutral atoms and positive ions
 #
 # Projectile: electron
 # Kinetic energy = 2.50000E+07 eV = 9.18733E+05 a.u.
 #
 # WARNING: High-energy factorization with free-atom DF screening.
 #          Absorption, polarization and exchange corrections are
 #          switched off.
 #          Phase shifts are calculated for the bare nucleus.
 #          Scattering amplitudes are not evaluated.
 #
 # Element:  Y,  Z =  39,  atomic weight = 8.89059E+01 g/mol
 #
 # Nuclear model: Fermi distribution
 #                Average radius = 4.77559E-13 cm
 #                Skin thickness = 5.46000E-14 cm
 #
 # Number of electrons = 39
 #
 # Total elastic cross section = 3.94450E-18 cm**2 = 1.40861E-01 a0**2
 # 1st transport cross section = 4.47153E-24 cm**2 = 1.59681E-07 a0**2
 # 2nd transport cross section = 1.28764E-23 cm**2 = 4.59825E-07 a0**2
 #
 #
 # Differential cross section:                       MU=(1-COS(THETA))/2
 #
 #  THETA        MU          DCS          DCS        Sherman      error
 #  (deg)                 (cm**2/sr)   (a0**2/sr)    function
 #----------------------------------------------------------------------
0.00000E+00 3.93590E-11
7.61557E-13 3.93468E-11
1.18994E-12 3.93400E-11
1.71346E-12 3.93316E-11
2.33225E-12 3.93218E-11
3.04617E-12 3.93105E-11
3.85530E-12 3.92976E-11
4.75964E-12 3.92833E-11
5.75917E-12 3.92674E-11
6.85391E-12 3.92501E-11
8.04379E-12 3.92312E-11
9.32893E-12 3.92109E-11
1.07092E-11 3.91891E-11
1.21847E-11 3.91658E-11
1.37554E-11 3.91411E-11
1.54213E-11 3.91148E-11
1.71823E-11 3.90871E-11
1.90386E-11 3.90579E-11
2.09900E-11 3.90273E-11
2.30367E-11 3.89952E-11
2.51785E-11 3.89617E-11
2.74156E-11 3.89267E-11
2.97478E-11 3.88903E-11
3.21752E-11 3.88524E-11
3.46979E-11 3.88132E-11
3.73157E-11 3.87725E-11
4.00286E-11 3.87304E-11
4.28368E-11 3.86869E-11
4.57402E-11 3.86420E-11
4.87388E-11 3.85957E-11
5.18325E-11 3.85481E-11
5.50215E-11 3.84990E-11
5.83057E-11 3.84486E-11
6.16850E-11 3.83969E-11
6.51595E-11 3.83438E-11
6.87293E-11 3.82894E-11
7.23943E-11 3.82336E-11
7.61544E-11 3.81765E-11
1.18991E-10 3.75356E-11
1.71347E-10 3.67745E-11
2.33223E-10 3.59055E-11
3.04617E-10 3.49418E-11
3.85531E-10 3.38992E-11
4.75965E-10 3.27899E-11
5.75917E-10 3.16267E-11
6.85389E-10 3.04293E-11
8.04380E-10 2.92022E-11
9.32891E-10 2.79702E-11
1.07092E-09 2.67296E-11
1.21847E-09 2.55074E-11
1.37554E-09 2.42957E-11
1.54213E-09 2.31166E-11
1.71823E-09 2.19643E-11
1.90386E-09 2.08531E-11
2.09900E-09 1.97806E-11
2.30367E-09 1.87526E-11
2.51785E-09 1.77713E-11
2.74156E-09 1.68343E-11
2.97478E-09 1.59483E-11
3.21752E-09 1.51039E-11
3.46978E-09 1.43120E-11
3.73156E-09 1.35579E-11
4.00286E-09 1.28552E-11
4.28368E-09 1.21875E-11
4.57402E-09 1.15654E-11
4.87388E-09 1.09772E-11
5.18326E-09 1.04278E-11
5.50215E-09 9.91052E-12
5.83057E-09 9.42615E-12
6.16850E-09 8.97161E-12
6.51596E-09 8.54477E-12
6.87293E-09 8.14501E-12
7.23942E-09 7.76863E-12
7.61544E-09 7.41641E-12
1.18991E-08 4.84170E-12
1.71347E-08 3.34439E-12
2.33223E-08 2.39725E-12
3.04617E-08 1.76193E-12
3.85531E-08 1.31084E-12
4.75965E-08 9.95867E-13
5.75917E-08 7.76636E-13
6.85389E-08 6.09081E-13
8.04380E-08 4.89236E-13
9.32891E-08 3.95434E-13
1.07092E-07 3.26002E-13
1.21847E-07 2.70419E-13
1.37554E-07 2.27694E-13
1.54213E-07 1.92820E-13
1.71823E-07 1.65004E-13
1.90386E-07 1.41908E-13
2.09900E-07 1.22872E-13
2.30367E-07 1.06904E-13
2.51785E-07 9.33607E-14
2.74156E-07 8.19480E-14
2.97478E-07 7.20397E-14
3.21752E-07 6.36744E-14
3.46978E-07 5.62848E-14
3.73156E-07 5.00350E-14
4.00286E-07 4.44487E-14
4.28368E-07 3.96866E-14
4.57402E-07 3.54442E-14
4.87388E-07 3.17762E-14
5.18325E-07 2.85241E-14
5.50215E-07 2.56769E-14
5.83057E-07 2.31587E-14
6.16850E-07 2.09329E-14
6.51596E-07 1.89646E-14
6.87293E-07 1.72123E-14
7.23942E-07 1.56603E-14
7.61543E-07 1.42707E-14
1.18991E-06 6.25187E-15
1.71347E-06 3.18424E-15
2.33223E-06 1.80018E-15
3.04617E-06 1.09583E-15
3.85531E-06 7.03500E-16
4.75964E-06 4.71702E-16
5.75916E-06 3.27431E-16
6.85388E-06 2.34025E-16
8.04378E-06 1.71471E-16
9.32888E-06 1.28417E-16
1.07092E-05 9.80419E-17
1.21846E-05 7.61344E-17
1.37553E-05 6.00195E-17
1.54212E-05 4.79557E-17
1.71822E-05 3.87794E-17
1.90385E-05 3.16955E-17
2.09899E-05 2.61701E-17
2.30365E-05 2.17994E-17
2.51783E-05 1.83043E-17
2.74153E-05 1.54823E-17
2.97475E-05 1.31839E-17
3.21749E-05 1.12970E-17
3.46974E-05 9.73671E-18
3.73152E-05 8.43751E-18
4.00281E-05 7.34855E-18
4.28362E-05 6.43005E-18
4.57395E-05 5.65075E-18
4.87380E-05 4.98588E-18
5.18317E-05 4.41588E-18
5.50205E-05 3.92497E-18
5.83045E-05 3.50038E-18
6.16838E-05 3.13170E-18
6.51582E-05 2.81035E-18
6.87277E-05 2.52919E-18
7.23925E-05 2.28237E-18
7.61524E-05 2.06505E-18
9.21439E-05 1.41609E-18
1.09658E-04 1.00308E-18
1.28695E-04 7.30250E-19
1.49255E-04 5.44141E-19
1.71338E-04 4.13730E-19
1.94942E-04 3.20142E-19
2.20070E-04 2.51587E-19
2.46720E-04 2.00444E-19
2.74892E-04 1.61663E-19
3.04586E-04 1.31830E-19
3.35803E-04 1.08574E-19
3.68542E-04 9.02319E-20
4.02802E-04 7.56072E-20
4.38585E-04 6.38315E-20
4.75889E-04 5.42641E-20
5.14715E-04 4.64256E-20
5.55063E-04 3.99545E-20
5.96931E-04 3.45740E-20
6.40321E-04 3.00706E-20
6.85233E-04 2.62783E-20
7.31665E-04 2.30662E-20
7.79618E-04 2.03311E-20
8.29092E-04 1.79903E-20
8.80086E-04 1.59774E-20
9.32601E-04 1.42389E-20
9.86636E-04 1.27310E-20
1.04219E-03 1.14180E-20
1.09927E-03 1.02702E-20
1.15786E-03 9.26350E-21
1.21797E-03 8.37740E-21
1.27961E-03 7.59501E-21
1.34276E-03 6.90208E-21
1.40743E-03 6.28660E-21
1.47362E-03 5.73839E-21
1.54133E-03 5.24881E-21
1.61056E-03 4.81048E-21
1.68131E-03 4.41709E-21
1.75357E-03 4.06322E-21
1.82735E-03 3.74419E-21
1.90265E-03 3.45595E-21
1.97947E-03 3.19501E-21
2.05780E-03 2.95831E-21
2.13765E-03 2.74320E-21
2.21902E-03 2.54735E-21
2.30190E-03 2.36873E-21
2.38630E-03 2.20555E-21
2.47222E-03 2.05623E-21
2.55965E-03 1.91937E-21
2.64859E-03 1.79376E-21
2.73905E-03 1.67829E-21
2.83103E-03 1.57200E-21
2.92452E-03 1.47402E-21
3.01952E-03 1.38358E-21
3.11604E-03 1.30000E-21
3.21407E-03 1.22267E-21
3.31362E-03 1.15102E-21
3.41468E-03 1.08456E-21
3.51725E-03 1.02286E-21
3.62133E-03 9.65492E-22
3.72692E-03 9.12110E-22
3.83403E-03 8.62382E-22
3.94265E-03 8.16011E-22
4.05278E-03 7.72730E-22
4.16442E-03 7.32291E-22
4.27757E-03 6.94477E-22
4.39223E-03 6.59081E-22
4.50840E-03 6.25923E-22
4.62608E-03 5.94832E-22
4.74527E-03 5.65658E-22
4.86597E-03 5.38259E-22
4.98817E-03 5.12506E-22
5.11188E-03 4.88283E-22
5.23711E-03 4.65480E-22
5.36383E-03 4.43999E-22
5.49207E-03 4.23749E-22
5.62181E-03 4.04646E-22
5.75306E-03 3.86613E-22
5.88581E-03 3.69578E-22
6.02007E-03 3.53476E-22
6.15583E-03 3.38246E-22
6.29310E-03 3.23831E-22
6.43187E-03 3.10179E-22
6.57214E-03 2.97244E-22
6.71392E-03 2.84979E-22
6.85720E-03 2.73343E-22
7.00198E-03 2.62299E-22
7.14827E-03 2.51809E-22
7.29605E-03 2.41842E-22
7.44534E-03 2.32365E-22
7.59612E-03 2.23350E-22
7.97965E-03 2.02664E-22
8.37255E-03 1.84329E-22
8.77480E-03 1.68032E-22
9.18641E-03 1.53507E-22
9.60736E-03 1.40525E-22
1.00376E-02 1.28894E-22
1.04773E-02 1.18449E-22
1.09262E-02 1.09045E-22
1.13844E-02 1.00562E-22
1.18520E-02 9.28920E-23
1.23288E-02 8.59433E-23
1.28150E-02 7.96362E-23
1.33104E-02 7.38999E-23
1.38150E-02 6.86739E-23
1.43290E-02 6.39043E-23
1.48521E-02 5.95436E-23
1.53845E-02 5.55511E-23
1.59262E-02 5.18888E-23
1.64770E-02 4.85257E-23
1.70371E-02 4.54317E-23
1.76063E-02 4.25819E-23
1.81848E-02 3.99532E-23
1.87724E-02 3.75252E-23
1.93692E-02 3.52800E-23
1.99751E-02 3.32009E-23
2.05901E-02 3.12737E-23
2.12143E-02 2.94849E-23
2.18476E-02 2.78228E-23
2.24900E-02 2.62769E-23
2.31415E-02 2.48373E-23
2.38021E-02 2.34954E-23
2.44717E-02 2.22433E-23
2.51504E-02 2.10739E-23
2.58382E-02 1.99807E-23
2.65349E-02 1.89578E-23
2.72407E-02 1.79998E-23
2.79555E-02 1.71018E-23
2.86793E-02 1.62594E-23
2.94120E-02 1.54683E-23
3.01537E-02 1.47250E-23
3.09043E-02 1.40260E-23
3.16639E-02 1.33681E-23
3.24324E-02 1.27485E-23
3.32098E-02 1.21645E-23
3.39961E-02 1.16136E-23
3.47912E-02 1.10937E-23
3.55952E-02 1.06026E-23
3.64081E-02 1.01385E-23
3.72297E-02 9.69954E-24
3.80602E-02 9.28415E-24
3.88995E-02 8.89081E-24
3.97476E-02 8.51813E-24
4.06044E-02 8.16480E-24
4.14700E-02 7.82964E-24
4.23443E-02 7.51153E-24
4.32273E-02 7.20943E-24
4.41190E-02 6.92238E-24
4.50194E-02 6.64949E-24
4.59284E-02 6.38993E-24
4.68461E-02 6.14291E-24
4.87074E-02 5.68368E-24
5.06030E-02 5.26657E-24
5.25328E-02 4.88700E-24
5.44967E-02 4.54099E-24
5.64946E-02 4.22502E-24
5.85262E-02 3.93601E-24
6.05914E-02 3.67124E-24
6.26901E-02 3.42829E-24
6.48222E-02 3.20505E-24
6.69873E-02 2.99961E-24
6.91854E-02 2.81030E-24
7.14163E-02 2.63561E-24
7.36799E-02 2.47422E-24
7.59760E-02 2.32492E-24
7.83043E-02 2.18663E-24
8.06647E-02 2.05840E-24
8.30571E-02 1.93936E-24
8.54812E-02 1.82872E-24
8.79369E-02 1.72580E-24
9.04240E-02 1.62994E-24
9.29422E-02 1.54057E-24
9.54915E-02 1.45718E-24
9.80716E-02 1.37929E-24
1.00682E-01 1.30647E-24
1.03323E-01 1.23833E-24
1.05995E-01 1.17451E-24
1.08696E-01 1.11469E-24
1.11427E-01 1.05857E-24
1.14188E-01 1.00589E-24
1.16978E-01 9.56382E-25
1.19797E-01 9.09832E-25
1.22645E-01 8.66028E-25
1.25522E-01 8.24778E-25
1.28428E-01 7.85906E-25
1.31361E-01 7.49250E-25
1.34323E-01 7.14660E-25
1.37313E-01 6.81999E-25
1.40330E-01 6.51140E-25
1.43375E-01 6.21965E-25
1.46447E-01 5.94365E-25
1.49545E-01 5.68240E-25
1.52671E-01 5.43496E-25
1.55823E-01 5.20049E-25
1.59001E-01 4.97816E-25
1.62205E-01 4.76725E-25
1.65435E-01 4.56705E-25
1.68690E-01 4.37693E-25
1.71970E-01 4.19629E-25
1.75276E-01 4.02457E-25
1.78606E-01 3.86125E-25
1.81961E-01 3.70585E-25
1.85340E-01 3.55791E-25
1.88743E-01 3.41701E-25
1.92169E-01 3.28276E-25
1.95619E-01 3.15479E-25
1.99092E-01 3.03275E-25
2.02589E-01 2.91633E-25
2.06107E-01 2.80520E-25
2.09649E-01 2.69910E-25
2.13212E-01 2.59776E-25
2.16797E-01 2.50092E-25
2.20404E-01 2.40835E-25
2.24032E-01 2.31982E-25
2.27680E-01 2.23514E-25
2.31350E-01 2.15411E-25
2.35040E-01 2.07653E-25
2.38751E-01 2.00224E-25
2.42481E-01 1.93108E-25
2.46231E-01 1.86289E-25
2.50000E-01 1.79753E-25
2.53788E-01 1.73485E-25
2.57595E-01 1.67473E-25
2.61421E-01 1.61705E-25
2.65264E-01 1.56169E-25
2.69126E-01 1.50855E-25
2.73005E-01 1.45751E-25
2.76901E-01 1.40849E-25
2.80814E-01 1.36138E-25
2.84744E-01 1.31610E-25
2.88691E-01 1.27258E-25
2.92653E-01 1.23072E-25
2.96632E-01 1.19046E-25
3.00625E-01 1.15172E-25
3.04634E-01 1.11444E-25
3.08658E-01 1.07856E-25
3.12697E-01 1.04401E-25
3.16749E-01 1.01073E-25
3.20816E-01 9.78672E-26
3.24896E-01 9.47785E-26
3.28990E-01 9.18017E-26
3.33097E-01 8.89321E-26
3.37216E-01 8.61653E-26
3.41348E-01 8.34969E-26
3.45492E-01 8.09231E-26
3.49647E-01 7.84398E-26
3.53814E-01 7.60434E-26
3.57992E-01 7.37303E-26
3.62181E-01 7.14973E-26
3.66381E-01 6.93411E-26
3.70590E-01 6.72587E-26
3.74810E-01 6.52471E-26
3.79039E-01 6.33037E-26
3.83277E-01 6.14256E-26
3.87524E-01 5.96105E-26
3.91780E-01 5.78558E-26
3.96044E-01 5.61593E-26
4.00316E-01 5.45187E-26
4.04596E-01 5.29320E-26
4.08882E-01 5.13970E-26
4.13176E-01 4.99119E-26
4.17476E-01 4.84748E-26
4.21783E-01 4.70839E-26
4.26095E-01 4.57375E-26
4.30413E-01 4.44340E-26
4.34737E-01 4.31718E-26
4.39065E-01 4.19494E-26
4.43398E-01 4.07654E-26
4.47736E-01 3.96185E-26
4.52077E-01 3.85072E-26
4.56422E-01 3.74303E-26
4.60770E-01 3.63866E-26
4.65122E-01 3.53750E-26
4.69476E-01 3.43943E-26
4.73832E-01 3.34435E-26
4.78190E-01 3.25214E-26
4.82550E-01 3.16272E-26
4.86912E-01 3.07598E-26
4.91274E-01 2.99184E-26
4.95637E-01 2.91020E-26
5.00000E-01 2.83098E-26
5.04363E-01 2.75411E-26
5.08726E-01 2.67950E-26
5.13088E-01 2.60707E-26
5.17450E-01 2.53676E-26
5.21810E-01 2.46850E-26
5.26168E-01 2.40221E-26
5.30524E-01 2.33783E-26
5.34878E-01 2.27530E-26
5.39230E-01 2.21457E-26
5.43578E-01 2.15557E-26
5.47923E-01 2.09824E-26
5.52264E-01 2.04254E-26
5.56602E-01 1.98840E-26
5.60935E-01 1.93579E-26
5.65263E-01 1.88466E-26
5.69587E-01 1.83495E-26
5.73905E-01 1.78662E-26
5.78217E-01 1.73964E-26
5.82524E-01 1.69395E-26
5.86824E-01 1.64952E-26
5.91118E-01 1.60630E-26
5.95404E-01 1.56427E-26
5.99684E-01 1.52339E-26
6.03956E-01 1.48361E-26
6.08220E-01 1.44492E-26
6.12476E-01 1.40726E-26
6.16723E-01 1.37063E-26
6.20961E-01 1.33497E-26
6.25190E-01 1.30027E-26
6.29410E-01 1.26649E-26
6.33619E-01 1.23361E-26
6.37819E-01 1.20160E-26
6.42008E-01 1.17043E-26
6.46186E-01 1.14009E-26
6.50353E-01 1.11055E-26
6.54508E-01 1.08177E-26
6.58652E-01 1.05375E-26
6.62784E-01 1.02646E-26
6.66903E-01 9.99880E-27
6.71010E-01 9.73987E-27
6.75104E-01 9.48762E-27
6.79184E-01 9.24187E-27
6.83251E-01 9.00244E-27
6.87303E-01 8.76914E-27
6.91342E-01 8.54181E-27
6.95366E-01 8.32027E-27
6.99375E-01 8.10437E-27
7.03368E-01 7.89395E-27
7.07347E-01 7.68885E-27
7.11309E-01 7.48893E-27
7.15256E-01 7.29405E-27
7.19186E-01 7.10407E-27
7.23099E-01 6.91885E-27
7.26995E-01 6.73826E-27
7.30874E-01 6.56218E-27
7.34736E-01 6.39049E-27
7.38579E-01 6.22307E-27
7.42405E-01 6.05980E-27
7.46212E-01 5.90058E-27
7.50000E-01 5.74529E-27
7.53769E-01 5.59382E-27
7.57519E-01 5.44609E-27
7.61249E-01 5.30199E-27
7.64960E-01 5.16142E-27
7.68650E-01 5.02429E-27
7.72320E-01 4.89051E-27
7.75968E-01 4.76000E-27
7.79596E-01 4.63266E-27
7.83203E-01 4.50842E-27
7.86788E-01 4.38720E-27
7.90351E-01 4.26892E-27
7.93893E-01 4.15350E-27
7.97411E-01 4.04087E-27
8.00908E-01 3.93097E-27
8.04381E-01 3.82371E-27
8.07831E-01 3.71904E-27
8.11257E-01 3.61688E-27
8.14660E-01 3.51718E-27
8.18039E-01 3.41988E-27
8.21394E-01 3.32491E-27
8.24724E-01 3.23221E-27
8.28030E-01 3.14174E-27
8.31310E-01 3.05343E-27
8.34565E-01 2.96723E-27
8.37795E-01 2.88310E-27
8.40999E-01 2.80097E-27
8.44177E-01 2.72080E-27
8.47329E-01 2.64255E-27
8.50455E-01 2.56617E-27
8.53553E-01 2.49161E-27
8.56625E-01 2.41883E-27
8.59670E-01 2.34778E-27
8.62687E-01 2.27843E-27
8.65677E-01 2.21074E-27
8.68639E-01 2.14466E-27
8.71572E-01 2.08017E-27
8.74478E-01 2.01721E-27
8.77355E-01 1.95576E-27
8.80203E-01 1.89578E-27
8.83022E-01 1.83724E-27
8.85812E-01 1.78011E-27
8.88573E-01 1.72435E-27
8.91304E-01 1.66992E-27
8.94005E-01 1.61681E-27
8.96677E-01 1.56498E-27
8.99318E-01 1.51441E-27
9.01928E-01 1.46506E-27
9.04508E-01 1.41691E-27
9.07058E-01 1.36993E-27
9.09576E-01 1.32409E-27
9.12063E-01 1.27938E-27
9.14519E-01 1.23577E-27
9.16943E-01 1.19322E-27
9.19335E-01 1.15173E-27
9.21696E-01 1.11127E-27
9.24024E-01 1.07182E-27
9.26320E-01 1.03335E-27
9.28584E-01 9.95844E-28
9.30815E-01 9.59286E-28
9.33013E-01 9.23655E-28
9.35178E-01 8.88931E-28
9.37310E-01 8.55096E-28
9.39409E-01 8.22132E-28
9.41474E-01 7.90024E-28
9.43505E-01 7.58752E-28
9.45503E-01 7.28302E-28
9.47467E-01 6.98658E-28
9.49397E-01 6.69804E-28
9.51293E-01 6.41726E-28
9.53154E-01 6.14408E-28
9.54981E-01 5.87837E-28
9.56773E-01 5.62000E-28
9.58530E-01 5.36883E-28
9.60252E-01 5.12474E-28
9.61940E-01 4.88759E-28
9.63592E-01 4.65727E-28
9.65209E-01 4.43367E-28
9.66790E-01 4.21667E-28
9.68336E-01 4.00616E-28
9.69846E-01 3.80203E-28
9.71321E-01 3.60419E-28
9.72759E-01 3.41252E-28
9.74162E-01 3.22695E-28
9.75528E-01 3.04737E-28
9.76858E-01 2.87370E-28
9.78152E-01 2.70585E-28
9.79410E-01 2.54374E-28
9.80631E-01 2.38728E-28
9.81815E-01 2.23639E-28
9.82963E-01 2.09102E-28
9.84074E-01 1.95107E-28
9.85148E-01 1.81649E-28
9.86185E-01 1.68721E-28
9.87185E-01 1.56316E-28
9.88148E-01 1.44428E-28
9.89074E-01 1.33052E-28
9.89962E-01 1.22181E-28
9.90814E-01 1.11811E-28
9.91627E-01 1.01937E-28
9.92404E-01 9.25537E-29
9.93143E-01 8.36563E-29
9.93844E-01 7.52408E-29
9.94508E-01 6.73031E-29
9.95134E-01 5.98392E-29
9.95722E-01 5.28456E-29
9.96273E-01 4.63189E-29
9.96786E-01 4.02559E-29
9.97261E-01 3.46536E-29
9.97698E-01 2.95095E-29
9.98097E-01 2.48209E-29
9.98459E-01 2.05857E-29
9.98782E-01 1.68018E-29
9.99067E-01 1.34673E-29
9.99315E-01 1.05806E-29
9.99524E-01 8.14040E-30
9.99695E-01 6.14547E-30
9.99829E-01 4.59485E-30
9.99924E-01 3.48780E-30
9.99981E-01 2.82379E-30
1.00000E+00 2.60248E-30
