 #
 # Subroutine ELSEPA. Elastic scattering of electrons and positrons
 #                    by neutral atoms and positive ions
 #
 # Projectile: electron
 # Kinetic energy = 1.00000E+09 eV = 3.67493E+07 a.u.
 #
 # WARNING: High-energy factorization with free-atom DF screening.
 #          Absorption, polarization and exchange corrections are
 #          switched off.
 #          Phase shifts are calculated for the bare nucleus.
 #          Scattering amplitudes are not evaluated.
 #
 # Element:  Y,  Z =  39,  atomic weight = 8.89059E+01 g/mol
 #
 # Nuclear model: Fermi distribution
 #                Average radius = 4.77559E-13 cm
 #                Skin thickness = 5.46000E-14 cm
 #
 # Number of electrons = 39
 #
 # Total elastic cross section = 3.85616E-18 cm**2 = 1.37706E-01 a0**2
 # 1st transport cross section = 3.05202E-27 cm**2 = 1.08990E-10 a0**2
 # 2nd transport cross section = 9.15508E-27 cm**2 = 3.26934E-10 a0**2
 #
 #
 # Differential cross section:                       MU=(1-COS(THETA))/2
 #
 #  THETA        MU          DCS          DCS        Sherman      error
 #  (deg)                 (cm**2/sr)   (a0**2/sr)    function
 #----------------------------------------------------------------------
0.00000E+00 6.05386E-08
7.61557E-13 3.98121E-08
1.18994E-12 3.27242E-08
1.71346E-12 2.65483E-08
2.33225E-12 2.14731E-08
3.04617E-12 1.74374E-08
3.85530E-12 1.42811E-08
4.75964E-12 1.18229E-08
5.75917E-12 9.89964E-09
6.85391E-12 8.37980E-09
8.04379E-12 7.16189E-09
9.32893E-12 6.17210E-09
1.07092E-11 5.35694E-09
1.21847E-11 4.67727E-09
1.37554E-11 4.10444E-09
1.54213E-11 3.61644E-09
1.71823E-11 3.19834E-09
1.90386E-11 2.83796E-09
2.09900E-11 2.52582E-09
2.30367E-11 2.25329E-09
2.51785E-11 2.00292E-09
2.74156E-11 1.79103E-09
2.97478E-11 1.61062E-09
3.21752E-11 1.45612E-09
3.46979E-11 1.32310E-09
3.73157E-11 1.19945E-09
4.00286E-11 1.08663E-09
4.28368E-11 9.88626E-10
4.57402E-11 9.03112E-10
4.87388E-11 8.28169E-10
5.18325E-11 7.61728E-10
5.50215E-11 6.98613E-10
5.83057E-11 6.42843E-10
6.16850E-11 5.93387E-10
6.51595E-11 5.49379E-10
6.87293E-11 5.10091E-10
7.23943E-11 4.73532E-10
7.61544E-11 4.39920E-10
1.18991E-10 2.31340E-10
1.71347E-10 1.33944E-10
2.33223E-10 8.19398E-11
3.04617E-10 5.22425E-11
3.85531E-10 3.45131E-11
4.75965E-10 2.35662E-11
5.75917E-10 1.65990E-11
6.85389E-10 1.20207E-11
8.04380E-10 8.93224E-12
9.32891E-10 6.78841E-12
1.07092E-09 5.25953E-12
1.21847E-09 4.14293E-12
1.37554E-09 3.31064E-12
1.54213E-09 2.67888E-12
1.71823E-09 2.19182E-12
1.90386E-09 1.81079E-12
2.09900E-09 1.50890E-12
2.30367E-09 1.26700E-12
2.51785E-09 1.07066E-12
2.74156E-09 9.11918E-13
2.97478E-09 7.80454E-13
3.21752E-09 6.72148E-13
3.46978E-09 5.81586E-13
3.73156E-09 5.05729E-13
4.00286E-09 4.41761E-13
4.28368E-09 3.87465E-13
4.57402E-09 3.41284E-13
4.87388E-09 3.01642E-13
5.18326E-09 2.67654E-13
5.50215E-09 2.38212E-13
5.83057E-09 2.12760E-13
6.16850E-09 1.90558E-13
6.51596E-09 1.71200E-13
6.87293E-09 1.54218E-13
7.23942E-09 1.39295E-13
7.61544E-09 1.26132E-13
1.18991E-08 5.24957E-14
1.71347E-08 2.56203E-14
2.33223E-08 1.39600E-14
3.04617E-08 8.24346E-15
3.85531E-08 5.17595E-15
4.75965E-08 3.41103E-15
5.75917E-08 2.33786E-15
6.85389E-08 1.65517E-15
8.04380E-08 1.20427E-15
9.32891E-08 8.96868E-16
1.07092E-07 6.81512E-16
1.21847E-07 5.27043E-16
1.37554E-07 4.13933E-16
1.54213E-07 3.29585E-16
1.71823E-07 2.65656E-16
1.90386E-07 2.16495E-16
2.09900E-07 1.78193E-16
2.30367E-07 1.47995E-16
2.51785E-07 1.23929E-16
2.74156E-07 1.04560E-16
2.97478E-07 8.88306E-17
3.21752E-07 7.59499E-17
3.46978E-07 6.53210E-17
3.73156E-07 5.64876E-17
4.00286E-07 4.90978E-17
4.28368E-07 4.28777E-17
4.57402E-07 3.76119E-17
4.87388E-07 3.31301E-17
5.18325E-07 2.92964E-17
5.50215E-07 2.60014E-17
5.83057E-07 2.31568E-17
6.16850E-07 2.06908E-17
6.51596E-07 1.85444E-17
6.87293E-07 1.66693E-17
7.23942E-07 1.50252E-17
7.61543E-07 1.35790E-17
1.18991E-06 5.56452E-18
1.71347E-06 2.68434E-18
2.33223E-06 1.44929E-18
3.04617E-06 8.49720E-19
3.85531E-06 5.30577E-19
4.75964E-06 3.48172E-19
5.75916E-06 2.37847E-19
6.85388E-06 1.67964E-19
8.04378E-06 1.21965E-19
9.32888E-06 9.06917E-20
1.07092E-05 6.88310E-20
1.21846E-05 5.31784E-20
1.37553E-05 4.17338E-20
1.54212E-05 3.32094E-20
1.71822E-05 2.67548E-20
1.90385E-05 2.17921E-20
2.09899E-05 1.79350E-20
2.30365E-05 1.48942E-20
2.51783E-05 1.24704E-20
2.74153E-05 1.05193E-20
2.97475E-05 8.93497E-21
3.21749E-05 7.63800E-21
3.46974E-05 6.56835E-21
3.73152E-05 5.67992E-21
4.00281E-05 4.93705E-21
4.28362E-05 4.31192E-21
4.57395E-05 3.78270E-21
4.87380E-05 3.33220E-21
5.18317E-05 2.94674E-21
5.50205E-05 2.61539E-21
5.83045E-05 2.32933E-21
6.16838E-05 2.08135E-21
6.51582E-05 1.86556E-21
6.87277E-05 1.67708E-21
7.23925E-05 1.51184E-21
7.61524E-05 1.33463E-21
9.21439E-05 9.05411E-22
1.09658E-04 6.34272E-22
1.28695E-04 4.56436E-22
1.49255E-04 3.35975E-22
1.71338E-04 2.52162E-22
1.94942E-04 1.92449E-22
2.20070E-04 1.49036E-22
2.46720E-04 1.16904E-22
2.74892E-04 9.27396E-23
3.04586E-04 7.43128E-23
3.35803E-04 6.00813E-23
3.68542E-04 4.89664E-23
4.02802E-04 4.01961E-23
4.38585E-04 3.32115E-23
4.75889E-04 2.76025E-23
5.14715E-04 2.30632E-23
5.55063E-04 1.93640E-23
5.96931E-04 1.63300E-23
6.40321E-04 1.38268E-23
6.85233E-04 1.17504E-23
7.31665E-04 1.00193E-23
7.79618E-04 8.56955E-24
8.29092E-04 7.35013E-24
8.80086E-04 6.32044E-24
9.32601E-04 5.44778E-24
9.86636E-04 4.70568E-24
1.04219E-03 4.07266E-24
1.09927E-03 3.53109E-24
1.15786E-03 3.06652E-24
1.21797E-03 2.66701E-24
1.27961E-03 2.32265E-24
1.34276E-03 2.02520E-24
1.40743E-03 1.76776E-24
1.47362E-03 1.54454E-24
1.54133E-03 1.35067E-24
1.61056E-03 1.18202E-24
1.68131E-03 1.03511E-24
1.75357E-03 9.06975E-25
1.82735E-03 7.95075E-25
1.90265E-03 6.97251E-25
1.97947E-03 6.11649E-25
2.05780E-03 5.36678E-25
2.13765E-03 4.70966E-25
2.21902E-03 4.13331E-25
2.30190E-03 3.62750E-25
2.38630E-03 3.18337E-25
2.47222E-03 2.79323E-25
2.55965E-03 2.45042E-25
2.64859E-03 2.14910E-25
2.73905E-03 1.88420E-25
2.83103E-03 1.65131E-25
2.92452E-03 1.44654E-25
3.01952E-03 1.26650E-25
3.11604E-03 1.10824E-25
3.21407E-03 9.69130E-26
3.31362E-03 8.46896E-26
3.41468E-03 7.39523E-26
3.51725E-03 6.45244E-26
3.62133E-03 5.62499E-26
3.72692E-03 4.89918E-26
3.83403E-03 4.26291E-26
3.94265E-03 3.70553E-26
4.05278E-03 3.21763E-26
4.16442E-03 2.79092E-26
4.27757E-03 2.41806E-26
4.39223E-03 2.09258E-26
4.50840E-03 1.80878E-26
4.62608E-03 1.56160E-26
4.74527E-03 1.34659E-26
4.86597E-03 1.15982E-26
4.98817E-03 9.97807E-27
5.11188E-03 8.57491E-27
5.23711E-03 7.36163E-27
5.36383E-03 6.31435E-27
5.49207E-03 5.41204E-27
5.62181E-03 4.63612E-27
5.75306E-03 3.97029E-27
5.88581E-03 3.40014E-27
6.02007E-03 2.91305E-27
6.15583E-03 2.49791E-27
6.29310E-03 2.14497E-27
6.43187E-03 1.84570E-27
6.57214E-03 1.59262E-27
6.71392E-03 1.37919E-27
6.85720E-03 1.19969E-27
7.00198E-03 1.04917E-27
7.14827E-03 9.23287E-28
7.29605E-03 8.18293E-28
7.44534E-03 7.30932E-28
7.59612E-03 6.58393E-28
7.97965E-03 5.26821E-28
8.37255E-03 4.44301E-28
8.77480E-03 3.91130E-28
9.18641E-03 3.54461E-28
9.60736E-03 3.26232E-28
1.00376E-02 3.01661E-28
1.04773E-02 2.78155E-28
1.09262E-02 2.54534E-28
1.13844E-02 2.30483E-28
1.18520E-02 2.06180E-28
1.23288E-02 1.82038E-28
1.28150E-02 1.58548E-28
1.33104E-02 1.36176E-28
1.38150E-02 1.15311E-28
1.43290E-02 9.62405E-29
1.48521E-02 7.91427E-29
1.53845E-02 6.40967E-29
1.59262E-02 5.10950E-29
1.64770E-02 4.00606E-29
1.70371E-02 3.08646E-29
1.76063E-02 2.33424E-29
1.81848E-02 1.73087E-29
1.87724E-02 1.25697E-29
1.93692E-02 8.93253E-30
1.99751E-02 6.21321E-30
2.05901E-02 4.24148E-30
2.12143E-02 2.86434E-30
2.18476E-02 1.94775E-30
2.24900E-02 1.37717E-30
2.31415E-02 1.05708E-30
2.38021E-02 9.09819E-31
2.44717E-02 8.73996E-31
2.51504E-02 9.02554E-31
2.58382E-02 9.60777E-31
2.65349E-02 1.02427E-30
2.72407E-02 1.07702E-30
2.79555E-02 1.10968E-30
2.86793E-02 1.11792E-30
2.94120E-02 1.10111E-30
3.01537E-02 1.06116E-30
3.09043E-02 1.00156E-30
3.16639E-02 9.26658E-31
3.24324E-02 8.41079E-31
3.32098E-02 7.49320E-31
3.39961E-02 6.55464E-31
3.47912E-02 5.63009E-31
3.55952E-02 4.74781E-31
3.64081E-02 3.92910E-31
3.72297E-02 3.18865E-31
3.80602E-02 2.53511E-31
3.88995E-02 1.97189E-31
3.97476E-02 1.49813E-31
4.06044E-02 1.10957E-31
4.14700E-02 7.99548E-32
4.23443E-02 5.59726E-32
4.32273E-02 3.80881E-32
4.41190E-02 2.53482E-32
4.50194E-02 1.68179E-32
4.59284E-02 1.16167E-32
4.68461E-02 8.94493E-33
4.87074E-02 8.48147E-33
5.06030E-02 1.10629E-32
5.25328E-02 1.39322E-32
5.44967E-02 1.56740E-32
5.64946E-02 1.58451E-32
5.85262E-02 1.46041E-32
6.05914E-02 1.24013E-32
6.26901E-02 9.75455E-33
6.48222E-02 7.11138E-33
6.69873E-02 4.78501E-33
6.91854E-02 2.94286E-33
7.14163E-02 1.62760E-33
7.36799E-02 7.93326E-34
7.59760E-02 3.43944E-34
7.83043E-02 1.66022E-34
8.06647E-02 1.52452E-34
8.30571E-02 2.16340E-34
8.54812E-02 2.96478E-34
8.79369E-02 3.56667E-34
9.04240E-02 3.81337E-34
9.29422E-02 3.69572E-34
9.54915E-02 3.29114E-34
9.80716E-02 2.71323E-34
1.00682E-01 2.07548E-34
1.03323E-01 1.46943E-34
1.05995E-01 9.55336E-35
1.08696E-01 5.62087E-35
1.11427E-01 2.92646E-35
1.14188E-01 1.32112E-35
1.16978E-01 5.59475E-36
1.19797E-01 3.69375E-36
1.22645E-01 5.01547E-36
1.25522E-01 7.58371E-36
1.28428E-01 1.00452E-35
1.31361E-01 1.16423E-35
1.34323E-01 1.21036E-35
1.37313E-01 1.14995E-35
1.40330E-01 1.00972E-35
1.43375E-01 8.23827E-36
1.46447E-01 6.24959E-36
1.49545E-01 4.39010E-36
1.52671E-01 2.82817E-36
1.55823E-01 1.64251E-36
1.59001E-01 8.37847E-37
1.62205E-01 3.67402E-37
1.65435E-01 1.56137E-37
1.68690E-01 1.20689E-37
1.71970E-01 1.83966E-37
1.75276E-01 2.83956E-37
1.78606E-01 3.77365E-37
1.81961E-01 4.39291E-37
1.85340E-01 4.60323E-37
1.88743E-01 4.42352E-37
1.92169E-01 3.94145E-37
1.95619E-01 3.27421E-37
1.99092E-01 2.53839E-37
2.02589E-01 1.83055E-37
2.06107E-01 1.21771E-37
2.09649E-01 7.35899E-38
2.13212E-01 1.00000E-45
2.16797E-01 1.00000E-45
2.20404E-01 1.00000E-45
2.24032E-01 1.00000E-45
2.27680E-01 1.00000E-45
2.31350E-01 1.00000E-45
2.35040E-01 1.00000E-45
2.38751E-01 1.00000E-45
2.42481E-01 1.00000E-45
2.46231E-01 1.00000E-45
2.50000E-01 1.00000E-45
2.53788E-01 1.00000E-45
2.57595E-01 1.00000E-45
2.61421E-01 1.00000E-45
2.65264E-01 1.00000E-45
2.69126E-01 1.00000E-45
2.73005E-01 1.00000E-45
2.76901E-01 1.00000E-45
2.80814E-01 1.00000E-45
2.84744E-01 1.00000E-45
2.88691E-01 1.00000E-45
2.92653E-01 1.00000E-45
2.96632E-01 1.00000E-45
3.00625E-01 1.00000E-45
3.04634E-01 1.00000E-45
3.08658E-01 1.00000E-45
3.12697E-01 1.00000E-45
3.16749E-01 1.00000E-45
3.20816E-01 1.00000E-45
3.24896E-01 1.00000E-45
3.28990E-01 1.00000E-45
3.33097E-01 1.00000E-45
3.37216E-01 1.00000E-45
3.41348E-01 1.00000E-45
3.45492E-01 1.00000E-45
3.49647E-01 1.00000E-45
3.53814E-01 1.00000E-45
3.57992E-01 1.00000E-45
3.62181E-01 1.00000E-45
3.66381E-01 1.00000E-45
3.70590E-01 1.00000E-45
3.74810E-01 1.00000E-45
3.79039E-01 1.00000E-45
3.83277E-01 1.00000E-45
3.87524E-01 1.00000E-45
3.91780E-01 1.00000E-45
3.96044E-01 1.00000E-45
4.00316E-01 1.00000E-45
4.04596E-01 1.00000E-45
4.08882E-01 1.00000E-45
4.13176E-01 1.00000E-45
4.17476E-01 1.00000E-45
4.21783E-01 1.00000E-45
4.26095E-01 1.00000E-45
4.30413E-01 1.00000E-45
4.34737E-01 1.00000E-45
4.39065E-01 1.00000E-45
4.43398E-01 1.00000E-45
4.47736E-01 1.00000E-45
4.52077E-01 1.00000E-45
4.56422E-01 1.00000E-45
4.60770E-01 1.00000E-45
4.65122E-01 1.00000E-45
4.69476E-01 1.00000E-45
4.73832E-01 1.00000E-45
4.78190E-01 1.00000E-45
4.82550E-01 1.00000E-45
4.86912E-01 1.00000E-45
4.91274E-01 1.00000E-45
4.95637E-01 1.00000E-45
5.00000E-01 1.00000E-45
5.04363E-01 1.00000E-45
5.08726E-01 1.00000E-45
5.13088E-01 1.00000E-45
5.17450E-01 1.00000E-45
5.21810E-01 1.00000E-45
5.26168E-01 1.00000E-45
5.30524E-01 1.00000E-45
5.34878E-01 1.00000E-45
5.39230E-01 1.00000E-45
5.43578E-01 1.00000E-45
5.47923E-01 1.00000E-45
5.52264E-01 1.00000E-45
5.56602E-01 1.00000E-45
5.60935E-01 1.00000E-45
5.65263E-01 1.00000E-45
5.69587E-01 1.00000E-45
5.73905E-01 1.00000E-45
5.78217E-01 1.00000E-45
5.82524E-01 1.00000E-45
5.86824E-01 1.00000E-45
5.91118E-01 1.00000E-45
5.95404E-01 1.00000E-45
5.99684E-01 1.00000E-45
6.03956E-01 1.00000E-45
6.08220E-01 1.00000E-45
6.12476E-01 1.00000E-45
6.16723E-01 1.00000E-45
6.20961E-01 1.00000E-45
6.25190E-01 1.00000E-45
6.29410E-01 1.00000E-45
6.33619E-01 1.00000E-45
6.37819E-01 1.00000E-45
6.42008E-01 1.00000E-45
6.46186E-01 1.00000E-45
6.50353E-01 1.00000E-45
6.54508E-01 1.00000E-45
6.58652E-01 1.00000E-45
6.62784E-01 1.00000E-45
6.66903E-01 1.00000E-45
6.71010E-01 1.00000E-45
6.75104E-01 1.00000E-45
6.79184E-01 1.00000E-45
6.83251E-01 1.00000E-45
6.87303E-01 1.00000E-45
6.91342E-01 1.00000E-45
6.95366E-01 1.00000E-45
6.99375E-01 1.00000E-45
7.03368E-01 1.00000E-45
7.07347E-01 1.00000E-45
7.11309E-01 1.00000E-45
7.15256E-01 1.00000E-45
7.19186E-01 1.00000E-45
7.23099E-01 1.00000E-45
7.26995E-01 1.00000E-45
7.30874E-01 1.00000E-45
7.34736E-01 1.00000E-45
7.38579E-01 1.00000E-45
7.42405E-01 1.00000E-45
7.46212E-01 1.00000E-45
7.50000E-01 1.00000E-45
7.53769E-01 1.00000E-45
7.57519E-01 1.00000E-45
7.61249E-01 1.00000E-45
7.64960E-01 1.00000E-45
7.68650E-01 1.00000E-45
7.72320E-01 1.00000E-45
7.75968E-01 1.00000E-45
7.79596E-01 1.00000E-45
7.83203E-01 1.00000E-45
7.86788E-01 1.00000E-45
7.90351E-01 1.00000E-45
7.93893E-01 1.00000E-45
7.97411E-01 1.00000E-45
8.00908E-01 1.00000E-45
8.04381E-01 1.00000E-45
8.07831E-01 1.00000E-45
8.11257E-01 1.00000E-45
8.14660E-01 1.00000E-45
8.18039E-01 1.00000E-45
8.21394E-01 1.00000E-45
8.24724E-01 1.00000E-45
8.28030E-01 1.00000E-45
8.31310E-01 1.00000E-45
8.34565E-01 1.00000E-45
8.37795E-01 1.00000E-45
8.40999E-01 1.00000E-45
8.44177E-01 1.00000E-45
8.47329E-01 1.00000E-45
8.50455E-01 1.00000E-45
8.53553E-01 1.00000E-45
8.56625E-01 1.00000E-45
8.59670E-01 1.00000E-45
8.62687E-01 1.00000E-45
8.65677E-01 1.00000E-45
8.68639E-01 1.00000E-45
8.71572E-01 1.00000E-45
8.74478E-01 1.00000E-45
8.77355E-01 1.00000E-45
8.80203E-01 1.00000E-45
8.83022E-01 1.00000E-45
8.85812E-01 1.00000E-45
8.88573E-01 1.00000E-45
8.91304E-01 1.00000E-45
8.94005E-01 1.00000E-45
8.96677E-01 1.00000E-45
8.99318E-01 1.00000E-45
9.01928E-01 1.00000E-45
9.04508E-01 1.00000E-45
9.07058E-01 1.00000E-45
9.09576E-01 1.00000E-45
9.12063E-01 1.00000E-45
9.14519E-01 1.00000E-45
9.16943E-01 1.00000E-45
9.19335E-01 1.00000E-45
9.21696E-01 1.00000E-45
9.24024E-01 1.00000E-45
9.26320E-01 1.00000E-45
9.28584E-01 1.00000E-45
9.30815E-01 1.00000E-45
9.33013E-01 1.00000E-45
9.35178E-01 1.00000E-45
9.37310E-01 1.00000E-45
9.39409E-01 1.00000E-45
9.41474E-01 1.00000E-45
9.43505E-01 1.00000E-45
9.45503E-01 1.00000E-45
9.47467E-01 1.00000E-45
9.49397E-01 1.00000E-45
9.51293E-01 1.00000E-45
9.53154E-01 1.00000E-45
9.54981E-01 1.00000E-45
9.56773E-01 1.00000E-45
9.58530E-01 1.00000E-45
9.60252E-01 1.00000E-45
9.61940E-01 1.00000E-45
9.63592E-01 1.00000E-45
9.65209E-01 1.00000E-45
9.66790E-01 1.00000E-45
9.68336E-01 1.00000E-45
9.69846E-01 1.00000E-45
9.71321E-01 1.00000E-45
9.72759E-01 1.00000E-45
9.74162E-01 1.00000E-45
9.75528E-01 1.00000E-45
9.76858E-01 1.00000E-45
9.78152E-01 1.00000E-45
9.79410E-01 1.00000E-45
9.80631E-01 1.00000E-45
9.81815E-01 1.00000E-45
9.82963E-01 1.00000E-45
9.84074E-01 1.00000E-45
9.85148E-01 1.00000E-45
9.86185E-01 1.00000E-45
9.87185E-01 1.00000E-45
9.88148E-01 1.00000E-45
9.89074E-01 1.00000E-45
9.89962E-01 1.00000E-45
9.90814E-01 1.00000E-45
9.91627E-01 1.00000E-45
9.92404E-01 1.00000E-45
9.93143E-01 1.00000E-45
9.93844E-01 1.00000E-45
9.94508E-01 1.00000E-45
9.95134E-01 1.00000E-45
9.95722E-01 1.00000E-45
9.96273E-01 1.00000E-45
9.96786E-01 1.00000E-45
9.97261E-01 1.00000E-45
9.97698E-01 1.00000E-45
9.98097E-01 1.00000E-45
9.98459E-01 1.00000E-45
9.98782E-01 1.00000E-45
9.99067E-01 1.00000E-45
9.99315E-01 1.00000E-45
9.99524E-01 1.00000E-45
9.99695E-01 1.00000E-45
9.99829E-01 1.00000E-45
9.99924E-01 1.00000E-45
9.99981E-01 1.00000E-45
1.00000E+00 1.00000E-45
