 #
 # Subroutine ELSEPA. Elastic scattering of electrons and positrons
 #                    by neutral atoms and positive ions
 #
 # Projectile: electron
 # Kinetic energy = 5.00000E+07 eV = 1.83747E+06 a.u.
 #
 # WARNING: High-energy factorization with free-atom DF screening.
 #          Absorption, polarization and exchange corrections are
 #          switched off.
 #          Phase shifts are calculated for the bare nucleus.
 #          Scattering amplitudes are not evaluated.
 #
 # Element:  Y,  Z =  39,  atomic weight = 8.89059E+01 g/mol
 #
 # Nuclear model: Fermi distribution
 #                Average radius = 4.77559E-13 cm
 #                Skin thickness = 5.46000E-14 cm
 #
 # Number of electrons = 39
 #
 # Total elastic cross section = 3.94140E-18 cm**2 = 1.40750E-01 a0**2
 # 1st transport cross section = 1.18697E-24 cm**2 = 4.23874E-08 a0**2
 # 2nd transport cross section = 3.47742E-24 cm**2 = 1.24181E-07 a0**2
 #
 #
 # Differential cross section:                       MU=(1-COS(THETA))/2
 #
 #  THETA        MU          DCS          DCS        Sherman      error
 #  (deg)                 (cm**2/sr)   (a0**2/sr)    function
 #----------------------------------------------------------------------
0.00000E+00 1.54298E-10
7.61557E-13 1.54112E-10
1.18994E-12 1.54007E-10
1.71346E-12 1.53879E-10
2.33225E-12 1.53729E-10
3.04617E-12 1.53556E-10
3.85530E-12 1.53359E-10
4.75964E-12 1.53141E-10
5.75917E-12 1.52900E-10
6.85391E-12 1.52636E-10
8.04379E-12 1.52351E-10
9.32893E-12 1.52043E-10
1.07092E-11 1.51714E-10
1.21847E-11 1.51363E-10
1.37554E-11 1.50992E-10
1.54213E-11 1.50599E-10
1.71823E-11 1.50185E-10
1.90386E-11 1.49751E-10
2.09900E-11 1.49297E-10
2.30367E-11 1.48823E-10
2.51785E-11 1.48329E-10
2.74156E-11 1.47816E-10
2.97478E-11 1.47285E-10
3.21752E-11 1.46734E-10
3.46979E-11 1.46166E-10
3.73157E-11 1.45579E-10
4.00286E-11 1.44976E-10
4.28368E-11 1.44355E-10
4.57402E-11 1.43717E-10
4.87388E-11 1.43063E-10
5.18325E-11 1.42393E-10
5.50215E-11 1.41707E-10
5.83057E-11 1.41007E-10
6.16850E-11 1.40291E-10
6.51595E-11 1.39562E-10
6.87293E-11 1.38818E-10
7.23943E-11 1.38061E-10
7.61544E-11 1.37291E-10
1.18991E-10 1.28985E-10
1.71347E-10 1.19853E-10
2.33223E-10 1.10320E-10
3.04617E-10 1.00749E-10
3.85531E-10 9.14345E-11
4.75965E-10 8.25933E-11
5.75917E-10 7.43683E-11
6.85389E-10 6.68382E-11
8.04380E-10 6.00358E-11
9.32891E-10 5.39504E-11
1.07092E-09 4.85381E-11
1.21847E-09 4.37473E-11
1.37554E-09 3.95188E-11
1.54213E-09 3.57918E-11
1.71823E-09 3.25071E-11
1.90386E-09 2.96092E-11
2.09900E-09 2.70479E-11
2.30367E-09 2.47786E-11
2.51785E-09 2.27619E-11
2.74156E-09 2.09638E-11
2.97478E-09 1.93550E-11
3.21752E-09 1.79098E-11
3.46978E-09 1.66068E-11
3.73156E-09 1.54280E-11
4.00286E-09 1.43581E-11
4.28368E-09 1.33838E-11
4.57402E-09 1.24940E-11
4.87388E-09 1.16792E-11
5.18326E-09 1.09311E-11
5.50215E-09 1.02427E-11
5.83057E-09 9.60782E-12
6.16850E-09 9.02120E-12
6.51596E-09 8.47822E-12
6.87293E-09 7.97463E-12
7.23942E-09 7.50659E-12
7.61544E-09 7.07159E-12
1.18991E-08 4.00476E-12
1.71347E-08 2.45382E-12
2.33223E-08 1.59434E-12
3.04617E-08 1.09068E-12
3.85531E-08 7.78016E-13
4.75965E-08 5.72964E-13
5.75917E-08 4.32019E-13
6.85389E-08 3.31507E-13
8.04380E-08 2.57712E-13
9.32891E-08 2.02509E-13
1.07092E-07 1.60773E-13
1.21847E-07 1.28854E-13
1.37554E-07 1.04206E-13
1.54213E-07 8.50070E-14
1.71823E-07 6.99312E-14
1.90386E-07 5.79994E-14
2.09900E-07 4.84848E-14
2.30367E-07 4.08368E-14
2.51785E-07 3.46343E-14
2.74156E-07 2.95754E-14
2.97478E-07 2.54193E-14
3.21752E-07 2.19791E-14
3.46978E-07 1.91116E-14
3.73156E-07 1.67049E-14
4.00286E-07 1.46715E-14
4.28368E-07 1.29429E-14
4.57402E-07 1.14651E-14
4.87388E-07 1.01950E-14
5.18325E-07 9.09818E-15
5.50215E-07 8.14666E-15
5.83057E-07 7.31763E-15
6.16850E-07 6.59236E-15
6.51596E-07 5.95535E-15
6.87293E-07 5.39368E-15
7.23942E-07 4.89660E-15
7.61543E-07 4.45540E-15
1.18991E-06 1.91898E-15
1.71347E-06 9.52389E-16
2.33223E-06 5.22805E-16
3.04617E-06 3.09937E-16
3.85531E-06 1.95202E-16
4.75964E-06 1.29025E-16
5.75916E-06 8.86942E-17
6.85388E-06 6.29839E-17
8.04378E-06 4.59624E-17
9.32888E-06 3.43265E-17
1.07092E-05 2.61530E-17
1.21846E-05 2.02748E-17
1.37553E-05 1.59592E-17
1.54212E-05 1.27329E-17
1.71822E-05 1.02820E-17
1.90385E-05 8.39198E-18
2.09899E-05 6.91906E-18
2.30365E-05 5.75511E-18
2.51783E-05 4.82535E-18
2.74153E-05 4.07546E-18
2.97475E-05 3.46546E-18
3.21749E-05 2.96535E-18
3.46974E-05 2.55231E-18
3.73152E-05 2.20882E-18
4.00281E-05 1.92128E-18
4.28362E-05 1.67907E-18
4.57395E-05 1.47383E-18
4.87380E-05 1.29897E-18
5.18317E-05 1.14925E-18
5.50205E-05 1.02045E-18
5.83045E-05 9.09181E-19
6.16838E-05 8.12676E-19
6.51582E-05 7.28651E-19
6.87277E-05 6.55223E-19
7.23925E-05 5.90824E-19
7.61524E-05 5.34237E-19
9.21439E-05 3.65425E-19
1.09658E-04 2.58329E-19
1.28695E-04 1.87767E-19
1.49255E-04 1.39735E-19
1.71338E-04 1.06136E-19
1.94942E-04 8.20593E-20
2.20070E-04 6.44431E-20
2.46720E-04 5.13141E-20
2.74892E-04 4.13667E-20
3.04586E-04 3.37196E-20
3.35803E-04 2.77620E-20
3.68542E-04 2.30654E-20
4.02802E-04 1.93223E-20
4.38585E-04 1.63094E-20
4.75889E-04 1.38623E-20
5.14715E-04 1.18580E-20
5.55063E-04 1.02037E-20
5.96931E-04 8.82847E-21
6.40321E-04 7.67766E-21
6.85233E-04 6.70870E-21
7.31665E-04 5.88811E-21
7.79618E-04 5.18946E-21
8.29092E-04 4.59159E-21
8.80086E-04 4.07755E-21
9.32601E-04 3.63360E-21
9.86636E-04 3.24857E-21
1.04219E-03 2.91332E-21
1.09927E-03 2.62031E-21
1.15786E-03 2.36329E-21
1.21797E-03 2.13709E-21
1.27961E-03 1.93738E-21
1.34276E-03 1.76052E-21
1.40743E-03 1.60342E-21
1.47362E-03 1.46350E-21
1.54133E-03 1.33856E-21
1.61056E-03 1.22669E-21
1.68131E-03 1.12630E-21
1.75357E-03 1.03600E-21
1.82735E-03 9.54592E-22
1.90265E-03 8.81042E-22
1.97947E-03 8.14461E-22
2.05780E-03 7.54069E-22
2.13765E-03 6.99184E-22
2.21902E-03 6.49216E-22
2.30190E-03 6.03646E-22
2.38630E-03 5.62015E-22
2.47222E-03 5.23920E-22
2.55965E-03 4.89009E-22
2.64859E-03 4.56965E-22
2.73905E-03 4.27510E-22
2.83103E-03 4.00397E-22
2.92452E-03 3.75406E-22
3.01952E-03 3.52340E-22
3.11604E-03 3.31022E-22
3.21407E-03 3.11299E-22
3.31362E-03 2.93026E-22
3.41468E-03 2.76077E-22
3.51725E-03 2.60341E-22
3.62133E-03 2.45713E-22
3.72692E-03 2.32100E-22
3.83403E-03 2.19420E-22
3.94265E-03 2.07598E-22
4.05278E-03 1.96561E-22
4.16442E-03 1.86252E-22
4.27757E-03 1.76611E-22
4.39223E-03 1.67587E-22
4.50840E-03 1.59135E-22
4.62608E-03 1.51210E-22
4.74527E-03 1.43773E-22
4.86597E-03 1.36789E-22
4.98817E-03 1.30226E-22
5.11188E-03 1.24052E-22
5.23711E-03 1.18241E-22
5.36383E-03 1.12767E-22
5.49207E-03 1.07607E-22
5.62181E-03 1.02739E-22
5.75306E-03 9.81447E-23
5.88581E-03 9.38045E-23
6.02007E-03 8.97024E-23
6.15583E-03 8.58224E-23
6.29310E-03 8.21504E-23
6.43187E-03 7.86732E-23
6.57214E-03 7.53785E-23
6.71392E-03 7.22548E-23
6.85720E-03 6.92916E-23
7.00198E-03 6.64790E-23
7.14827E-03 6.38081E-23
7.29605E-03 6.12702E-23
7.44534E-03 5.88574E-23
7.59612E-03 5.65626E-23
7.97965E-03 5.12970E-23
8.37255E-03 4.66311E-23
8.77480E-03 4.24845E-23
9.18641E-03 3.87894E-23
9.60736E-03 3.54879E-23
1.00376E-02 3.25306E-23
1.04773E-02 2.98753E-23
1.09262E-02 2.74856E-23
1.13844E-02 2.53302E-23
1.18520E-02 2.33820E-23
1.23288E-02 2.16176E-23
1.28150E-02 2.00165E-23
1.33104E-02 1.85608E-23
1.38150E-02 1.72350E-23
1.43290E-02 1.60253E-23
1.48521E-02 1.49198E-23
1.53845E-02 1.39078E-23
1.59262E-02 1.29801E-23
1.64770E-02 1.21282E-23
1.70371E-02 1.13450E-23
1.76063E-02 1.06237E-23
1.81848E-02 9.95876E-24
1.87724E-02 9.34482E-24
1.93692E-02 8.77729E-24
1.99751E-02 8.25202E-24
2.05901E-02 7.76528E-24
2.12143E-02 7.31374E-24
2.18476E-02 6.89437E-24
2.24900E-02 6.50446E-24
2.31415E-02 6.14157E-24
2.38021E-02 5.80347E-24
2.44717E-02 5.48816E-24
2.51504E-02 5.19383E-24
2.58382E-02 4.91881E-24
2.65349E-02 4.66161E-24
2.72407E-02 4.42086E-24
2.79555E-02 4.19531E-24
2.86793E-02 3.98383E-24
2.94120E-02 3.78538E-24
3.01537E-02 3.59901E-24
3.09043E-02 3.42384E-24
3.16639E-02 3.25908E-24
3.24324E-02 3.10400E-24
3.32098E-02 2.95792E-24
3.39961E-02 2.82022E-24
3.47912E-02 2.69033E-24
3.55952E-02 2.56774E-24
3.64081E-02 2.45195E-24
3.72297E-02 2.34252E-24
3.80602E-02 2.23903E-24
3.88995E-02 2.14110E-24
3.97476E-02 2.04838E-24
4.06044E-02 1.96054E-24
4.14700E-02 1.87728E-24
4.23443E-02 1.79831E-24
4.32273E-02 1.72337E-24
4.41190E-02 1.65222E-24
4.50194E-02 1.58464E-24
4.59284E-02 1.52040E-24
4.68461E-02 1.45932E-24
4.87074E-02 1.34589E-24
5.06030E-02 1.24304E-24
5.25328E-02 1.14961E-24
5.44967E-02 1.06459E-24
5.64946E-02 9.87085E-25
5.85262E-02 9.16324E-25
6.05914E-02 8.51619E-25
6.26901E-02 7.92363E-25
6.48222E-02 7.38019E-25
6.69873E-02 6.88110E-25
6.91854E-02 6.42214E-25
7.14163E-02 5.99953E-25
7.36799E-02 5.60990E-25
7.59760E-02 5.25025E-25
7.83043E-02 4.91788E-25
8.06647E-02 4.61039E-25
8.30571E-02 4.32559E-25
8.54812E-02 4.06154E-25
8.79369E-02 3.81647E-25
9.04240E-02 3.58879E-25
9.29422E-02 3.37707E-25
9.54915E-02 3.18000E-25
9.80716E-02 2.99641E-25
1.00682E-01 2.82522E-25
1.03323E-01 2.66546E-25
1.05995E-01 2.51625E-25
1.08696E-01 2.37677E-25
1.11427E-01 2.24629E-25
1.14188E-01 2.12414E-25
1.16978E-01 2.00971E-25
1.19797E-01 1.90242E-25
1.22645E-01 1.80176E-25
1.25522E-01 1.70726E-25
1.28428E-01 1.61849E-25
1.31361E-01 1.53504E-25
1.34323E-01 1.45654E-25
1.37313E-01 1.38266E-25
1.40330E-01 1.31309E-25
1.43375E-01 1.24753E-25
1.46447E-01 1.18572E-25
1.49545E-01 1.12741E-25
1.52671E-01 1.07238E-25
1.55823E-01 1.02041E-25
1.59001E-01 9.71316E-26
1.62205E-01 9.24906E-26
1.65435E-01 8.81015E-26
1.68690E-01 8.39487E-26
1.71970E-01 8.00177E-26
1.75276E-01 7.62950E-26
1.78606E-01 7.27681E-26
1.81961E-01 6.94251E-26
1.85340E-01 6.62552E-26
1.88743E-01 6.32482E-26
1.92169E-01 6.03947E-26
1.95619E-01 5.76856E-26
1.99092E-01 5.51128E-26
2.02589E-01 5.26685E-26
2.06107E-01 5.03454E-26
2.09649E-01 4.81367E-26
2.13212E-01 4.60361E-26
2.16797E-01 4.40377E-26
2.20404E-01 4.21357E-26
2.24032E-01 4.03250E-26
2.27680E-01 3.86006E-26
2.31350E-01 3.69580E-26
2.35040E-01 3.53928E-26
2.38751E-01 3.39008E-26
2.42481E-01 3.24783E-26
2.46231E-01 3.11216E-26
2.50000E-01 2.98273E-26
2.53788E-01 2.85923E-26
2.57595E-01 2.74135E-26
2.61421E-01 2.62880E-26
2.65264E-01 2.52132E-26
2.69126E-01 2.41865E-26
2.73005E-01 2.32055E-26
2.76901E-01 2.22680E-26
2.80814E-01 2.13718E-26
2.84744E-01 2.05150E-26
2.88691E-01 1.96955E-26
2.92653E-01 1.89117E-26
2.96632E-01 1.81617E-26
3.00625E-01 1.74441E-26
3.04634E-01 1.67571E-26
3.08658E-01 1.60995E-26
3.12697E-01 1.54698E-26
3.16749E-01 1.48667E-26
3.20816E-01 1.42890E-26
3.24896E-01 1.37355E-26
3.28990E-01 1.32051E-26
3.33097E-01 1.26968E-26
3.37216E-01 1.22094E-26
3.41348E-01 1.17422E-26
3.45492E-01 1.12942E-26
3.49647E-01 1.08645E-26
3.53814E-01 1.04523E-26
3.57992E-01 1.00568E-26
3.62181E-01 9.67738E-27
3.66381E-01 9.31320E-27
3.70590E-01 8.96366E-27
3.74810E-01 8.62809E-27
3.79039E-01 8.30591E-27
3.83277E-01 7.99653E-27
3.87524E-01 7.69940E-27
3.91780E-01 7.41400E-27
3.96044E-01 7.13983E-27
4.00316E-01 6.87641E-27
4.04596E-01 6.62329E-27
4.08882E-01 6.38004E-27
4.13176E-01 6.14623E-27
4.17476E-01 5.92148E-27
4.21783E-01 5.70541E-27
4.26095E-01 5.49765E-27
4.30413E-01 5.29788E-27
4.34737E-01 5.10575E-27
4.39065E-01 4.92095E-27
4.43398E-01 4.74320E-27
4.47736E-01 4.57218E-27
4.52077E-01 4.40765E-27
4.56422E-01 4.24933E-27
4.60770E-01 4.09697E-27
4.65122E-01 3.95034E-27
4.69476E-01 3.80920E-27
4.73832E-01 3.67333E-27
4.78190E-01 3.54254E-27
4.82550E-01 3.41660E-27
4.86912E-01 3.29535E-27
4.91274E-01 3.17858E-27
4.95637E-01 3.06612E-27
5.00000E-01 2.95781E-27
5.04363E-01 2.85349E-27
5.08726E-01 2.75299E-27
5.13088E-01 2.65617E-27
5.17450E-01 2.56288E-27
5.21810E-01 2.47300E-27
5.26168E-01 2.38639E-27
5.30524E-01 2.30292E-27
5.34878E-01 2.22248E-27
5.39230E-01 2.14495E-27
5.43578E-01 2.07021E-27
5.47923E-01 1.99817E-27
5.52264E-01 1.92871E-27
5.56602E-01 1.86175E-27
5.60935E-01 1.79719E-27
5.65263E-01 1.73493E-27
5.69587E-01 1.67490E-27
5.73905E-01 1.61700E-27
5.78217E-01 1.56116E-27
5.82524E-01 1.50731E-27
5.86824E-01 1.45536E-27
5.91118E-01 1.40526E-27
5.95404E-01 1.35692E-27
5.99684E-01 1.31028E-27
6.03956E-01 1.26529E-27
6.08220E-01 1.22188E-27
6.12476E-01 1.17999E-27
6.16723E-01 1.13957E-27
6.20961E-01 1.10057E-27
6.25190E-01 1.06293E-27
6.29410E-01 1.02660E-27
6.33619E-01 9.91530E-28
6.37819E-01 9.57684E-28
6.42008E-01 9.25014E-28
6.46186E-01 8.93476E-28
6.50353E-01 8.63031E-28
6.54508E-01 8.33638E-28
6.58652E-01 8.05260E-28
6.62784E-01 7.77861E-28
6.66903E-01 7.51405E-28
6.71010E-01 7.25860E-28
6.75104E-01 7.01191E-28
6.79184E-01 6.77369E-28
6.83251E-01 6.54363E-28
6.87303E-01 6.32143E-28
6.91342E-01 6.10684E-28
6.95366E-01 5.89956E-28
6.99375E-01 5.69935E-28
7.03368E-01 5.50596E-28
7.07347E-01 5.31914E-28
7.11309E-01 5.13867E-28
7.15256E-01 4.96432E-28
7.19186E-01 4.79588E-28
7.23099E-01 4.63313E-28
7.26995E-01 4.47589E-28
7.30874E-01 4.32396E-28
7.34736E-01 4.17716E-28
7.38579E-01 4.03530E-28
7.42405E-01 3.89821E-28
7.46212E-01 3.76573E-28
7.50000E-01 3.63771E-28
7.53769E-01 3.51397E-28
7.57519E-01 3.39439E-28
7.61249E-01 3.27880E-28
7.64960E-01 3.16709E-28
7.68650E-01 3.05910E-28
7.72320E-01 2.95472E-28
7.75968E-01 2.85382E-28
7.79596E-01 2.75628E-28
7.83203E-01 2.66198E-28
7.86788E-01 2.57082E-28
7.90351E-01 2.48269E-28
7.93893E-01 2.39749E-28
7.97411E-01 2.31510E-28
8.00908E-01 2.23545E-28
8.04381E-01 2.15843E-28
8.07831E-01 2.08396E-28
8.11257E-01 2.01195E-28
8.14660E-01 1.94232E-28
8.18039E-01 1.87498E-28
8.21394E-01 1.80986E-28
8.24724E-01 1.74689E-28
8.28030E-01 1.68599E-28
8.31310E-01 1.62709E-28
8.34565E-01 1.57012E-28
8.37795E-01 1.51503E-28
8.40999E-01 1.46174E-28
8.44177E-01 1.41020E-28
8.47329E-01 1.36035E-28
8.50455E-01 1.31213E-28
8.53553E-01 1.26549E-28
8.56625E-01 1.22038E-28
8.59670E-01 1.17674E-28
8.62687E-01 1.13452E-28
8.65677E-01 1.09368E-28
8.68639E-01 1.05418E-28
8.71572E-01 1.01596E-28
8.74478E-01 9.78996E-29
8.77355E-01 9.43233E-29
8.80203E-01 9.08636E-29
8.83022E-01 8.75167E-29
8.85812E-01 8.42788E-29
8.88573E-01 8.11464E-29
8.91304E-01 7.81160E-29
8.94005E-01 7.51844E-29
8.96677E-01 7.23483E-29
8.99318E-01 6.96046E-29
9.01928E-01 6.69503E-29
9.04508E-01 6.43826E-29
9.07058E-01 6.18987E-29
9.09576E-01 5.94957E-29
9.12063E-01 5.71713E-29
9.14519E-01 5.49228E-29
9.16943E-01 5.27478E-29
9.19335E-01 5.06440E-29
9.21696E-01 4.86091E-29
9.24024E-01 4.66409E-29
9.26320E-01 4.47374E-29
9.28584E-01 4.28965E-29
9.30815E-01 4.11162E-29
9.33013E-01 3.93947E-29
9.35178E-01 3.77301E-29
9.37310E-01 3.61206E-29
9.39409E-01 3.45646E-29
9.41474E-01 3.30604E-29
9.43505E-01 3.16064E-29
9.45503E-01 3.02011E-29
9.47467E-01 2.88430E-29
9.49397E-01 2.75307E-29
9.51293E-01 2.62628E-29
9.53154E-01 2.50380E-29
9.54981E-01 2.38550E-29
9.56773E-01 2.27126E-29
9.58530E-01 2.16096E-29
9.60252E-01 2.05448E-29
9.61940E-01 1.95172E-29
9.63592E-01 1.85256E-29
9.65209E-01 1.75691E-29
9.66790E-01 1.66467E-29
9.68336E-01 1.57574E-29
9.69846E-01 1.49003E-29
9.71321E-01 1.40746E-29
9.72759E-01 1.32793E-29
9.74162E-01 1.25137E-29
9.75528E-01 1.17770E-29
9.76858E-01 1.10684E-29
9.78152E-01 1.03873E-29
9.79410E-01 9.73282E-30
9.80631E-01 9.10444E-30
9.81815E-01 8.50149E-30
9.82963E-01 7.92334E-30
9.84074E-01 7.36942E-30
9.85148E-01 6.83917E-30
9.86185E-01 6.33205E-30
9.87185E-01 5.84755E-30
9.88148E-01 5.38519E-30
9.89074E-01 4.94449E-30
9.89962E-01 4.52502E-30
9.90814E-01 4.12636E-30
9.91627E-01 3.74811E-30
9.92404E-01 3.38988E-30
9.93143E-01 3.05133E-30
9.93844E-01 2.73210E-30
9.94508E-01 2.43190E-30
9.95134E-01 2.15040E-30
9.95722E-01 1.88734E-30
9.96273E-01 1.64245E-30
9.96786E-01 1.41550E-30
9.97261E-01 1.20624E-30
9.97698E-01 1.01448E-30
9.98097E-01 8.40025E-31
9.98459E-01 6.82702E-31
9.98782E-01 5.42355E-31
9.99067E-01 4.18844E-31
9.99315E-01 3.12048E-31
9.99524E-01 2.21860E-31
9.99695E-01 1.48191E-31
9.99829E-01 9.09688E-32
9.99924E-01 5.01361E-32
9.99981E-01 2.56526E-32
1.00000E+00 1.74940E-32
