 #
 # Subroutine ELSEPA. Elastic scattering of electrons and positrons
 #                    by neutral atoms and positive ions
 #
 # Projectile: electron
 # Kinetic energy = 4.50000E+06 eV = 1.65372E+05 a.u.
 #
 # WARNING: High-energy factorization with free-atom DF screening.
 #          Absorption, polarization and exchange corrections are
 #          switched off.
 #          Phase shifts are calculated for the bare nucleus.
 #          Scattering amplitudes are not evaluated.
 #
 # Element:  Y,  Z =  39,  atomic weight = 8.89059E+01 g/mol
 #
 # Nuclear model: Fermi distribution
 #                Average radius = 4.77559E-13 cm
 #                Skin thickness = 5.46000E-14 cm
 #
 # Number of electrons = 39
 #
 # Total elastic cross section = 3.98536E-18 cm**2 = 1.42320E-01 a0**2
 # 1st transport cross section = 9.53901E-23 cm**2 = 3.40644E-06 a0**2
 # 2nd transport cross section = 2.68138E-22 cm**2 = 9.57539E-06 a0**2
 #
 #
 # Differential cross section:                       MU=(1-COS(THETA))/2
 #
 #  THETA        MU          DCS          DCS        Sherman      error
 #  (deg)                 (cm**2/sr)   (a0**2/sr)    function
 #----------------------------------------------------------------------
0.00000E+00 1.51858E-12
7.61557E-13 1.51856E-12
1.18994E-12 1.51855E-12
1.71346E-12 1.51854E-12
2.33225E-12 1.51852E-12
3.04617E-12 1.51851E-12
3.85530E-12 1.51849E-12
4.75964E-12 1.51847E-12
5.75917E-12 1.51844E-12
6.85391E-12 1.51842E-12
8.04379E-12 1.51839E-12
9.32893E-12 1.51836E-12
1.07092E-11 1.51833E-12
1.21847E-11 1.51829E-12
1.37554E-11 1.51826E-12
1.54213E-11 1.51822E-12
1.71823E-11 1.51818E-12
1.90386E-11 1.51813E-12
2.09900E-11 1.51809E-12
2.30367E-11 1.51804E-12
2.51785E-11 1.51799E-12
2.74156E-11 1.51794E-12
2.97478E-11 1.51788E-12
3.21752E-11 1.51783E-12
3.46979E-11 1.51777E-12
3.73157E-11 1.51771E-12
4.00286E-11 1.51764E-12
4.28368E-11 1.51758E-12
4.57402E-11 1.51751E-12
4.87388E-11 1.51744E-12
5.18325E-11 1.51737E-12
5.50215E-11 1.51729E-12
5.83057E-11 1.51722E-12
6.16850E-11 1.51714E-12
6.51595E-11 1.51706E-12
6.87293E-11 1.51697E-12
7.23943E-11 1.51689E-12
7.61544E-11 1.51680E-12
1.18991E-10 1.51580E-12
1.71347E-10 1.51458E-12
2.33223E-10 1.51314E-12
3.04617E-10 1.51148E-12
3.85531E-10 1.50960E-12
4.75965E-10 1.50750E-12
5.75917E-10 1.50519E-12
6.85389E-10 1.50267E-12
8.04380E-10 1.49993E-12
9.32891E-10 1.49698E-12
1.07092E-09 1.49383E-12
1.21847E-09 1.49047E-12
1.37554E-09 1.48690E-12
1.54213E-09 1.48313E-12
1.71823E-09 1.47917E-12
1.90386E-09 1.47500E-12
2.09900E-09 1.47065E-12
2.30367E-09 1.46610E-12
2.51785E-09 1.46136E-12
2.74156E-09 1.45644E-12
2.97478E-09 1.45133E-12
3.21752E-09 1.44605E-12
3.46978E-09 1.44059E-12
3.73156E-09 1.43496E-12
4.00286E-09 1.42915E-12
4.28368E-09 1.42319E-12
4.57402E-09 1.41706E-12
4.87388E-09 1.41077E-12
5.18326E-09 1.40433E-12
5.50215E-09 1.39774E-12
5.83057E-09 1.39100E-12
6.16850E-09 1.38412E-12
6.51596E-09 1.37710E-12
6.87293E-09 1.36995E-12
7.23942E-09 1.36266E-12
7.61544E-09 1.35525E-12
1.18991E-08 1.27517E-12
1.71347E-08 1.18691E-12
2.33223E-08 1.09449E-12
3.04617E-08 1.00140E-12
3.85531E-08 9.10510E-13
4.75965E-08 8.23944E-13
5.75917E-08 7.43156E-13
6.85389E-08 6.69094E-13
8.04380E-08 6.01925E-13
9.32891E-08 5.41593E-13
1.07092E-07 4.87790E-13
1.21847E-07 4.40051E-13
1.37554E-07 3.97829E-13
1.54213E-07 3.60548E-13
1.71823E-07 3.27643E-13
1.90386E-07 2.98579E-13
2.09900E-07 2.72867E-13
2.30367E-07 2.50073E-13
2.51785E-07 2.29811E-13
2.74156E-07 2.11727E-13
2.97478E-07 1.95535E-13
3.21752E-07 1.80986E-13
3.46978E-07 1.67870E-13
3.73156E-07 1.56004E-13
4.00286E-07 1.45235E-13
4.28368E-07 1.35430E-13
4.57402E-07 1.26475E-13
4.87388E-07 1.18275E-13
5.18325E-07 1.10743E-13
5.50215E-07 1.03802E-13
5.83057E-07 9.74003E-14
6.16850E-07 9.14839E-14
6.51596E-07 8.60069E-14
6.87293E-07 8.09286E-14
7.23942E-07 7.62132E-14
7.61543E-07 7.18291E-14
1.18991E-06 4.08034E-14
1.71347E-06 2.50662E-14
2.33223E-06 1.63062E-14
3.04617E-06 1.11621E-14
3.85531E-06 7.96782E-15
4.75964E-06 5.87384E-15
5.75916E-06 4.43414E-15
6.85388E-06 3.40176E-15
8.04378E-06 2.64674E-15
9.32888E-06 2.08340E-15
1.07092E-05 1.65670E-15
1.21846E-05 1.32970E-15
1.37553E-05 1.07665E-15
1.54212E-05 8.79161E-16
1.71822E-05 7.23805E-16
1.90385E-05 6.00574E-16
2.09899E-05 5.02365E-16
2.30365E-05 4.23349E-16
2.51783E-05 3.59104E-16
2.74153E-05 3.06665E-16
2.97475E-05 2.63564E-16
3.21749E-05 2.27893E-16
3.46974E-05 1.98170E-16
3.73152E-05 1.73234E-16
4.00281E-05 1.52174E-16
4.28362E-05 1.34274E-16
4.57395E-05 1.18969E-16
4.87380E-05 1.05812E-16
5.18317E-05 9.44432E-17
5.50205E-05 8.45743E-17
5.83045E-05 7.59752E-17
6.16838E-05 6.84532E-17
6.51582E-05 6.18481E-17
6.87277E-05 5.60265E-17
7.23925E-05 5.08771E-17
7.61524E-05 4.63065E-17
9.21439E-05 3.24273E-17
1.09658E-04 2.33513E-17
1.28695E-04 1.72254E-17
1.49255E-04 1.29700E-17
1.71338E-04 9.94441E-18
1.94942E-04 7.74723E-18
2.20070E-04 6.12236E-18
2.46720E-04 4.90095E-18
2.74892E-04 3.96897E-18
3.04586E-04 3.24833E-18
3.35803E-04 2.68416E-18
3.68542E-04 2.23747E-18
4.02802E-04 1.88011E-18
4.38585E-04 1.59151E-18
4.75889E-04 1.35640E-18
5.14715E-04 1.16328E-18
5.55063E-04 1.00345E-18
5.96931E-04 8.70246E-19
6.40321E-04 7.58507E-19
6.85233E-04 6.64200E-19
7.31665E-04 5.84154E-19
7.79618E-04 5.15852E-19
8.29092E-04 4.57276E-19
8.80086E-04 4.06805E-19
9.32601E-04 3.63130E-19
9.86636E-04 3.25180E-19
1.04219E-03 2.92074E-19
1.09927E-03 2.63087E-19
1.15786E-03 2.37619E-19
1.21797E-03 2.15167E-19
1.27961E-03 1.95311E-19
1.34276E-03 1.77700E-19
1.40743E-03 1.62035E-19
1.47362E-03 1.48062E-19
1.54133E-03 1.35566E-19
1.61056E-03 1.24364E-19
1.68131E-03 1.14298E-19
1.75357E-03 1.05233E-19
1.82735E-03 9.70513E-20
1.90265E-03 8.96511E-20
1.97947E-03 8.29448E-20
2.05780E-03 7.68555E-20
2.13765E-03 7.13162E-20
2.21902E-03 6.62683E-20
2.30190E-03 6.16603E-20
2.38630E-03 5.74468E-20
2.47222E-03 5.35881E-20
2.55965E-03 5.00489E-20
2.64859E-03 4.67980E-20
2.73905E-03 4.38075E-20
2.83103E-03 4.10528E-20
2.92452E-03 3.85119E-20
3.01952E-03 3.61652E-20
3.11604E-03 3.39951E-20
3.21407E-03 3.19859E-20
3.31362E-03 3.01234E-20
3.41468E-03 2.83949E-20
3.51725E-03 2.67891E-20
3.62133E-03 2.52955E-20
3.72692E-03 2.39051E-20
3.83403E-03 2.26092E-20
3.94265E-03 2.14003E-20
4.05278E-03 2.02714E-20
4.16442E-03 1.92162E-20
4.27757E-03 1.82292E-20
4.39223E-03 1.73049E-20
4.50840E-03 1.64387E-20
4.62608E-03 1.56263E-20
4.74527E-03 1.48637E-20
4.86597E-03 1.41472E-20
4.98817E-03 1.34736E-20
5.11188E-03 1.28398E-20
5.23711E-03 1.22429E-20
5.36383E-03 1.16806E-20
5.49207E-03 1.11503E-20
5.62181E-03 1.06499E-20
5.75306E-03 1.01774E-20
5.88581E-03 9.73096E-21
6.02007E-03 9.30885E-21
6.15583E-03 8.90950E-21
6.29310E-03 8.53146E-21
6.43187E-03 8.17336E-21
6.57214E-03 7.83396E-21
6.71392E-03 7.51209E-21
6.85720E-03 7.20667E-21
7.00198E-03 6.91671E-21
7.14827E-03 6.64127E-21
7.29605E-03 6.37949E-21
7.44534E-03 6.13055E-21
7.59612E-03 5.89371E-21
7.97965E-03 5.35005E-21
8.37255E-03 4.86802E-21
8.77480E-03 4.43939E-21
9.18641E-03 4.05721E-21
9.60736E-03 3.71553E-21
1.00376E-02 3.40930E-21
1.04773E-02 3.13419E-21
1.09262E-02 2.88647E-21
1.13844E-02 2.66291E-21
1.18520E-02 2.46073E-21
1.23288E-02 2.27752E-21
1.28150E-02 2.11118E-21
1.33104E-02 1.95985E-21
1.38150E-02 1.82195E-21
1.43290E-02 1.69606E-21
1.48521E-02 1.58095E-21
1.53845E-02 1.47551E-21
1.59262E-02 1.37879E-21
1.64770E-02 1.28993E-21
1.70371E-02 1.20818E-21
1.76063E-02 1.13285E-21
1.81848E-02 1.06336E-21
1.87724E-02 9.99157E-22
1.93692E-02 9.39771E-22
1.99751E-02 8.84772E-22
2.05901E-02 8.33773E-22
2.12143E-02 7.86430E-22
2.18476E-02 7.42431E-22
2.24900E-02 7.01494E-22
2.31415E-02 6.63366E-22
2.38021E-02 6.27819E-22
2.44717E-02 5.94643E-22
2.51504E-02 5.63651E-22
2.58382E-02 5.34671E-22
2.65349E-02 5.07547E-22
2.72407E-02 4.82139E-22
2.79555E-02 4.58317E-22
2.86793E-02 4.35962E-22
2.94120E-02 4.14967E-22
3.01537E-02 3.95233E-22
3.09043E-02 3.76670E-22
3.16639E-02 3.59195E-22
3.24324E-02 3.42732E-22
3.32098E-02 3.27211E-22
3.39961E-02 3.12568E-22
3.47912E-02 2.98743E-22
3.55952E-02 2.85682E-22
3.64081E-02 2.73334E-22
3.72297E-02 2.61653E-22
3.80602E-02 2.50595E-22
3.88995E-02 2.40122E-22
3.97476E-02 2.30195E-22
4.06044E-02 2.20782E-22
4.14700E-02 2.11849E-22
4.23443E-02 2.03369E-22
4.32273E-02 1.95313E-22
4.41190E-02 1.87656E-22
4.50194E-02 1.80374E-22
4.59284E-02 1.73446E-22
4.68461E-02 1.66851E-22
4.87074E-02 1.54583E-22
5.06030E-02 1.43434E-22
5.25328E-02 1.33281E-22
5.44967E-02 1.24020E-22
5.64946E-02 1.15556E-22
5.85262E-02 1.07809E-22
6.05914E-02 1.00707E-22
6.26901E-02 9.41847E-23
6.48222E-02 8.81871E-23
6.69873E-02 8.26636E-23
6.91854E-02 7.75696E-23
7.14163E-02 7.28654E-23
7.36799E-02 6.85154E-23
7.59760E-02 6.44878E-23
7.83043E-02 6.07543E-23
8.06647E-02 5.72891E-23
8.30571E-02 5.40694E-23
8.54812E-02 5.10744E-23
8.79369E-02 4.82854E-23
9.04240E-02 4.56855E-23
9.29422E-02 4.32593E-23
9.54915E-02 4.09931E-23
9.80716E-02 3.88743E-23
1.00682E-01 3.68913E-23
1.03323E-01 3.50339E-23
1.05995E-01 3.32926E-23
1.08696E-01 3.16585E-23
1.11427E-01 3.01240E-23
1.14188E-01 2.86816E-23
1.16978E-01 2.73249E-23
1.19797E-01 2.60477E-23
1.22645E-01 2.48444E-23
1.25522E-01 2.37100E-23
1.28428E-01 2.26398E-23
1.31361E-01 2.16293E-23
1.34323E-01 2.06747E-23
1.37313E-01 1.97722E-23
1.40330E-01 1.89183E-23
1.43375E-01 1.81101E-23
1.46447E-01 1.73445E-23
1.49545E-01 1.66189E-23
1.52671E-01 1.59308E-23
1.55823E-01 1.52778E-23
1.59001E-01 1.46579E-23
1.62205E-01 1.40689E-23
1.65435E-01 1.35091E-23
1.68690E-01 1.29768E-23
1.71970E-01 1.24702E-23
1.75276E-01 1.19880E-23
1.78606E-01 1.15288E-23
1.81961E-01 1.10911E-23
1.85340E-01 1.06739E-23
1.88743E-01 1.02759E-23
1.92169E-01 9.89612E-24
1.95619E-01 9.53355E-24
1.99092E-01 9.18725E-24
2.02589E-01 8.85637E-24
2.06107E-01 8.54006E-24
2.09649E-01 8.23757E-24
2.13212E-01 7.94817E-24
2.16797E-01 7.67117E-24
2.20404E-01 7.40595E-24
2.24032E-01 7.15191E-24
2.27680E-01 6.90849E-24
2.31350E-01 6.67516E-24
2.35040E-01 6.45142E-24
2.38751E-01 6.23679E-24
2.42481E-01 6.03083E-24
2.46231E-01 5.83311E-24
2.50000E-01 5.64325E-24
2.53788E-01 5.46088E-24
2.57595E-01 5.28564E-24
2.61421E-01 5.11720E-24
2.65264E-01 4.95524E-24
2.69126E-01 4.79947E-24
2.73005E-01 4.64960E-24
2.76901E-01 4.50537E-24
2.80814E-01 4.36651E-24
2.84744E-01 4.23280E-24
2.88691E-01 4.10400E-24
2.92653E-01 3.97991E-24
2.96632E-01 3.86032E-24
3.00625E-01 3.74502E-24
3.04634E-01 3.63384E-24
3.08658E-01 3.52660E-24
3.12697E-01 3.42313E-24
3.16749E-01 3.32328E-24
3.20816E-01 3.22689E-24
3.24896E-01 3.13383E-24
3.28990E-01 3.04396E-24
3.33097E-01 2.95714E-24
3.37216E-01 2.87325E-24
3.41348E-01 2.79217E-24
3.45492E-01 2.71380E-24
3.49647E-01 2.63801E-24
3.53814E-01 2.56472E-24
3.57992E-01 2.49383E-24
3.62181E-01 2.42524E-24
3.66381E-01 2.35887E-24
3.70590E-01 2.29462E-24
3.74810E-01 2.23241E-24
3.79039E-01 2.17218E-24
3.83277E-01 2.11383E-24
3.87524E-01 2.05731E-24
3.91780E-01 2.00255E-24
3.96044E-01 1.94949E-24
4.00316E-01 1.89806E-24
4.04596E-01 1.84819E-24
4.08882E-01 1.79983E-24
4.13176E-01 1.75293E-24
4.17476E-01 1.70743E-24
4.21783E-01 1.66330E-24
4.26095E-01 1.62049E-24
4.30413E-01 1.57893E-24
4.34737E-01 1.53859E-24
4.39065E-01 1.49942E-24
4.43398E-01 1.46138E-24
4.47736E-01 1.42445E-24
4.52077E-01 1.38857E-24
4.56422E-01 1.35372E-24
4.60770E-01 1.31986E-24
4.65122E-01 1.28696E-24
4.69476E-01 1.25497E-24
4.73832E-01 1.22388E-24
4.78190E-01 1.19366E-24
4.82550E-01 1.16427E-24
4.86912E-01 1.13568E-24
4.91274E-01 1.10788E-24
4.95637E-01 1.08084E-24
5.00000E-01 1.05453E-24
5.04363E-01 1.02893E-24
5.08726E-01 1.00402E-24
5.13088E-01 9.79769E-25
5.17450E-01 9.56163E-25
5.21810E-01 9.33182E-25
5.26168E-01 9.10806E-25
5.30524E-01 8.89016E-25
5.34878E-01 8.67794E-25
5.39230E-01 8.47123E-25
5.43578E-01 8.26986E-25
5.47923E-01 8.07367E-25
5.52264E-01 7.88249E-25
5.56602E-01 7.69618E-25
5.60935E-01 7.51461E-25
5.65263E-01 7.33762E-25
5.69587E-01 7.16508E-25
5.73905E-01 6.99687E-25
5.78217E-01 6.83285E-25
5.82524E-01 6.67290E-25
5.86824E-01 6.51691E-25
5.91118E-01 6.36475E-25
5.95404E-01 6.21633E-25
5.99684E-01 6.07153E-25
6.03956E-01 5.93025E-25
6.08220E-01 5.79240E-25
6.12476E-01 5.65788E-25
6.16723E-01 5.52659E-25
6.20961E-01 5.39844E-25
6.25190E-01 5.27335E-25
6.29410E-01 5.15123E-25
6.33619E-01 5.03200E-25
6.37819E-01 4.91558E-25
6.42008E-01 4.80190E-25
6.46186E-01 4.69088E-25
6.50353E-01 4.58245E-25
6.54508E-01 4.47655E-25
6.58652E-01 4.37309E-25
6.62784E-01 4.27203E-25
6.66903E-01 4.17329E-25
6.71010E-01 4.07682E-25
6.75104E-01 3.98255E-25
6.79184E-01 3.89043E-25
6.83251E-01 3.80040E-25
6.87303E-01 3.71241E-25
6.91342E-01 3.62640E-25
6.95366E-01 3.54233E-25
6.99375E-01 3.46015E-25
7.03368E-01 3.37980E-25
7.07347E-01 3.30125E-25
7.11309E-01 3.22444E-25
7.15256E-01 3.14934E-25
7.19186E-01 3.07589E-25
7.23099E-01 3.00407E-25
7.26995E-01 2.93383E-25
7.30874E-01 2.86512E-25
7.34736E-01 2.79792E-25
7.38579E-01 2.73219E-25
7.42405E-01 2.66788E-25
7.46212E-01 2.60498E-25
7.50000E-01 2.54344E-25
7.53769E-01 2.48322E-25
7.57519E-01 2.42431E-25
7.61249E-01 2.36667E-25
7.64960E-01 2.31026E-25
7.68650E-01 2.25506E-25
7.72320E-01 2.20105E-25
7.75968E-01 2.14818E-25
7.79596E-01 2.09645E-25
7.83203E-01 2.04582E-25
7.86788E-01 1.99626E-25
7.90351E-01 1.94775E-25
7.93893E-01 1.90027E-25
7.97411E-01 1.85380E-25
8.00908E-01 1.80831E-25
8.04381E-01 1.76378E-25
8.07831E-01 1.72019E-25
8.11257E-01 1.67751E-25
8.14660E-01 1.63573E-25
8.18039E-01 1.59483E-25
8.21394E-01 1.55479E-25
8.24724E-01 1.51559E-25
8.28030E-01 1.47722E-25
8.31310E-01 1.43965E-25
8.34565E-01 1.40286E-25
8.37795E-01 1.36685E-25
8.40999E-01 1.33159E-25
8.44177E-01 1.29707E-25
8.47329E-01 1.26327E-25
8.50455E-01 1.23018E-25
8.53553E-01 1.19778E-25
8.56625E-01 1.16607E-25
8.59670E-01 1.13502E-25
8.62687E-01 1.10462E-25
8.65677E-01 1.07486E-25
8.68639E-01 1.04572E-25
8.71572E-01 1.01720E-25
8.74478E-01 9.89286E-26
8.77355E-01 9.61958E-26
8.80203E-01 9.35208E-26
8.83022E-01 9.09025E-26
8.85812E-01 8.83398E-26
8.88573E-01 8.58317E-26
8.91304E-01 8.33771E-26
8.94005E-01 8.09749E-26
8.96677E-01 7.86244E-26
8.99318E-01 7.63243E-26
9.01928E-01 7.40739E-26
9.04508E-01 7.18723E-26
9.07058E-01 6.97184E-26
9.09576E-01 6.76116E-26
9.12063E-01 6.55509E-26
9.14519E-01 6.35355E-26
9.16943E-01 6.15646E-26
9.19335E-01 5.96375E-26
9.21696E-01 5.77534E-26
9.24024E-01 5.59115E-26
9.26320E-01 5.41112E-26
9.28584E-01 5.23518E-26
9.30815E-01 5.06325E-26
9.33013E-01 4.89527E-26
9.35178E-01 4.73118E-26
9.37310E-01 4.57092E-26
9.39409E-01 4.41441E-26
9.41474E-01 4.26162E-26
9.43505E-01 4.11247E-26
9.45503E-01 3.96691E-26
9.47467E-01 3.82489E-26
9.49397E-01 3.68635E-26
9.51293E-01 3.55124E-26
9.53154E-01 3.41952E-26
9.54981E-01 3.29113E-26
9.56773E-01 3.16602E-26
9.58530E-01 3.04416E-26
9.60252E-01 2.92549E-26
9.61940E-01 2.80997E-26
9.63592E-01 2.69757E-26
9.65209E-01 2.58823E-26
9.66790E-01 2.48193E-26
9.68336E-01 2.37861E-26
9.69846E-01 2.27825E-26
9.71321E-01 2.18081E-26
9.72759E-01 2.08626E-26
9.74162E-01 1.99455E-26
9.75528E-01 1.90566E-26
9.76858E-01 1.81956E-26
9.78152E-01 1.73621E-26
9.79410E-01 1.65559E-26
9.80631E-01 1.57767E-26
9.81815E-01 1.50242E-26
9.82963E-01 1.42981E-26
9.84074E-01 1.35982E-26
9.85148E-01 1.29242E-26
9.86185E-01 1.22759E-26
9.87185E-01 1.16532E-26
9.88148E-01 1.10556E-26
9.89074E-01 1.04832E-26
9.89962E-01 9.93554E-27
9.90814E-01 9.41259E-27
9.91627E-01 8.91412E-27
9.92404E-01 8.43997E-27
9.93143E-01 7.98996E-27
9.93844E-01 7.56395E-27
9.94508E-01 7.16178E-27
9.95134E-01 6.78333E-27
9.95722E-01 6.42845E-27
9.96273E-01 6.09704E-27
9.96786E-01 5.78897E-27
9.97261E-01 5.50414E-27
9.97698E-01 5.24245E-27
9.98097E-01 5.00381E-27
9.98459E-01 4.78815E-27
9.98782E-01 4.59538E-27
9.99067E-01 4.42545E-27
9.99315E-01 4.27829E-27
9.99524E-01 4.15386E-27
9.99695E-01 4.05210E-27
9.99829E-01 3.97300E-27
9.99924E-01 3.91651E-27
9.99981E-01 3.88263E-27
1.00000E+00 3.87134E-27
