 #
 # Subroutine ELSEPA. Elastic scattering of electrons and positrons
 #                    by neutral atoms and positive ions
 #
 # Projectile: electron
 # Kinetic energy = 1.25000E+08 eV = 4.59367E+06 a.u.
 #
 # WARNING: High-energy factorization with free-atom DF screening.
 #          Absorption, polarization and exchange corrections are
 #          switched off.
 #          Phase shifts are calculated for the bare nucleus.
 #          Scattering amplitudes are not evaluated.
 #
 # Element:  Y,  Z =  39,  atomic weight = 8.89059E+01 g/mol
 #
 # Nuclear model: Fermi distribution
 #                Average radius = 4.77559E-13 cm
 #                Skin thickness = 5.46000E-14 cm
 #
 # Number of electrons = 39
 #
 # Total elastic cross section = 3.94086E-18 cm**2 = 1.40731E-01 a0**2
 # 1st transport cross section = 1.94378E-25 cm**2 = 6.94135E-09 a0**2
 # 2nd transport cross section = 5.79714E-25 cm**2 = 2.07020E-08 a0**2
 #
 #
 # Differential cross section:                       MU=(1-COS(THETA))/2
 #
 #  THETA        MU          DCS          DCS        Sherman      error
 #  (deg)                 (cm**2/sr)   (a0**2/sr)    function
 #----------------------------------------------------------------------
0.00000E+00 9.52692E-10
7.61557E-13 9.45630E-10
1.18994E-12 9.41697E-10
1.71346E-12 9.36925E-10
2.33225E-12 9.31333E-10
3.04617E-12 9.24945E-10
3.85530E-12 9.17787E-10
4.75964E-12 9.09888E-10
5.75917E-12 9.01279E-10
6.85391E-12 8.91995E-10
8.04379E-12 8.82070E-10
9.32893E-12 8.71542E-10
1.07092E-11 8.60451E-10
1.21847E-11 8.48836E-10
1.37554E-11 8.36738E-10
1.54213E-11 8.24225E-10
1.71823E-11 8.11320E-10
1.90386E-11 7.98030E-10
2.09900E-11 7.84394E-10
2.30367E-11 7.70472E-10
2.51785E-11 7.56407E-10
2.74156E-11 7.42111E-10
2.97478E-11 7.27619E-10
3.21752E-11 7.12968E-10
3.46979E-11 6.98334E-10
3.73157E-11 6.83650E-10
4.00286E-11 6.68903E-10
4.28368E-11 6.54121E-10
4.57402E-11 6.39422E-10
4.87388E-11 6.24874E-10
5.18325E-11 6.10370E-10
5.50215E-11 5.95932E-10
5.83057E-11 5.81588E-10
6.16850E-11 5.67586E-10
6.51595E-11 5.53706E-10
6.87293E-11 5.39965E-10
7.23943E-11 5.26379E-10
7.61544E-11 5.13124E-10
1.18991E-10 3.94399E-10
1.71347E-10 3.02564E-10
2.33223E-10 2.34520E-10
3.04617E-10 1.84851E-10
3.85531E-10 1.48286E-10
4.75965E-10 1.20930E-10
5.75917E-10 1.00021E-10
6.85389E-10 8.36806E-11
8.04380E-10 7.06657E-11
9.32891E-10 6.01273E-11
1.07092E-09 5.14651E-11
1.21847E-09 4.42879E-11
1.37554E-09 3.82941E-11
1.54213E-09 3.30934E-11
1.71823E-09 2.87003E-11
1.90386E-09 2.51146E-11
2.09900E-09 2.21612E-11
2.30367E-09 1.96654E-11
2.51785E-09 1.73469E-11
2.74156E-09 1.54056E-11
2.97478E-09 1.37685E-11
3.21752E-09 1.23787E-11
3.46978E-09 1.11163E-11
3.73156E-09 1.00145E-11
4.00286E-09 9.06631E-12
4.28368E-09 8.24605E-12
4.57402E-09 7.51503E-12
4.87388E-09 6.85235E-12
5.18326E-09 6.27252E-12
5.50215E-09 5.76302E-12
5.83057E-09 5.31281E-12
6.16850E-09 4.88920E-12
6.51596E-09 4.51361E-12
6.87293E-09 4.17941E-12
7.23942E-09 3.88106E-12
7.61544E-09 3.60205E-12
1.18991E-08 1.83291E-12
1.71347E-08 1.01278E-12
2.33223E-08 5.93474E-13
3.04617E-08 3.66079E-13
3.85531E-08 2.37195E-13
4.75965E-08 1.60465E-13
5.75917E-08 1.12721E-13
6.85389E-08 8.16985E-14
8.04380E-08 6.07669E-14
9.32891E-08 4.61924E-14
1.07092E-07 3.57633E-14
1.21847E-07 2.81262E-14
1.37554E-07 2.24191E-14
1.54213E-07 1.80689E-14
1.71823E-07 1.47326E-14
1.90386E-07 1.21194E-14
2.09900E-07 1.00651E-14
2.30367E-07 8.41536E-15
2.51785E-07 7.09271E-15
2.74156E-07 6.01608E-15
2.97478E-07 5.13556E-15
3.21752E-07 4.40964E-15
3.46978E-07 3.80635E-15
3.73156E-07 3.30323E-15
4.00286E-07 2.87944E-15
4.28368E-07 2.52183E-15
4.57402E-07 2.21775E-15
4.87388E-07 1.95820E-15
5.18325E-07 1.73556E-15
5.50215E-07 1.54360E-15
5.83057E-07 1.37759E-15
6.16850E-07 1.23321E-15
6.51596E-07 1.10737E-15
6.87293E-07 9.97161E-16
7.23942E-07 9.00364E-16
7.61543E-07 8.15067E-16
1.18991E-06 3.38764E-16
1.71347E-06 1.65153E-16
2.33223E-06 8.98606E-17
3.04617E-06 5.29830E-17
3.85531E-06 3.32197E-17
4.75964E-06 2.18657E-17
5.75916E-06 1.49711E-17
6.85388E-06 1.05906E-17
8.04378E-06 7.70048E-18
9.32888E-06 5.73190E-18
1.07092E-05 4.35382E-18
1.21846E-05 3.36596E-18
1.37553E-05 2.64297E-18
1.54212E-05 2.10404E-18
1.71822E-05 1.69572E-18
1.90385E-05 1.38160E-18
2.09899E-05 1.13736E-18
2.30365E-05 9.44730E-19
2.51783E-05 7.91137E-19
2.74153E-05 6.67468E-19
2.97475E-05 5.67016E-19
3.21749E-05 4.84769E-19
3.46974E-05 4.16924E-19
3.73152E-05 3.60566E-19
4.00281E-05 3.13434E-19
4.28362E-05 2.73767E-19
4.57395E-05 2.40182E-19
4.87380E-05 2.11590E-19
5.18317E-05 1.87124E-19
5.50205E-05 1.66091E-19
5.83045E-05 1.47931E-19
6.16838E-05 1.32187E-19
6.51582E-05 1.18487E-19
6.87277E-05 1.06519E-19
7.23925E-05 9.60271E-20
7.61524E-05 8.68433E-20
9.21439E-05 5.93617E-20
1.09658E-04 4.19436E-20
1.28695E-04 3.04754E-20
1.49255E-04 2.26729E-20
1.71338E-04 1.72173E-20
1.94942E-04 1.33089E-20
2.20070E-04 1.04501E-20
2.46720E-04 8.31981E-21
2.74892E-04 6.70601E-21
3.04586E-04 5.46558E-21
3.35803E-04 4.49931E-21
3.68542E-04 3.73763E-21
4.02802E-04 3.13063E-21
4.38585E-04 2.64209E-21
4.75889E-04 2.24532E-21
5.14715E-04 1.92035E-21
5.55063E-04 1.65216E-21
5.96931E-04 1.42922E-21
6.40321E-04 1.24268E-21
6.85233E-04 1.08562E-21
7.31665E-04 9.52618E-22
7.79618E-04 8.39388E-22
8.29092E-04 7.42500E-22
8.80086E-04 6.59203E-22
9.32601E-04 5.87271E-22
9.86636E-04 5.24889E-22
1.04219E-03 4.70576E-22
1.09927E-03 4.23110E-22
1.15786E-03 3.81481E-22
1.21797E-03 3.44847E-22
1.27961E-03 3.12506E-22
1.34276E-03 2.83868E-22
1.40743E-03 2.58435E-22
1.47362E-03 2.35786E-22
1.54133E-03 2.15563E-22
1.61056E-03 1.97460E-22
1.68131E-03 1.81216E-22
1.75357E-03 1.66607E-22
1.82735E-03 1.53439E-22
1.90265E-03 1.41545E-22
1.97947E-03 1.30779E-22
2.05780E-03 1.21015E-22
2.13765E-03 1.12145E-22
2.21902E-03 1.04070E-22
2.30190E-03 9.67073E-23
2.38630E-03 8.99827E-23
2.47222E-03 8.38308E-23
2.55965E-03 7.81943E-23
2.64859E-03 7.30219E-23
2.73905E-03 6.82688E-23
2.83103E-03 6.38947E-23
2.92452E-03 5.98639E-23
3.01952E-03 5.61446E-23
3.11604E-03 5.27085E-23
3.21407E-03 4.95299E-23
3.31362E-03 4.65862E-23
3.41468E-03 4.38567E-23
3.51725E-03 4.13232E-23
3.62133E-03 3.89688E-23
3.72692E-03 3.67787E-23
3.83403E-03 3.47394E-23
3.94265E-03 3.28384E-23
4.05278E-03 3.10648E-23
4.16442E-03 2.94084E-23
4.27757E-03 2.78601E-23
4.39223E-03 2.64116E-23
4.50840E-03 2.50551E-23
4.62608E-03 2.37839E-23
4.74527E-03 2.25915E-23
4.86597E-03 2.14723E-23
4.98817E-03 2.04207E-23
5.11188E-03 1.94322E-23
5.23711E-03 1.85020E-23
5.36383E-03 1.76263E-23
5.49207E-03 1.68012E-23
5.62181E-03 1.60232E-23
5.75306E-03 1.52892E-23
5.88581E-03 1.45962E-23
6.02007E-03 1.39415E-23
6.15583E-03 1.33227E-23
6.29310E-03 1.27373E-23
6.43187E-03 1.21832E-23
6.57214E-03 1.16586E-23
6.71392E-03 1.11614E-23
6.85720E-03 1.06900E-23
7.00198E-03 1.02429E-23
7.14827E-03 9.81853E-24
7.29605E-03 9.41554E-24
7.44534E-03 9.03265E-24
7.59612E-03 8.66869E-24
7.97965E-03 7.83448E-24
8.37255E-03 7.09647E-24
8.77480E-03 6.44172E-24
9.18641E-03 5.85926E-24
9.60736E-03 5.33977E-24
1.00376E-02 4.87532E-24
1.04773E-02 4.45909E-24
1.09262E-02 4.08524E-24
1.13844E-02 3.74874E-24
1.18520E-02 3.44524E-24
1.23288E-02 3.17095E-24
1.28150E-02 2.92261E-24
1.33104E-02 2.69734E-24
1.38150E-02 2.49266E-24
1.43290E-02 2.30636E-24
1.48521E-02 2.13653E-24
1.53845E-02 1.98147E-24
1.59262E-02 1.83968E-24
1.64770E-02 1.70985E-24
1.70371E-02 1.59079E-24
1.76063E-02 1.48148E-24
1.81848E-02 1.38098E-24
1.87724E-02 1.28847E-24
1.93692E-02 1.20321E-24
1.99751E-02 1.12455E-24
2.05901E-02 1.05188E-24
2.12143E-02 9.84686E-25
2.18476E-02 9.22485E-25
2.24900E-02 8.64849E-25
2.31415E-02 8.11390E-25
2.38021E-02 7.61757E-25
2.44717E-02 7.15636E-25
2.51504E-02 6.72739E-25
2.58382E-02 6.32806E-25
2.65349E-02 5.95601E-25
2.72407E-02 5.60910E-25
2.79555E-02 5.28537E-25
2.86793E-02 4.98305E-25
2.94120E-02 4.70050E-25
3.01537E-02 4.43624E-25
3.09043E-02 4.18892E-25
3.16639E-02 3.95729E-25
3.24324E-02 3.74021E-25
3.32098E-02 3.53664E-25
3.39961E-02 3.34561E-25
3.47912E-02 3.16625E-25
3.55952E-02 2.99774E-25
3.64081E-02 2.83934E-25
3.72297E-02 2.69035E-25
3.80602E-02 2.55014E-25
3.88995E-02 2.41812E-25
3.97476E-02 2.29375E-25
4.06044E-02 2.17652E-25
4.14700E-02 2.06598E-25
4.23443E-02 1.96169E-25
4.32273E-02 1.86325E-25
4.41190E-02 1.77030E-25
4.50194E-02 1.68248E-25
4.59284E-02 1.59948E-25
4.68461E-02 1.52100E-25
4.87074E-02 1.37652E-25
5.06030E-02 1.24704E-25
5.25328E-02 1.13083E-25
5.44967E-02 1.02639E-25
5.64946E-02 9.32396E-26
5.85262E-02 8.47696E-26
6.05914E-02 7.71278E-26
6.26901E-02 7.02252E-26
6.48222E-02 6.39835E-26
6.69873E-02 5.83336E-26
6.91854E-02 5.32142E-26
7.14163E-02 4.85711E-26
7.36799E-02 4.43563E-26
7.59760E-02 4.05270E-26
7.83043E-02 3.70452E-26
8.06647E-02 3.38769E-26
8.30571E-02 3.09917E-26
8.54812E-02 2.83626E-26
8.79369E-02 2.59653E-26
9.04240E-02 2.37780E-26
9.29422E-02 2.17812E-26
9.54915E-02 1.99573E-26
9.80716E-02 1.82904E-26
1.00682E-01 1.67663E-26
1.03323E-01 1.53721E-26
1.05995E-01 1.40962E-26
1.08696E-01 1.29281E-26
1.11427E-01 1.18583E-26
1.14188E-01 1.08782E-26
1.16978E-01 9.97996E-27
1.19797E-01 9.15652E-27
1.22645E-01 8.40144E-27
1.25522E-01 7.70887E-27
1.28428E-01 7.07348E-27
1.31361E-01 6.49045E-27
1.34323E-01 5.95536E-27
1.37313E-01 5.46418E-27
1.40330E-01 5.01325E-27
1.43375E-01 4.59922E-27
1.46447E-01 4.21903E-27
1.49545E-01 3.86988E-27
1.52671E-01 3.54922E-27
1.55823E-01 3.25472E-27
1.59001E-01 2.98423E-27
1.62205E-01 2.73579E-27
1.65435E-01 2.50760E-27
1.68690E-01 2.29802E-27
1.71970E-01 2.10555E-27
1.75276E-01 1.92879E-27
1.78606E-01 1.76647E-27
1.81961E-01 1.61744E-27
1.85340E-01 1.48061E-27
1.88743E-01 1.35501E-27
1.92169E-01 1.23972E-27
1.95619E-01 1.13393E-27
1.99092E-01 1.03686E-27
2.02589E-01 9.47813E-28
2.06107E-01 8.66145E-28
2.09649E-01 7.91260E-28
2.13212E-01 7.22612E-28
2.16797E-01 6.59697E-28
2.20404E-01 6.02054E-28
2.24032E-01 5.49255E-28
2.27680E-01 5.00909E-28
2.31350E-01 4.56656E-28
2.35040E-01 4.16162E-28
2.38751E-01 3.79121E-28
2.42481E-01 3.45253E-28
2.46231E-01 3.14298E-28
2.50000E-01 2.86016E-28
2.53788E-01 2.60189E-28
2.57595E-01 2.36615E-28
2.61421E-01 2.15106E-28
2.65264E-01 1.95492E-28
2.69126E-01 1.77614E-28
2.73005E-01 1.61328E-28
2.76901E-01 1.46501E-28
2.80814E-01 1.33008E-28
2.84744E-01 1.20737E-28
2.88691E-01 1.09585E-28
2.92653E-01 9.94559E-29
2.96632E-01 9.02613E-29
3.00625E-01 8.19208E-29
3.04634E-01 7.43604E-29
3.08658E-01 6.75118E-29
3.12697E-01 6.13125E-29
3.16749E-01 5.57051E-29
3.20816E-01 5.06370E-29
3.24896E-01 4.60598E-29
3.28990E-01 4.19292E-29
3.33097E-01 3.82047E-29
3.37216E-01 3.48489E-29
3.41348E-01 3.18280E-29
3.45492E-01 2.91106E-29
3.49647E-01 2.66683E-29
3.53814E-01 2.44751E-29
3.57992E-01 2.25071E-29
3.62181E-01 2.07426E-29
3.66381E-01 1.91617E-29
3.70590E-01 1.77463E-29
3.74810E-01 1.64800E-29
3.79039E-01 1.53477E-29
3.83277E-01 1.43358E-29
3.87524E-01 1.34319E-29
3.91780E-01 1.26247E-29
3.96044E-01 1.19039E-29
4.00316E-01 1.12603E-29
4.04596E-01 1.06855E-29
4.08882E-01 1.01718E-29
4.13176E-01 9.71251E-30
4.17476E-01 9.30129E-30
4.21783E-01 8.93260E-30
4.26095E-01 8.60142E-30
4.30413E-01 8.30323E-30
4.34737E-01 8.03398E-30
4.39065E-01 7.79006E-30
4.43398E-01 7.56820E-30
4.47736E-01 7.36553E-30
4.52077E-01 7.17947E-30
4.56422E-01 7.00773E-30
4.60770E-01 6.84828E-30
4.65122E-01 6.69934E-30
4.69476E-01 6.55933E-30
4.73832E-01 6.42687E-30
4.78190E-01 6.30075E-30
4.82550E-01 6.17991E-30
4.86912E-01 6.06345E-30
4.91274E-01 5.95057E-30
4.95637E-01 5.84060E-30
5.00000E-01 5.73296E-30
5.04363E-01 5.62718E-30
5.08726E-01 5.52285E-30
5.13088E-01 5.41963E-30
5.17450E-01 5.31725E-30
5.21810E-01 5.21549E-30
5.26168E-01 5.11419E-30
5.30524E-01 5.01322E-30
5.34878E-01 4.91249E-30
5.39230E-01 4.81193E-30
5.43578E-01 4.71152E-30
5.47923E-01 4.61126E-30
5.52264E-01 4.51114E-30
5.56602E-01 4.41120E-30
5.60935E-01 4.31147E-30
5.65263E-01 4.21202E-30
5.69587E-01 4.11290E-30
5.73905E-01 4.01418E-30
5.78217E-01 3.91593E-30
5.82524E-01 3.81822E-30
5.86824E-01 3.72113E-30
5.91118E-01 3.62475E-30
5.95404E-01 3.52915E-30
5.99684E-01 3.43441E-30
6.03956E-01 3.34060E-30
6.08220E-01 3.24780E-30
6.12476E-01 3.15608E-30
6.16723E-01 3.06551E-30
6.20961E-01 2.97614E-30
6.25190E-01 2.88805E-30
6.29410E-01 2.80128E-30
6.33619E-01 2.71589E-30
6.37819E-01 2.63193E-30
6.42008E-01 2.54943E-30
6.46186E-01 2.46844E-30
6.50353E-01 2.38900E-30
6.54508E-01 2.31112E-30
6.58652E-01 2.23485E-30
6.62784E-01 2.16020E-30
6.66903E-01 2.08718E-30
6.71010E-01 2.01582E-30
6.75104E-01 1.94612E-30
6.79184E-01 1.87810E-30
6.83251E-01 1.81175E-30
6.87303E-01 1.74707E-30
6.91342E-01 1.68407E-30
6.95366E-01 1.62273E-30
6.99375E-01 1.56305E-30
7.03368E-01 1.50503E-30
7.07347E-01 1.44864E-30
7.11309E-01 1.39387E-30
7.15256E-01 1.34070E-30
7.19186E-01 1.28912E-30
7.23099E-01 1.23910E-30
7.26995E-01 1.19063E-30
7.30874E-01 1.14367E-30
7.34736E-01 1.09821E-30
7.38579E-01 1.05422E-30
7.42405E-01 1.01166E-30
7.46212E-01 9.70524E-31
7.50000E-01 9.30769E-31
7.53769E-01 8.92370E-31
7.57519E-01 8.55297E-31
7.61249E-01 8.19519E-31
7.64960E-01 7.85007E-31
7.68650E-01 7.51729E-31
7.72320E-01 7.19655E-31
7.75968E-01 6.88753E-31
7.79596E-01 6.58993E-31
7.83203E-01 6.30344E-31
7.86788E-01 6.02774E-31
7.90351E-01 5.76254E-31
7.93893E-01 5.50752E-31
7.97411E-01 5.26239E-31
8.00908E-01 5.02685E-31
8.04381E-01 4.80060E-31
8.07831E-01 4.58335E-31
8.11257E-01 4.37482E-31
8.14660E-01 4.17472E-31
8.18039E-01 3.98277E-31
8.21394E-01 3.79871E-31
8.24724E-01 3.62226E-31
8.28030E-01 3.45317E-31
8.31310E-01 3.29117E-31
8.34565E-01 3.13602E-31
8.37795E-01 2.98748E-31
8.40999E-01 2.84529E-31
8.44177E-01 2.70924E-31
8.47329E-01 2.57909E-31
8.50455E-01 2.45463E-31
8.53553E-01 2.33563E-31
8.56625E-01 2.22189E-31
8.59670E-01 2.11321E-31
8.62687E-01 2.00938E-31
8.65677E-01 1.91023E-31
8.68639E-01 1.81555E-31
8.71572E-01 1.72518E-31
8.74478E-01 1.63893E-31
8.77355E-01 1.55665E-31
8.80203E-01 1.47816E-31
8.83022E-01 1.40331E-31
8.85812E-01 1.33195E-31
8.88573E-01 1.26393E-31
8.91304E-01 1.19910E-31
8.94005E-01 1.13734E-31
8.96677E-01 1.07851E-31
8.99318E-01 1.02248E-31
9.01928E-01 9.69137E-32
9.04508E-01 9.18353E-32
9.07058E-01 8.70019E-32
9.09576E-01 8.24026E-32
9.12063E-01 7.80268E-32
9.14519E-01 7.38646E-32
9.16943E-01 6.99062E-32
9.19335E-01 6.61424E-32
9.21696E-01 6.25643E-32
9.24024E-01 5.91632E-32
9.26320E-01 5.59310E-32
9.28584E-01 5.28599E-32
9.30815E-01 4.99423E-32
9.33013E-01 4.71710E-32
9.35178E-01 4.45392E-32
9.37310E-01 4.20400E-32
9.39409E-01 3.96674E-32
9.41474E-01 3.74152E-32
9.43505E-01 3.52776E-32
9.45503E-01 3.32491E-32
9.47467E-01 3.13244E-32
9.49397E-01 2.94986E-32
9.51293E-01 2.77667E-32
9.53154E-01 2.61242E-32
9.54981E-01 2.45667E-32
9.56773E-01 2.30901E-32
9.58530E-01 2.16903E-32
9.60252E-01 2.03636E-32
9.61940E-01 1.91063E-32
9.63592E-01 1.79151E-32
9.65209E-01 1.67866E-32
9.66790E-01 1.57177E-32
9.68336E-01 1.47055E-32
9.69846E-01 1.37471E-32
9.71321E-01 1.28398E-32
9.72759E-01 1.19812E-32
9.74162E-01 1.11688E-32
9.75528E-01 1.04004E-32
9.76858E-01 9.67365E-33
9.78152E-01 8.98660E-33
9.79410E-01 8.33728E-33
9.80631E-01 7.72384E-33
9.81815E-01 7.14453E-33
9.82963E-01 6.59769E-33
9.84074E-01 6.08174E-33
9.85148E-01 5.59522E-33
9.86185E-01 5.13672E-33
9.87185E-01 4.70491E-33
9.88148E-01 4.29856E-33
9.89074E-01 3.91650E-33
9.89962E-01 3.55761E-33
9.90814E-01 3.22087E-33
9.91627E-01 2.90529E-33
9.92404E-01 2.60997E-33
9.93143E-01 2.33406E-33
9.93844E-01 2.07674E-33
9.94508E-01 1.83729E-33
9.95134E-01 1.61500E-33
9.95722E-01 1.40923E-33
9.96273E-01 1.21939E-33
9.96786E-01 1.04492E-33
9.97261E-01 8.85329E-34
9.97698E-01 7.40147E-34
9.98097E-01 6.08953E-34
9.98459E-01 4.91371E-34
9.98782E-01 3.87060E-34
9.99067E-01 2.95719E-34
9.99315E-01 2.17083E-34
9.99524E-01 1.50925E-34
9.99695E-01 9.70545E-35
9.99829E-01 5.53153E-35
9.99924E-01 2.55878E-35
9.99981E-01 7.78526E-36
1.00000E+00 1.85749E-36
