 #
 # Subroutine ELSEPA. Elastic scattering of electrons and positrons
 #                    by neutral atoms and positive ions
 #
 # Projectile: electron
 # Kinetic energy = 4.00000E+06 eV = 1.46997E+05 a.u.
 #
 # WARNING: High-energy factorization with free-atom DF screening.
 #          Absorption, polarization and exchange corrections are
 #          switched off.
 #          Phase shifts are calculated for the bare nucleus.
 #          Scattering amplitudes are not evaluated.
 #
 # Element:  Y,  Z =  39,  atomic weight = 8.89059E+01 g/mol
 #
 # Nuclear model: Fermi distribution
 #                Average radius = 4.77559E-13 cm
 #                Skin thickness = 5.46000E-14 cm
 #
 # Number of electrons = 39
 #
 # Total elastic cross section = 3.99684E-18 cm**2 = 1.42730E-01 a0**2
 # 1st transport cross section = 1.16215E-22 cm**2 = 4.15010E-06 a0**2
 # 2nd transport cross section = 3.26201E-22 cm**2 = 1.16489E-05 a0**2
 #
 #
 # Differential cross section:                       MU=(1-COS(THETA))/2
 #
 #  THETA        MU          DCS          DCS        Sherman      error
 #  (deg)                 (cm**2/sr)   (a0**2/sr)    function
 #----------------------------------------------------------------------
0.00000E+00 1.23065E-12
7.61557E-13 1.23064E-12
1.18994E-12 1.23063E-12
1.71346E-12 1.23062E-12
2.33225E-12 1.23061E-12
3.04617E-12 1.23060E-12
3.85530E-12 1.23059E-12
4.75964E-12 1.23058E-12
5.75917E-12 1.23056E-12
6.85391E-12 1.23054E-12
8.04379E-12 1.23053E-12
9.32893E-12 1.23051E-12
1.07092E-11 1.23049E-12
1.21847E-11 1.23046E-12
1.37554E-11 1.23044E-12
1.54213E-11 1.23041E-12
1.71823E-11 1.23039E-12
1.90386E-11 1.23036E-12
2.09900E-11 1.23033E-12
2.30367E-11 1.23030E-12
2.51785E-11 1.23026E-12
2.74156E-11 1.23023E-12
2.97478E-11 1.23019E-12
3.21752E-11 1.23016E-12
3.46979E-11 1.23012E-12
3.73157E-11 1.23008E-12
4.00286E-11 1.23004E-12
4.28368E-11 1.22999E-12
4.57402E-11 1.22995E-12
4.87388E-11 1.22990E-12
5.18325E-11 1.22986E-12
5.50215E-11 1.22981E-12
5.83057E-11 1.22976E-12
6.16850E-11 1.22970E-12
6.51595E-11 1.22965E-12
6.87293E-11 1.22960E-12
7.23943E-11 1.22954E-12
7.61544E-11 1.22948E-12
1.18991E-10 1.22883E-12
1.71347E-10 1.22803E-12
2.33223E-10 1.22708E-12
3.04617E-10 1.22599E-12
3.85531E-10 1.22476E-12
4.75965E-10 1.22339E-12
5.75917E-10 1.22187E-12
6.85389E-10 1.22021E-12
8.04380E-10 1.21841E-12
9.32891E-10 1.21647E-12
1.07092E-09 1.21440E-12
1.21847E-09 1.21218E-12
1.37554E-09 1.20983E-12
1.54213E-09 1.20735E-12
1.71823E-09 1.20473E-12
1.90386E-09 1.20198E-12
2.09900E-09 1.19910E-12
2.30367E-09 1.19609E-12
2.51785E-09 1.19296E-12
2.74156E-09 1.18969E-12
2.97478E-09 1.18631E-12
3.21752E-09 1.18280E-12
3.46978E-09 1.17917E-12
3.73156E-09 1.17542E-12
4.00286E-09 1.17155E-12
4.28368E-09 1.16757E-12
4.57402E-09 1.16348E-12
4.87388E-09 1.15927E-12
5.18326E-09 1.15496E-12
5.50215E-09 1.15054E-12
5.83057E-09 1.14601E-12
6.16850E-09 1.14138E-12
6.51596E-09 1.13665E-12
6.87293E-09 1.13183E-12
7.23942E-09 1.12691E-12
7.61544E-09 1.12189E-12
1.18991E-08 1.06715E-12
1.71347E-08 1.00571E-12
2.33223E-08 9.40060E-13
3.04617E-08 8.72398E-13
3.85531E-08 8.04682E-13
4.75965E-08 7.38520E-13
5.75917E-08 6.75169E-13
6.85389E-08 6.15718E-13
8.04380E-08 5.60461E-13
9.32891E-08 5.09652E-13
1.07092E-07 4.63335E-13
1.21847E-07 4.21404E-13
1.37554E-07 3.83745E-13
1.54213E-07 3.49992E-13
1.71823E-07 3.19752E-13
1.90386E-07 2.92698E-13
2.09900E-07 2.68507E-13
2.30367E-07 2.46881E-13
2.51785E-07 2.27552E-13
2.74156E-07 2.10199E-13
2.97478E-07 1.94592E-13
3.21752E-07 1.80527E-13
3.46978E-07 1.67821E-13
3.73156E-07 1.56312E-13
4.00286E-07 1.45850E-13
4.28368E-07 1.36316E-13
4.57402E-07 1.27606E-13
4.87388E-07 1.19630E-13
5.18325E-07 1.12302E-13
5.50215E-07 1.05542E-13
5.83057E-07 9.93050E-14
6.16850E-07 9.35380E-14
6.51596E-07 8.81956E-14
6.87293E-07 8.32377E-14
7.23942E-07 7.86143E-14
7.61543E-07 7.43058E-14
1.18991E-06 4.37060E-14
1.71347E-06 2.72295E-14
2.33223E-06 1.78093E-14
3.04617E-06 1.22325E-14
3.85531E-06 8.75271E-15
4.75964E-06 6.47681E-15
5.75916E-06 4.92030E-15
6.85388E-06 3.80150E-15
8.04378E-06 2.98460E-15
9.32888E-06 2.37332E-15
1.07092E-05 1.90698E-15
1.21846E-05 1.54579E-15
1.37553E-05 1.26118E-15
1.54212E-05 1.03629E-15
1.71822E-05 8.57883E-16
1.90385E-05 7.15103E-16
2.09899E-05 6.00326E-16
2.30365E-05 5.07151E-16
2.51783E-05 4.30935E-16
2.74153E-05 3.68473E-16
2.97475E-05 3.16887E-16
3.21749E-05 2.74024E-16
3.46974E-05 2.38246E-16
3.73152E-05 2.08193E-16
4.00281E-05 1.82819E-16
4.28362E-05 1.61273E-16
4.57395E-05 1.42870E-16
4.87380E-05 1.27064E-16
5.18317E-05 1.13416E-16
5.50205E-05 1.01570E-16
5.83045E-05 9.12539E-17
6.16838E-05 8.22346E-17
6.51582E-05 7.43196E-17
6.87277E-05 6.73487E-17
7.23925E-05 6.11825E-17
7.61524E-05 5.57135E-17
9.21439E-05 3.91290E-17
1.09658E-04 2.82756E-17
1.28695E-04 2.09096E-17
1.49255E-04 1.57928E-17
1.71338E-04 1.21416E-17
1.94942E-04 9.48017E-18
2.20070E-04 7.50336E-18
2.46720E-04 6.01312E-18
2.74892E-04 4.87419E-18
3.04586E-04 3.99216E-18
3.35803E-04 3.30064E-18
3.68542E-04 2.75249E-18
4.02802E-04 2.31345E-18
4.38585E-04 1.95873E-18
4.75889E-04 1.66964E-18
5.14715E-04 1.43211E-18
5.55063E-04 1.23549E-18
5.96931E-04 1.07157E-18
6.40321E-04 9.34037E-19
6.85233E-04 8.17966E-19
7.31665E-04 7.19447E-19
7.79618E-04 6.35386E-19
8.29092E-04 5.63290E-19
8.80086E-04 5.01165E-19
9.32601E-04 4.47406E-19
9.86636E-04 4.00694E-19
1.04219E-03 3.59944E-19
1.09927E-03 3.24265E-19
1.15786E-03 2.92908E-19
1.21797E-03 2.65263E-19
1.27961E-03 2.40815E-19
1.34276E-03 2.19129E-19
1.40743E-03 1.99839E-19
1.47362E-03 1.82630E-19
1.54133E-03 1.67238E-19
1.61056E-03 1.53439E-19
1.68131E-03 1.41039E-19
1.75357E-03 1.29870E-19
1.82735E-03 1.19789E-19
1.90265E-03 1.10668E-19
1.97947E-03 1.02402E-19
2.05780E-03 9.48955E-20
2.13765E-03 8.80665E-20
2.21902E-03 8.18426E-20
2.30190E-03 7.61602E-20
2.38630E-03 7.09636E-20
2.47222E-03 6.62041E-20
2.55965E-03 6.18383E-20
2.64859E-03 5.78275E-20
2.73905E-03 5.41378E-20
2.83103E-03 5.07382E-20
2.92452E-03 4.76021E-20
3.01952E-03 4.47055E-20
3.11604E-03 4.20266E-20
3.21407E-03 3.95461E-20
3.31362E-03 3.72464E-20
3.41468E-03 3.51120E-20
3.51725E-03 3.31288E-20
3.62133E-03 3.12842E-20
3.72692E-03 2.95668E-20
3.83403E-03 2.79659E-20
3.94265E-03 2.64723E-20
4.05278E-03 2.50775E-20
4.16442E-03 2.37737E-20
4.27757E-03 2.25539E-20
4.39223E-03 2.14117E-20
4.50840E-03 2.03411E-20
4.62608E-03 1.93369E-20
4.74527E-03 1.83941E-20
4.86597E-03 1.75084E-20
4.98817E-03 1.66756E-20
5.11188E-03 1.58919E-20
5.23711E-03 1.51539E-20
5.36383E-03 1.44585E-20
5.49207E-03 1.38027E-20
5.62181E-03 1.31838E-20
5.75306E-03 1.25995E-20
5.88581E-03 1.20472E-20
6.02007E-03 1.15251E-20
6.15583E-03 1.10311E-20
6.29310E-03 1.05634E-20
6.43187E-03 1.01204E-20
6.57214E-03 9.70047E-21
6.71392E-03 9.30221E-21
6.85720E-03 8.92430E-21
7.00198E-03 8.56549E-21
7.14827E-03 8.22465E-21
7.29605E-03 7.90068E-21
7.44534E-03 7.59260E-21
7.59612E-03 7.29948E-21
7.97965E-03 6.62658E-21
8.37255E-03 6.02990E-21
8.77480E-03 5.49928E-21
9.18641E-03 5.02611E-21
9.60736E-03 4.60307E-21
1.00376E-02 4.22390E-21
1.04773E-02 3.88322E-21
1.09262E-02 3.57644E-21
1.13844E-02 3.29957E-21
1.18520E-02 3.04916E-21
1.23288E-02 2.82223E-21
1.28150E-02 2.61618E-21
1.33104E-02 2.42874E-21
1.38150E-02 2.25791E-21
1.43290E-02 2.10195E-21
1.48521E-02 1.95933E-21
1.53845E-02 1.82871E-21
1.59262E-02 1.70887E-21
1.64770E-02 1.59878E-21
1.70371E-02 1.49748E-21
1.76063E-02 1.40415E-21
1.81848E-02 1.31804E-21
1.87724E-02 1.23848E-21
1.93692E-02 1.16489E-21
1.99751E-02 1.09674E-21
2.05901E-02 1.03354E-21
2.12143E-02 9.74867E-22
2.18476E-02 9.20339E-22
2.24900E-02 8.69606E-22
2.31415E-02 8.22353E-22
2.38021E-02 7.78296E-22
2.44717E-02 7.37179E-22
2.51504E-02 6.98767E-22
2.58382E-02 6.62848E-22
2.65349E-02 6.29231E-22
2.72407E-02 5.97738E-22
2.79555E-02 5.68211E-22
2.86793E-02 5.40502E-22
2.94120E-02 5.14479E-22
3.01537E-02 4.90018E-22
3.09043E-02 4.67009E-22
3.16639E-02 4.45348E-22
3.24324E-02 4.24941E-22
3.32098E-02 4.05702E-22
3.39961E-02 3.87550E-22
3.47912E-02 3.70412E-22
3.55952E-02 3.54221E-22
3.64081E-02 3.38914E-22
3.72297E-02 3.24434E-22
3.80602E-02 3.10726E-22
3.88995E-02 2.97743E-22
3.97476E-02 2.85437E-22
4.06044E-02 2.73767E-22
4.14700E-02 2.62694E-22
4.23443E-02 2.52181E-22
4.32273E-02 2.42193E-22
4.41190E-02 2.32701E-22
4.50194E-02 2.23674E-22
4.59284E-02 2.15084E-22
4.68461E-02 2.06908E-22
4.87074E-02 1.91699E-22
5.06030E-02 1.77876E-22
5.25328E-02 1.65288E-22
5.44967E-02 1.53805E-22
5.64946E-02 1.43312E-22
5.85262E-02 1.33707E-22
6.05914E-02 1.24901E-22
6.26901E-02 1.16814E-22
6.48222E-02 1.09378E-22
6.69873E-02 1.02529E-22
6.91854E-02 9.62131E-23
7.14163E-02 9.03800E-23
7.36799E-02 8.49861E-23
7.59760E-02 7.99920E-23
7.83043E-02 7.53624E-23
8.06647E-02 7.10655E-23
8.30571E-02 6.70730E-23
8.54812E-02 6.33591E-23
8.79369E-02 5.99005E-23
9.04240E-02 5.66765E-23
9.29422E-02 5.36678E-23
9.54915E-02 5.08575E-23
9.80716E-02 4.82299E-23
1.00682E-01 4.57707E-23
1.03323E-01 4.34673E-23
1.05995E-01 4.13077E-23
1.08696E-01 3.92812E-23
1.11427E-01 3.73780E-23
1.14188E-01 3.55892E-23
1.16978E-01 3.39066E-23
1.19797E-01 3.23225E-23
1.22645E-01 3.08302E-23
1.25522E-01 2.94232E-23
1.28428E-01 2.80957E-23
1.31361E-01 2.68425E-23
1.34323E-01 2.56584E-23
1.37313E-01 2.45389E-23
1.40330E-01 2.34799E-23
1.43375E-01 2.24773E-23
1.46447E-01 2.15277E-23
1.49545E-01 2.06277E-23
1.52671E-01 1.97741E-23
1.55823E-01 1.89641E-23
1.59001E-01 1.81951E-23
1.62205E-01 1.74645E-23
1.65435E-01 1.67701E-23
1.68690E-01 1.61097E-23
1.71970E-01 1.54813E-23
1.75276E-01 1.48831E-23
1.78606E-01 1.43133E-23
1.81961E-01 1.37703E-23
1.85340E-01 1.32527E-23
1.88743E-01 1.27590E-23
1.92169E-01 1.22878E-23
1.95619E-01 1.18380E-23
1.99092E-01 1.14083E-23
2.02589E-01 1.09978E-23
2.06107E-01 1.06053E-23
2.09649E-01 1.02299E-23
2.13212E-01 9.87085E-24
2.16797E-01 9.52716E-24
2.20404E-01 9.19808E-24
2.24032E-01 8.88286E-24
2.27680E-01 8.58081E-24
2.31350E-01 8.29126E-24
2.35040E-01 8.01360E-24
2.38751E-01 7.74724E-24
2.42481E-01 7.49164E-24
2.46231E-01 7.24628E-24
2.50000E-01 7.01067E-24
2.53788E-01 6.78434E-24
2.57595E-01 6.56686E-24
2.61421E-01 6.35781E-24
2.65264E-01 6.15679E-24
2.69126E-01 5.96345E-24
2.73005E-01 5.77743E-24
2.76901E-01 5.59841E-24
2.80814E-01 5.42606E-24
2.84744E-01 5.26010E-24
2.88691E-01 5.10023E-24
2.92653E-01 4.94620E-24
2.96632E-01 4.79774E-24
3.00625E-01 4.65461E-24
3.04634E-01 4.51659E-24
3.08658E-01 4.38346E-24
3.12697E-01 4.25501E-24
3.16749E-01 4.13105E-24
3.20816E-01 4.01139E-24
3.24896E-01 3.89586E-24
3.28990E-01 3.78427E-24
3.33097E-01 3.67648E-24
3.37216E-01 3.57232E-24
3.41348E-01 3.47166E-24
3.45492E-01 3.37434E-24
3.49647E-01 3.28024E-24
3.53814E-01 3.18924E-24
3.57992E-01 3.10121E-24
3.62181E-01 3.01604E-24
3.66381E-01 2.93361E-24
3.70590E-01 2.85382E-24
3.74810E-01 2.77658E-24
3.79039E-01 2.70177E-24
3.83277E-01 2.62931E-24
3.87524E-01 2.55912E-24
3.91780E-01 2.49111E-24
3.96044E-01 2.42520E-24
4.00316E-01 2.36131E-24
4.04596E-01 2.29937E-24
4.08882E-01 2.23931E-24
4.13176E-01 2.18106E-24
4.17476E-01 2.12456E-24
4.21783E-01 2.06973E-24
4.26095E-01 2.01653E-24
4.30413E-01 1.96490E-24
4.34737E-01 1.91478E-24
4.39065E-01 1.86612E-24
4.43398E-01 1.81888E-24
4.47736E-01 1.77299E-24
4.52077E-01 1.72842E-24
4.56422E-01 1.68512E-24
4.60770E-01 1.64305E-24
4.65122E-01 1.60216E-24
4.69476E-01 1.56242E-24
4.73832E-01 1.52378E-24
4.78190E-01 1.48622E-24
4.82550E-01 1.44970E-24
4.86912E-01 1.41418E-24
4.91274E-01 1.37964E-24
4.95637E-01 1.34603E-24
5.00000E-01 1.31334E-24
5.04363E-01 1.28152E-24
5.08726E-01 1.25055E-24
5.13088E-01 1.22041E-24
5.17450E-01 1.19106E-24
5.21810E-01 1.16250E-24
5.26168E-01 1.13469E-24
5.30524E-01 1.10761E-24
5.34878E-01 1.08123E-24
5.39230E-01 1.05553E-24
5.43578E-01 1.03049E-24
5.47923E-01 1.00610E-24
5.52264E-01 9.82333E-25
5.56602E-01 9.59170E-25
5.60935E-01 9.36595E-25
5.65263E-01 9.14590E-25
5.69587E-01 8.93138E-25
5.73905E-01 8.72223E-25
5.78217E-01 8.51827E-25
5.82524E-01 8.31938E-25
5.86824E-01 8.12539E-25
5.91118E-01 7.93617E-25
5.95404E-01 7.75158E-25
5.99684E-01 7.57150E-25
6.03956E-01 7.39580E-25
6.08220E-01 7.22435E-25
6.12476E-01 7.05704E-25
6.16723E-01 6.89374E-25
6.20961E-01 6.73435E-25
6.25190E-01 6.57875E-25
6.29410E-01 6.42684E-25
6.33619E-01 6.27853E-25
6.37819E-01 6.13371E-25
6.42008E-01 5.99228E-25
6.46186E-01 5.85417E-25
6.50353E-01 5.71927E-25
6.54508E-01 5.58751E-25
6.58652E-01 5.45879E-25
6.62784E-01 5.33305E-25
6.66903E-01 5.21020E-25
6.71010E-01 5.09015E-25
6.75104E-01 4.97285E-25
6.79184E-01 4.85822E-25
6.83251E-01 4.74618E-25
6.87303E-01 4.63668E-25
6.91342E-01 4.52964E-25
6.95366E-01 4.42501E-25
6.99375E-01 4.32273E-25
7.03368E-01 4.22273E-25
7.07347E-01 4.12496E-25
7.11309E-01 4.02935E-25
7.15256E-01 3.93587E-25
7.19186E-01 3.84445E-25
7.23099E-01 3.75504E-25
7.26995E-01 3.66759E-25
7.30874E-01 3.58206E-25
7.34736E-01 3.49840E-25
7.38579E-01 3.41656E-25
7.42405E-01 3.33650E-25
7.46212E-01 3.25817E-25
7.50000E-01 3.18155E-25
7.53769E-01 3.10657E-25
7.57519E-01 3.03321E-25
7.61249E-01 2.96143E-25
7.64960E-01 2.89119E-25
7.68650E-01 2.82245E-25
7.72320E-01 2.75518E-25
7.75968E-01 2.68935E-25
7.79596E-01 2.62491E-25
7.83203E-01 2.56185E-25
7.86788E-01 2.50012E-25
7.90351E-01 2.43971E-25
7.93893E-01 2.38057E-25
7.97411E-01 2.32268E-25
8.00908E-01 2.26601E-25
8.04381E-01 2.21053E-25
8.07831E-01 2.15622E-25
8.11257E-01 2.10306E-25
8.14660E-01 2.05101E-25
8.18039E-01 2.00006E-25
8.21394E-01 1.95017E-25
8.24724E-01 1.90133E-25
8.28030E-01 1.85351E-25
8.31310E-01 1.80669E-25
8.34565E-01 1.76085E-25
8.37795E-01 1.71597E-25
8.40999E-01 1.67203E-25
8.44177E-01 1.62901E-25
8.47329E-01 1.58689E-25
8.50455E-01 1.54565E-25
8.53553E-01 1.50528E-25
8.56625E-01 1.46575E-25
8.59670E-01 1.42705E-25
8.62687E-01 1.38916E-25
8.65677E-01 1.35206E-25
8.68639E-01 1.31575E-25
8.71572E-01 1.28020E-25
8.74478E-01 1.24539E-25
8.77355E-01 1.21133E-25
8.80203E-01 1.17798E-25
8.83022E-01 1.14534E-25
8.85812E-01 1.11339E-25
8.88573E-01 1.08212E-25
8.91304E-01 1.05151E-25
8.94005E-01 1.02156E-25
8.96677E-01 9.92251E-26
8.99318E-01 9.63572E-26
9.01928E-01 9.35511E-26
9.04508E-01 9.08057E-26
9.07058E-01 8.81198E-26
9.09576E-01 8.54925E-26
9.12063E-01 8.29226E-26
9.14519E-01 8.04092E-26
9.16943E-01 7.79513E-26
9.19335E-01 7.55478E-26
9.21696E-01 7.31979E-26
9.24024E-01 7.09007E-26
9.26320E-01 6.86552E-26
9.28584E-01 6.64606E-26
9.30815E-01 6.43161E-26
9.33013E-01 6.22209E-26
9.35178E-01 6.01740E-26
9.37310E-01 5.81748E-26
9.39409E-01 5.62225E-26
9.41474E-01 5.43164E-26
9.43505E-01 5.24558E-26
9.45503E-01 5.06399E-26
9.47467E-01 4.88681E-26
9.49397E-01 4.71397E-26
9.51293E-01 4.54540E-26
9.53154E-01 4.38106E-26
9.54981E-01 4.22087E-26
9.56773E-01 4.06478E-26
9.58530E-01 3.91272E-26
9.60252E-01 3.76466E-26
9.61940E-01 3.62052E-26
9.63592E-01 3.48026E-26
9.65209E-01 3.34383E-26
9.66790E-01 3.21118E-26
9.68336E-01 3.08225E-26
9.69846E-01 2.95702E-26
9.71321E-01 2.83542E-26
9.72759E-01 2.71742E-26
9.74162E-01 2.60298E-26
9.75528E-01 2.49205E-26
9.76858E-01 2.38459E-26
9.78152E-01 2.28058E-26
9.79410E-01 2.17996E-26
9.80631E-01 2.08271E-26
9.81815E-01 1.98879E-26
9.82963E-01 1.89816E-26
9.84074E-01 1.81081E-26
9.85148E-01 1.72669E-26
9.86185E-01 1.64578E-26
9.87185E-01 1.56805E-26
9.88148E-01 1.49346E-26
9.89074E-01 1.42201E-26
9.89962E-01 1.35366E-26
9.90814E-01 1.28838E-26
9.91627E-01 1.22616E-26
9.92404E-01 1.16698E-26
9.93143E-01 1.11081E-26
9.93844E-01 1.05763E-26
9.94508E-01 1.00743E-26
9.95134E-01 9.60187E-27
9.95722E-01 9.15889E-27
9.96273E-01 8.74519E-27
9.96786E-01 8.36062E-27
9.97261E-01 8.00507E-27
9.97698E-01 7.67840E-27
9.98097E-01 7.38051E-27
9.98459E-01 7.11129E-27
9.98782E-01 6.87066E-27
9.99067E-01 6.65852E-27
9.99315E-01 6.47482E-27
9.99524E-01 6.31948E-27
9.99695E-01 6.19246E-27
9.99829E-01 6.09371E-27
9.99924E-01 6.02320E-27
9.99981E-01 5.98090E-27
1.00000E+00 5.96680E-27
