 #
 # Subroutine ELSEPA. Elastic scattering of electrons and positrons
 #                    by neutral atoms and positive ions
 #
 # Projectile: electron
 # Kinetic energy = 1.75000E+06 eV = 6.43113E+04 a.u.
 #
 # WARNING: High-energy factorization with free-atom DF screening.
 #          Absorption, polarization and exchange corrections are
 #          switched off.
 #          Phase shifts are calculated for the bare nucleus.
 #          Scattering amplitudes are not evaluated.
 #
 # Element:  Y,  Z =  39,  atomic weight = 8.89059E+01 g/mol
 #
 # Nuclear model: Fermi distribution
 #                Average radius = 4.77559E-13 cm
 #                Skin thickness = 5.46000E-14 cm
 #
 # Number of electrons = 39
 #
 # Total elastic cross section = 4.16235E-18 cm**2 = 1.48640E-01 a0**2
 # 1st transport cross section = 4.40556E-22 cm**2 = 1.57325E-05 a0**2
 # 2nd transport cross section = 1.22210E-21 cm**2 = 4.36419E-05 a0**2
 #
 #
 # Differential cross section:                       MU=(1-COS(THETA))/2
 #
 #  THETA        MU          DCS          DCS        Sherman      error
 #  (deg)                 (cm**2/sr)   (a0**2/sr)    function
 #----------------------------------------------------------------------
0.00000E+00 3.09164E-13
7.61557E-13 3.09164E-13
1.18994E-12 3.09163E-13
1.71346E-12 3.09163E-13
2.33225E-12 3.09162E-13
3.04617E-12 3.09162E-13
3.85530E-12 3.09161E-13
4.75964E-12 3.09160E-13
5.75917E-12 3.09159E-13
6.85391E-12 3.09158E-13
8.04379E-12 3.09157E-13
9.32893E-12 3.09156E-13
1.07092E-11 3.09155E-13
1.21847E-11 3.09153E-13
1.37554E-11 3.09152E-13
1.54213E-11 3.09150E-13
1.71823E-11 3.09149E-13
1.90386E-11 3.09147E-13
2.09900E-11 3.09145E-13
2.30367E-11 3.09144E-13
2.51785E-11 3.09142E-13
2.74156E-11 3.09139E-13
2.97478E-11 3.09137E-13
3.21752E-11 3.09135E-13
3.46979E-11 3.09133E-13
3.73157E-11 3.09130E-13
4.00286E-11 3.09128E-13
4.28368E-11 3.09125E-13
4.57402E-11 3.09123E-13
4.87388E-11 3.09120E-13
5.18325E-11 3.09117E-13
5.50215E-11 3.09114E-13
5.83057E-11 3.09111E-13
6.16850E-11 3.09108E-13
6.51595E-11 3.09105E-13
6.87293E-11 3.09101E-13
7.23943E-11 3.09098E-13
7.61544E-11 3.09095E-13
1.18991E-10 3.09055E-13
1.71347E-10 3.09007E-13
2.33223E-10 3.08949E-13
3.04617E-10 3.08883E-13
3.85531E-10 3.08808E-13
4.75965E-10 3.08725E-13
5.75917E-10 3.08632E-13
6.85389E-10 3.08531E-13
8.04380E-10 3.08421E-13
9.32891E-10 3.08302E-13
1.07092E-09 3.08174E-13
1.21847E-09 3.08038E-13
1.37554E-09 3.07893E-13
1.54213E-09 3.07739E-13
1.71823E-09 3.07577E-13
1.90386E-09 3.07406E-13
2.09900E-09 3.07226E-13
2.30367E-09 3.07038E-13
2.51785E-09 3.06841E-13
2.74156E-09 3.06636E-13
2.97478E-09 3.06422E-13
3.21752E-09 3.06200E-13
3.46978E-09 3.05969E-13
3.73156E-09 3.05730E-13
4.00286E-09 3.05482E-13
4.28368E-09 3.05226E-13
4.57402E-09 3.04962E-13
4.87388E-09 3.04689E-13
5.18326E-09 3.04408E-13
5.50215E-09 3.04119E-13
5.83057E-09 3.03821E-13
6.16850E-09 3.03516E-13
6.51596E-09 3.03202E-13
6.87293E-09 3.02880E-13
7.23942E-09 3.02550E-13
7.61544E-09 3.02213E-13
1.18991E-08 2.98404E-13
1.71347E-08 2.93849E-13
2.33223E-08 2.88602E-13
3.04617E-08 2.82726E-13
3.85531E-08 2.76288E-13
4.75965E-08 2.69360E-13
5.75917E-08 2.62032E-13
6.85389E-08 2.54332E-13
8.04380E-08 2.46372E-13
9.32891E-08 2.38212E-13
1.07092E-07 2.29881E-13
1.21847E-07 2.21536E-13
1.37554E-07 2.13130E-13
1.54213E-07 2.04782E-13
1.71823E-07 1.96523E-13
1.90386E-07 1.88347E-13
2.09900E-07 1.80406E-13
2.30367E-07 1.72601E-13
2.51785E-07 1.65041E-13
2.74156E-07 1.57720E-13
2.97478E-07 1.50609E-13
3.21752E-07 1.43833E-13
3.46978E-07 1.37274E-13
3.73156E-07 1.31015E-13
4.00286E-07 1.25034E-13
4.28368E-07 1.19290E-13
4.57402E-07 1.13876E-13
4.87388E-07 1.08681E-13
5.18325E-07 1.03768E-13
5.50215E-07 9.91028E-14
5.83057E-07 9.46528E-14
6.16850E-07 9.04775E-14
6.51596E-07 8.64905E-14
6.87293E-07 8.27320E-14
7.23942E-07 7.91733E-14
7.61543E-07 7.57889E-14
1.18991E-06 5.05332E-14
1.71347E-06 3.54681E-14
2.33223E-06 2.58888E-14
3.04617E-06 1.94142E-14
3.85531E-06 1.48389E-14
4.75964E-06 1.15047E-14
5.75916E-06 8.95005E-15
6.85388E-06 7.15349E-15
8.04378E-06 5.77060E-15
9.32888E-06 4.69623E-15
1.07092E-05 3.89139E-15
1.21846E-05 3.23168E-15
1.37553E-05 2.72459E-15
1.54212E-05 2.31487E-15
1.71822E-05 1.98194E-15
1.90385E-05 1.71463E-15
2.09899E-05 1.48645E-15
2.30365E-05 1.30062E-15
2.51783E-05 1.14188E-15
2.74153E-05 1.00660E-15
2.97475E-05 8.93151E-16
3.21749E-05 7.91768E-16
3.46974E-05 7.06336E-16
3.73152E-05 6.30983E-16
4.00281E-05 5.65017E-16
4.28362E-05 5.08191E-16
4.57395E-05 4.56542E-16
4.87380E-05 4.11956E-16
5.18317E-05 3.72020E-16
5.50205E-05 3.36545E-16
5.83045E-05 3.05414E-16
6.16838E-05 2.77060E-16
6.51582E-05 2.52167E-16
6.87277E-05 2.29738E-16
7.23925E-05 2.09655E-16
7.61524E-05 1.91794E-16
9.21439E-05 1.36072E-16
1.09658E-04 9.90021E-17
1.28695E-04 7.36970E-17
1.49255E-04 5.60083E-17
1.71338E-04 4.33959E-17
1.94942E-04 3.41920E-17
2.20070E-04 2.73411E-17
2.46720E-04 2.21468E-17
2.74892E-04 1.81423E-17
3.04586E-04 1.50148E-17
3.35803E-04 1.25379E-17
3.68542E-04 1.05544E-17
4.02802E-04 8.94892E-18
4.38585E-04 7.63603E-18
4.75889E-04 6.55440E-18
5.14715E-04 5.65297E-18
5.55063E-04 4.90577E-18
5.96931E-04 4.27553E-18
6.40321E-04 3.74229E-18
6.85233E-04 3.29116E-18
7.31665E-04 2.90276E-18
7.79618E-04 2.57124E-18
8.29092E-04 2.28489E-18
8.80086E-04 2.03703E-18
9.32601E-04 1.82232E-18
9.86636E-04 1.63422E-18
1.04219E-03 1.47018E-18
1.09927E-03 1.32598E-18
1.15786E-03 1.19898E-18
1.21797E-03 1.08699E-18
1.27961E-03 9.87524E-19
1.34276E-03 8.99337E-19
1.40743E-03 8.20715E-19
1.47362E-03 7.50511E-19
1.54133E-03 6.87729E-19
1.61056E-03 6.31311E-19
1.68131E-03 5.80637E-19
1.75357E-03 5.34933E-19
1.82735E-03 4.93657E-19
1.90265E-03 4.56325E-19
1.97947E-03 4.22440E-19
2.05780E-03 3.91682E-19
2.13765E-03 3.63673E-19
2.21902E-03 3.38139E-19
2.30190E-03 3.14828E-19
2.38630E-03 2.93487E-19
2.47222E-03 2.73948E-19
2.55965E-03 2.56010E-19
2.64859E-03 2.39526E-19
2.73905E-03 2.24362E-19
2.83103E-03 2.10376E-19
2.92452E-03 1.97478E-19
3.01952E-03 1.85555E-19
3.11604E-03 1.74526E-19
3.21407E-03 1.64312E-19
3.31362E-03 1.54833E-19
3.41468E-03 1.46038E-19
3.51725E-03 1.37859E-19
3.62133E-03 1.30249E-19
3.72692E-03 1.23162E-19
3.83403E-03 1.16551E-19
3.94265E-03 1.10383E-19
4.05278E-03 1.04618E-19
4.16442E-03 9.92274E-20
4.27757E-03 9.41832E-20
4.39223E-03 8.94553E-20
4.50840E-03 8.50243E-20
4.62608E-03 8.08644E-20
4.74527E-03 7.69579E-20
4.86597E-03 7.32868E-20
4.98817E-03 6.98318E-20
5.11188E-03 6.65808E-20
5.23711E-03 6.35168E-20
5.36383E-03 6.06285E-20
5.49207E-03 5.79041E-20
5.62181E-03 5.53309E-20
5.75306E-03 5.29010E-20
5.88581E-03 5.06030E-20
6.02007E-03 4.84296E-20
6.15583E-03 4.63726E-20
6.29310E-03 4.44236E-20
6.43187E-03 4.25773E-20
6.57214E-03 4.08260E-20
6.71392E-03 3.91645E-20
6.85720E-03 3.75875E-20
7.00198E-03 3.60890E-20
7.14827E-03 3.46655E-20
7.29605E-03 3.33114E-20
7.44534E-03 3.20234E-20
7.59612E-03 3.07977E-20
7.97965E-03 2.79813E-20
8.37255E-03 2.54815E-20
8.77480E-03 2.32564E-20
9.18641E-03 2.12703E-20
9.60736E-03 1.94931E-20
1.00376E-02 1.78988E-20
1.04773E-02 1.64652E-20
1.09262E-02 1.51732E-20
1.13844E-02 1.40062E-20
1.18520E-02 1.29501E-20
1.23288E-02 1.19923E-20
1.28150E-02 1.11220E-20
1.33104E-02 1.03298E-20
1.38150E-02 9.60738E-21
1.43290E-02 8.94746E-21
1.48521E-02 8.34365E-21
1.53845E-02 7.79030E-21
1.59262E-02 7.28241E-21
1.64770E-02 6.81555E-21
1.70371E-02 6.38580E-21
1.76063E-02 5.98965E-21
1.81848E-02 5.62399E-21
1.87724E-02 5.28604E-21
1.93692E-02 4.97330E-21
1.99751E-02 4.68355E-21
2.05901E-02 4.41476E-21
2.12143E-02 4.16515E-21
2.18476E-02 3.93308E-21
2.24900E-02 3.71709E-21
2.31415E-02 3.51586E-21
2.38021E-02 3.32818E-21
2.44717E-02 3.15297E-21
2.51504E-02 2.98924E-21
2.58382E-02 2.83611E-21
2.65349E-02 2.69274E-21
2.72407E-02 2.55841E-21
2.79555E-02 2.43242E-21
2.86793E-02 2.31417E-21
2.94120E-02 2.20309E-21
3.01537E-02 2.09866E-21
3.09043E-02 2.00040E-21
3.16639E-02 1.90789E-21
3.24324E-02 1.82071E-21
3.32098E-02 1.73850E-21
3.39961E-02 1.66093E-21
3.47912E-02 1.58768E-21
3.55952E-02 1.51847E-21
3.64081E-02 1.45302E-21
3.72297E-02 1.39110E-21
3.80602E-02 1.33247E-21
3.88995E-02 1.27694E-21
3.97476E-02 1.22429E-21
4.06044E-02 1.17436E-21
4.14700E-02 1.12698E-21
4.23443E-02 1.08198E-21
4.32273E-02 1.03923E-21
4.41190E-02 9.98598E-22
4.50194E-02 9.59951E-22
4.59284E-02 9.23174E-22
4.68461E-02 8.88160E-22
4.87074E-02 8.23022E-22
5.06030E-02 7.63807E-22
5.25328E-02 7.09877E-22
5.44967E-02 6.60670E-22
5.64946E-02 6.15695E-22
5.85262E-02 5.74521E-22
6.05914E-02 5.36765E-22
6.26901E-02 5.02091E-22
6.48222E-02 4.70199E-22
6.69873E-02 4.40823E-22
6.91854E-02 4.13728E-22
7.14163E-02 3.88702E-22
7.36799E-02 3.65558E-22
7.59760E-02 3.44127E-22
7.83043E-02 3.24257E-22
8.06647E-02 3.05814E-22
8.30571E-02 2.88675E-22
8.54812E-02 2.72730E-22
8.79369E-02 2.57880E-22
9.04240E-02 2.44035E-22
9.29422E-02 2.31114E-22
9.54915E-02 2.19044E-22
9.80716E-02 2.07757E-22
1.00682E-01 1.97193E-22
1.03323E-01 1.87297E-22
1.05995E-01 1.78018E-22
1.08696E-01 1.69310E-22
1.11427E-01 1.61131E-22
1.14188E-01 1.53443E-22
1.16978E-01 1.46211E-22
1.19797E-01 1.39402E-22
1.22645E-01 1.32987E-22
1.25522E-01 1.26938E-22
1.28428E-01 1.21230E-22
1.31361E-01 1.15841E-22
1.34323E-01 1.10749E-22
1.37313E-01 1.05934E-22
1.40330E-01 1.01379E-22
1.43375E-01 9.70666E-23
1.46447E-01 9.29814E-23
1.49545E-01 8.91090E-23
1.52671E-01 8.54363E-23
1.55823E-01 8.19510E-23
1.59001E-01 7.86414E-23
1.62205E-01 7.54971E-23
1.65435E-01 7.25082E-23
1.68690E-01 6.96655E-23
1.71970E-01 6.69603E-23
1.75276E-01 6.43849E-23
1.78606E-01 6.19316E-23
1.81961E-01 5.95935E-23
1.85340E-01 5.73643E-23
1.88743E-01 5.52378E-23
1.92169E-01 5.32083E-23
1.95619E-01 5.12705E-23
1.99092E-01 4.94196E-23
2.02589E-01 4.76507E-23
2.06107E-01 4.59597E-23
2.09649E-01 4.43423E-23
2.13212E-01 4.27947E-23
2.16797E-01 4.13133E-23
2.20404E-01 3.98948E-23
2.24032E-01 3.85359E-23
2.27680E-01 3.72336E-23
2.31350E-01 3.59851E-23
2.35040E-01 3.47878E-23
2.38751E-01 3.36391E-23
2.42481E-01 3.25367E-23
2.46231E-01 3.14784E-23
2.50000E-01 3.04619E-23
2.53788E-01 2.94854E-23
2.57595E-01 2.85470E-23
2.61421E-01 2.76449E-23
2.65264E-01 2.67774E-23
2.69126E-01 2.59429E-23
2.73005E-01 2.51400E-23
2.76901E-01 2.43671E-23
2.80814E-01 2.36230E-23
2.84744E-01 2.29064E-23
2.88691E-01 2.22160E-23
2.92653E-01 2.15507E-23
2.96632E-01 2.09094E-23
3.00625E-01 2.02911E-23
3.04634E-01 1.96948E-23
3.08658E-01 1.91196E-23
3.12697E-01 1.85645E-23
3.16749E-01 1.80288E-23
3.20816E-01 1.75115E-23
3.24896E-01 1.70121E-23
3.28990E-01 1.65296E-23
3.33097E-01 1.60635E-23
3.37216E-01 1.56131E-23
3.41348E-01 1.51778E-23
3.45492E-01 1.47568E-23
3.49647E-01 1.43498E-23
3.53814E-01 1.39561E-23
3.57992E-01 1.35751E-23
3.62181E-01 1.32065E-23
3.66381E-01 1.28498E-23
3.70590E-01 1.25044E-23
3.74810E-01 1.21700E-23
3.79039E-01 1.18461E-23
3.83277E-01 1.15323E-23
3.87524E-01 1.12283E-23
3.91780E-01 1.09338E-23
3.96044E-01 1.06482E-23
4.00316E-01 1.03714E-23
4.04596E-01 1.01030E-23
4.08882E-01 9.84274E-24
4.13176E-01 9.59026E-24
4.17476E-01 9.34531E-24
4.21783E-01 9.10764E-24
4.26095E-01 8.87697E-24
4.30413E-01 8.65307E-24
4.34737E-01 8.43570E-24
4.39065E-01 8.22463E-24
4.43398E-01 8.01965E-24
4.47736E-01 7.82055E-24
4.52077E-01 7.62712E-24
4.56422E-01 7.43919E-24
4.60770E-01 7.25655E-24
4.65122E-01 7.07904E-24
4.69476E-01 6.90648E-24
4.73832E-01 6.73872E-24
4.78190E-01 6.57558E-24
4.82550E-01 6.41693E-24
4.86912E-01 6.26262E-24
4.91274E-01 6.11250E-24
4.95637E-01 5.96644E-24
5.00000E-01 5.82431E-24
5.04363E-01 5.68599E-24
5.08726E-01 5.55136E-24
5.13088E-01 5.42030E-24
5.17450E-01 5.29270E-24
5.21810E-01 5.16844E-24
5.26168E-01 5.04744E-24
5.30524E-01 4.92958E-24
5.34878E-01 4.81478E-24
5.39230E-01 4.70294E-24
5.43578E-01 4.59396E-24
5.47923E-01 4.48777E-24
5.52264E-01 4.38427E-24
5.56602E-01 4.28340E-24
5.60935E-01 4.18506E-24
5.65263E-01 4.08919E-24
5.69587E-01 3.99572E-24
5.73905E-01 3.90457E-24
5.78217E-01 3.81567E-24
5.82524E-01 3.72897E-24
5.86824E-01 3.64439E-24
5.91118E-01 3.56187E-24
5.95404E-01 3.48137E-24
5.99684E-01 3.40282E-24
6.03956E-01 3.32616E-24
6.08220E-01 3.25135E-24
6.12476E-01 3.17833E-24
6.16723E-01 3.10704E-24
6.20961E-01 3.03746E-24
6.25190E-01 2.96951E-24
6.29410E-01 2.90317E-24
6.33619E-01 2.83839E-24
6.37819E-01 2.77513E-24
6.42008E-01 2.71334E-24
6.46186E-01 2.65298E-24
6.50353E-01 2.59402E-24
6.54508E-01 2.53642E-24
6.58652E-01 2.48014E-24
6.62784E-01 2.42516E-24
6.66903E-01 2.37142E-24
6.71010E-01 2.31891E-24
6.75104E-01 2.26759E-24
6.79184E-01 2.21742E-24
6.83251E-01 2.16839E-24
6.87303E-01 2.12046E-24
6.91342E-01 2.07360E-24
6.95366E-01 2.02778E-24
6.99375E-01 1.98298E-24
7.03368E-01 1.93918E-24
7.07347E-01 1.89634E-24
7.11309E-01 1.85444E-24
7.15256E-01 1.81347E-24
7.19186E-01 1.77340E-24
7.23099E-01 1.73420E-24
7.26995E-01 1.69585E-24
7.30874E-01 1.65834E-24
7.34736E-01 1.62164E-24
7.38579E-01 1.58574E-24
7.42405E-01 1.55061E-24
7.46212E-01 1.51623E-24
7.50000E-01 1.48260E-24
7.53769E-01 1.44968E-24
7.57519E-01 1.41747E-24
7.61249E-01 1.38595E-24
7.64960E-01 1.35509E-24
7.68650E-01 1.32489E-24
7.72320E-01 1.29534E-24
7.75968E-01 1.26640E-24
7.79596E-01 1.23808E-24
7.83203E-01 1.21036E-24
7.86788E-01 1.18322E-24
7.90351E-01 1.15665E-24
7.93893E-01 1.13063E-24
7.97411E-01 1.10517E-24
8.00908E-01 1.08023E-24
8.04381E-01 1.05582E-24
8.07831E-01 1.03192E-24
8.11257E-01 1.00851E-24
8.14660E-01 9.85596E-25
8.18039E-01 9.63156E-25
8.21394E-01 9.41183E-25
8.24724E-01 9.19667E-25
8.28030E-01 8.98599E-25
8.31310E-01 8.77968E-25
8.34565E-01 8.57765E-25
8.37795E-01 8.37982E-25
8.40999E-01 8.18609E-25
8.44177E-01 7.99639E-25
8.47329E-01 7.81063E-25
8.50455E-01 7.62872E-25
8.53553E-01 7.45059E-25
8.56625E-01 7.27617E-25
8.59670E-01 7.10537E-25
8.62687E-01 6.93813E-25
8.65677E-01 6.77438E-25
8.68639E-01 6.61403E-25
8.71572E-01 6.45704E-25
8.74478E-01 6.30333E-25
8.77355E-01 6.15284E-25
8.80203E-01 6.00551E-25
8.83022E-01 5.86128E-25
8.85812E-01 5.72008E-25
8.88573E-01 5.58186E-25
8.91304E-01 5.44657E-25
8.94005E-01 5.31415E-25
8.96677E-01 5.18455E-25
8.99318E-01 5.05771E-25
9.01928E-01 4.93359E-25
9.04508E-01 4.81213E-25
9.07058E-01 4.69330E-25
9.09576E-01 4.57703E-25
9.12063E-01 4.46329E-25
9.14519E-01 4.35204E-25
9.16943E-01 4.24322E-25
9.19335E-01 4.13681E-25
9.21696E-01 4.03275E-25
9.24024E-01 3.93101E-25
9.26320E-01 3.83154E-25
9.28584E-01 3.73432E-25
9.30815E-01 3.63931E-25
9.33013E-01 3.54646E-25
9.35178E-01 3.45575E-25
9.37310E-01 3.36714E-25
9.39409E-01 3.28060E-25
9.41474E-01 3.19609E-25
9.43505E-01 3.11359E-25
9.45503E-01 3.03307E-25
9.47467E-01 2.95449E-25
9.49397E-01 2.87782E-25
9.51293E-01 2.80305E-25
9.53154E-01 2.73014E-25
9.54981E-01 2.65906E-25
9.56773E-01 2.58979E-25
9.58530E-01 2.52231E-25
9.60252E-01 2.45659E-25
9.61940E-01 2.39261E-25
9.63592E-01 2.33034E-25
9.65209E-01 2.26977E-25
9.66790E-01 2.21087E-25
9.68336E-01 2.15362E-25
9.69846E-01 2.09800E-25
9.71321E-01 2.04400E-25
9.72759E-01 1.99158E-25
9.74162E-01 1.94074E-25
9.75528E-01 1.89146E-25
9.76858E-01 1.84372E-25
9.78152E-01 1.79750E-25
9.79410E-01 1.75279E-25
9.80631E-01 1.70957E-25
9.81815E-01 1.66782E-25
9.82963E-01 1.62754E-25
9.84074E-01 1.58871E-25
9.85148E-01 1.55132E-25
9.86185E-01 1.51535E-25
9.87185E-01 1.48079E-25
9.88148E-01 1.44763E-25
9.89074E-01 1.41586E-25
9.89962E-01 1.38546E-25
9.90814E-01 1.35643E-25
9.91627E-01 1.32876E-25
9.92404E-01 1.30244E-25
9.93143E-01 1.27746E-25
9.93844E-01 1.25381E-25
9.94508E-01 1.23148E-25
9.95134E-01 1.21046E-25
9.95722E-01 1.19076E-25
9.96273E-01 1.17235E-25
9.96786E-01 1.15524E-25
9.97261E-01 1.13943E-25
9.97698E-01 1.12489E-25
9.98097E-01 1.11164E-25
9.98459E-01 1.09966E-25
9.98782E-01 1.08895E-25
9.99067E-01 1.07951E-25
9.99315E-01 1.07134E-25
9.99524E-01 1.06443E-25
9.99695E-01 1.05878E-25
9.99829E-01 1.05438E-25
9.99924E-01 1.05125E-25
9.99981E-01 1.04936E-25
1.00000E+00 1.04874E-25
