 #
 # Subroutine ELSEPA. Elastic scattering of electrons and positrons
 #                    by neutral atoms and positive ions
 #
 # Projectile: electron
 # Kinetic energy = 2.50000E+08 eV = 9.18733E+06 a.u.
 #
 # WARNING: High-energy factorization with free-atom DF screening.
 #          Absorption, polarization and exchange corrections are
 #          switched off.
 #          Phase shifts are calculated for the bare nucleus.
 #          Scattering amplitudes are not evaluated.
 #
 # Element:  Y,  Z =  39,  atomic weight = 8.89059E+01 g/mol
 #
 # Nuclear model: Fermi distribution
 #                Average radius = 4.77559E-13 cm
 #                Skin thickness = 5.46000E-14 cm
 #
 # Number of electrons = 39
 #
 # Total elastic cross section = 3.94209E-18 cm**2 = 1.40775E-01 a0**2
 # 1st transport cross section = 4.87641E-26 cm**2 = 1.74140E-09 a0**2
 # 2nd transport cross section = 1.46054E-25 cm**2 = 5.21570E-09 a0**2
 #
 #
 # Differential cross section:                       MU=(1-COS(THETA))/2
 #
 #  THETA        MU          DCS          DCS        Sherman      error
 #  (deg)                 (cm**2/sr)   (a0**2/sr)    function
 #----------------------------------------------------------------------
0.00000E+00 3.79527E-09
7.61557E-13 3.68517E-09
1.18994E-12 3.62541E-09
1.71346E-12 3.55440E-09
2.33225E-12 3.47321E-09
3.04617E-12 3.38307E-09
3.85530E-12 3.28533E-09
4.75964E-12 3.18131E-09
5.75917E-12 3.07182E-09
6.85391E-12 2.95916E-09
8.04379E-12 2.84336E-09
9.32893E-12 2.72680E-09
1.07092E-11 2.60942E-09
1.21847E-11 2.49308E-09
1.37554E-11 2.37798E-09
1.54213E-11 2.26516E-09
1.71823E-11 2.15527E-09
1.90386E-11 2.04837E-09
2.09900E-11 1.94569E-09
2.30367E-11 1.84629E-09
2.51785E-11 1.75196E-09
2.74156E-11 1.66108E-09
2.97478E-11 1.57542E-09
3.21752E-11 1.49349E-09
3.46979E-11 1.41633E-09
3.73157E-11 1.34313E-09
4.00286E-11 1.27415E-09
4.28368E-11 1.20918E-09
4.57402E-11 1.14786E-09
4.87388E-11 1.09044E-09
5.18325E-11 1.03613E-09
5.50215E-11 9.85508E-10
5.83057E-11 9.37555E-10
6.16850E-11 8.92917E-10
6.51595E-11 8.50707E-10
6.87293E-11 8.11240E-10
7.23943E-11 7.74048E-10
7.61544E-11 7.39132E-10
1.18991E-10 4.83674E-10
1.71347E-10 3.34771E-10
2.33223E-10 2.40606E-10
3.04617E-10 1.77277E-10
3.85531E-10 1.32545E-10
4.75965E-10 1.00575E-10
5.75917E-10 7.87932E-11
6.85389E-10 6.17173E-11
8.04380E-10 4.95831E-11
9.32891E-10 4.01260E-11
1.07092E-09 3.30353E-11
1.21847E-09 2.74581E-11
1.37554E-09 2.30897E-11
1.54213E-09 1.95932E-11
1.71823E-09 1.67465E-11
1.90386E-09 1.44370E-11
2.09900E-09 1.24868E-11
2.30367E-09 1.08934E-11
2.51785E-09 9.50434E-12
2.74156E-09 8.35910E-12
2.97478E-09 7.34849E-12
3.21752E-09 6.49892E-12
3.46978E-09 5.75309E-12
3.73156E-09 5.11178E-12
4.00286E-09 4.55194E-12
4.28368E-09 4.06194E-12
4.57402E-09 3.63587E-12
4.87388E-09 3.25808E-12
5.18326E-09 2.93006E-12
5.50215E-09 2.63658E-12
5.83057E-09 2.38118E-12
6.16850E-09 2.15193E-12
6.51596E-09 1.95079E-12
6.87293E-09 1.77096E-12
7.23942E-09 1.61155E-12
7.61544E-09 1.46920E-12
1.18991E-08 6.44029E-13
1.71347E-08 3.27891E-13
2.33223E-08 1.85387E-13
3.04617E-08 1.12886E-13
3.85531E-08 7.25279E-14
4.75965E-08 4.86488E-14
5.75917E-08 3.37817E-14
6.85389E-08 2.41510E-14
8.04380E-08 1.77025E-14
9.32891E-08 1.32611E-14
1.07092E-07 1.01244E-14
1.21847E-07 7.86150E-15
1.37554E-07 6.19696E-15
1.54213E-07 4.95082E-15
1.71823E-07 4.00312E-15
1.90386E-07 3.27206E-15
2.09900E-07 2.70081E-15
2.30367E-07 2.24912E-15
2.51785E-07 1.88819E-15
2.74156E-07 1.59697E-15
2.97478E-07 1.35988E-15
3.21752E-07 1.16525E-15
3.46978E-07 1.00428E-15
3.73156E-07 8.70191E-16
4.00286E-07 7.57762E-16
4.28368E-07 6.62923E-16
4.57402E-07 5.82475E-16
4.87388E-07 5.13870E-16
5.18325E-07 4.55076E-16
5.50215E-07 4.04454E-16
5.83057E-07 3.60678E-16
6.16850E-07 3.22662E-16
6.51596E-07 2.89522E-16
6.87293E-07 2.60528E-16
7.23942E-07 2.35072E-16
7.61543E-07 2.12648E-16
1.18991E-06 8.77475E-17
1.71347E-06 4.24944E-17
2.33223E-06 2.29959E-17
3.04617E-06 1.35020E-17
3.85531E-06 8.43879E-18
4.75964E-06 5.54125E-18
5.75916E-06 3.78713E-18
6.85388E-06 2.67530E-18
8.04378E-06 1.94314E-18
9.32888E-06 1.44517E-18
1.07092E-05 1.09698E-18
1.21846E-05 8.47624E-19
1.37553E-05 6.65268E-19
1.54212E-05 5.29425E-19
1.71822E-05 4.26555E-19
1.90385E-05 3.47453E-19
2.09899E-05 2.85970E-19
2.30365E-05 2.37495E-19
2.51783E-05 1.98853E-19
2.74153E-05 1.67747E-19
2.97475E-05 1.42486E-19
3.21749E-05 1.21806E-19
3.46974E-05 1.04750E-19
3.73152E-05 9.05833E-20
4.00281E-05 7.87372E-20
4.28362E-05 6.87685E-20
4.57395E-05 6.03291E-20
4.87380E-05 5.31448E-20
5.18317E-05 4.69977E-20
5.50205E-05 4.17135E-20
5.83045E-05 3.71513E-20
6.16838E-05 3.31965E-20
6.51582E-05 2.97550E-20
6.87277E-05 2.67489E-20
7.23925E-05 2.41136E-20
7.61524E-05 2.18123E-20
9.21439E-05 1.49071E-20
1.09658E-04 1.05309E-20
1.28695E-04 7.64976E-21
1.49255E-04 5.68974E-21
1.71338E-04 4.31936E-21
1.94942E-04 3.33770E-21
2.20070E-04 2.61972E-21
2.46720E-04 2.08478E-21
2.74892E-04 1.67958E-21
3.04586E-04 1.36818E-21
3.35803E-04 1.12564E-21
3.68542E-04 9.34492E-22
4.02802E-04 7.82196E-22
4.38585E-04 6.59649E-22
4.75889E-04 5.60148E-22
5.14715E-04 4.78677E-22
5.55063E-04 4.11460E-22
5.96931E-04 3.55603E-22
6.40321E-04 3.08881E-22
6.85233E-04 2.69559E-22
7.31665E-04 2.36274E-22
7.79618E-04 2.07949E-22
8.29092E-04 1.83723E-22
8.80086E-04 1.62906E-22
9.32601E-04 1.44938E-22
9.86636E-04 1.29364E-22
1.04219E-03 1.15813E-22
1.09927E-03 1.03977E-22
1.15786E-03 9.36026E-23
1.21797E-03 8.44793E-23
1.27961E-03 7.64306E-23
1.34276E-03 6.93085E-23
1.40743E-03 6.29881E-23
1.47362E-03 5.73638E-23
1.54133E-03 5.23460E-23
1.61056E-03 4.78580E-23
1.68131E-03 4.38344E-23
1.75357E-03 4.02189E-23
1.82735E-03 3.69630E-23
1.90265E-03 3.40248E-23
1.97947E-03 3.13680E-23
2.05780E-03 2.89610E-23
2.13765E-03 2.67763E-23
2.21902E-03 2.47899E-23
2.30190E-03 2.29806E-23
2.38630E-03 2.13300E-23
2.47222E-03 1.98217E-23
2.55965E-03 1.84414E-23
2.64859E-03 1.71764E-23
2.73905E-03 1.60153E-23
2.83103E-03 1.49483E-23
2.92452E-03 1.39662E-23
3.01952E-03 1.30614E-23
3.11604E-03 1.22265E-23
3.21407E-03 1.14553E-23
3.31362E-03 1.07422E-23
3.41468E-03 1.00819E-23
3.51725E-03 9.47001E-24
3.62133E-03 8.90225E-24
3.72692E-03 8.37494E-24
3.83403E-03 7.88472E-24
3.94265E-03 7.42853E-24
4.05278E-03 7.00361E-24
4.16442E-03 6.60747E-24
4.27757E-03 6.23783E-24
4.39223E-03 5.89262E-24
4.50840E-03 5.56996E-24
4.62608E-03 5.26812E-24
4.74527E-03 4.98555E-24
4.86597E-03 4.72081E-24
4.98817E-03 4.47259E-24
5.11188E-03 4.23970E-24
5.23711E-03 4.02102E-24
5.36383E-03 3.81555E-24
5.49207E-03 3.62237E-24
5.62181E-03 3.44062E-24
5.75306E-03 3.26951E-24
5.88581E-03 3.10833E-24
6.02007E-03 2.95639E-24
6.15583E-03 2.81310E-24
6.29310E-03 2.67787E-24
6.43187E-03 2.55019E-24
6.57214E-03 2.42957E-24
6.71392E-03 2.31554E-24
6.85720E-03 2.20771E-24
7.00198E-03 2.10567E-24
7.14827E-03 2.00908E-24
7.29605E-03 1.91758E-24
7.44534E-03 1.83088E-24
7.59612E-03 1.74869E-24
7.97965E-03 1.56118E-24
8.37255E-03 1.39645E-24
8.77480E-03 1.25135E-24
9.18641E-03 1.12324E-24
9.60736E-03 1.00986E-24
1.00376E-02 9.09301E-25
1.04773E-02 8.19919E-25
1.09262E-02 7.40317E-25
1.13844E-02 6.69291E-25
1.18520E-02 6.05805E-25
1.23288E-02 5.48960E-25
1.28150E-02 4.97981E-25
1.33104E-02 4.52191E-25
1.38150E-02 4.11002E-25
1.43290E-02 3.73900E-25
1.48521E-02 3.40435E-25
1.53845E-02 3.10212E-25
1.59262E-02 2.82885E-25
1.64770E-02 2.58149E-25
1.70371E-02 2.35732E-25
1.76063E-02 2.15396E-25
1.81848E-02 1.96931E-25
1.87724E-02 1.80147E-25
1.93692E-02 1.64880E-25
1.99751E-02 1.50979E-25
2.05901E-02 1.38312E-25
2.12143E-02 1.26761E-25
2.18476E-02 1.16220E-25
2.24900E-02 1.06594E-25
2.31415E-02 9.77974E-26
2.38021E-02 8.97545E-26
2.44717E-02 8.23960E-26
2.51504E-02 7.56601E-26
2.58382E-02 6.94908E-26
2.65349E-02 6.38377E-26
2.72407E-02 5.86552E-26
2.79555E-02 5.39022E-26
2.86793E-02 4.95412E-26
2.94120E-02 4.55384E-26
3.01537E-02 4.18631E-26
3.09043E-02 3.84873E-26
3.16639E-02 3.53858E-26
3.24324E-02 3.25355E-26
3.32098E-02 2.99153E-26
3.39961E-02 2.75061E-26
3.47912E-02 2.52905E-26
3.55952E-02 2.32525E-26
3.64081E-02 2.13776E-26
3.72297E-02 1.96525E-26
3.80602E-02 1.80650E-26
3.88995E-02 1.66040E-26
3.97476E-02 1.52593E-26
4.06044E-02 1.40215E-26
4.14700E-02 1.28822E-26
4.23443E-02 1.18334E-26
4.32273E-02 1.08680E-26
4.41190E-02 9.97934E-27
4.50194E-02 9.16135E-27
4.59284E-02 8.40845E-27
4.68461E-02 7.71552E-27
4.87074E-02 6.49105E-27
5.06030E-02 5.45453E-27
5.25328E-02 4.57767E-27
5.44967E-02 3.83644E-27
5.64946E-02 3.21043E-27
5.85262E-02 2.68231E-27
6.05914E-02 2.23731E-27
6.26901E-02 1.86287E-27
6.48222E-02 1.54829E-27
6.69873E-02 1.28445E-27
6.91854E-02 1.06359E-27
7.14163E-02 8.79083E-28
7.36799E-02 7.25296E-28
7.59760E-02 5.97428E-28
7.83043E-02 4.91392E-28
8.06647E-02 4.03713E-28
8.30571E-02 3.31435E-28
8.54812E-02 2.72051E-28
8.79369E-02 2.23433E-28
9.04240E-02 1.83779E-28
9.29422E-02 1.51565E-28
9.54915E-02 1.25506E-28
9.80716E-02 1.04519E-28
1.00682E-01 8.76921E-29
1.03323E-01 7.42629E-29
1.05995E-01 6.35933E-29
1.08696E-01 5.51517E-29
1.11427E-01 4.84969E-29
1.14188E-01 4.32639E-29
1.16978E-01 3.91527E-29
1.19797E-01 3.59172E-29
1.22645E-01 3.33576E-29
1.25522E-01 3.13120E-29
1.28428E-01 2.96509E-29
1.31361E-01 2.82712E-29
1.34323E-01 2.70921E-29
1.37313E-01 2.60508E-29
1.40330E-01 2.50996E-29
1.43375E-01 2.42028E-29
1.46447E-01 2.33345E-29
1.49545E-01 2.24767E-29
1.52671E-01 2.16178E-29
1.55823E-01 2.07507E-29
1.59001E-01 1.98722E-29
1.62205E-01 1.89819E-29
1.65435E-01 1.80814E-29
1.68690E-01 1.71738E-29
1.71970E-01 1.62630E-29
1.75276E-01 1.53536E-29
1.78606E-01 1.44502E-29
1.81961E-01 1.35576E-29
1.85340E-01 1.26804E-29
1.88743E-01 1.18228E-29
1.92169E-01 1.09886E-29
1.95619E-01 1.01813E-29
1.99092E-01 9.40359E-30
2.02589E-01 8.65802E-30
2.06107E-01 7.94645E-30
2.09649E-01 7.27031E-30
2.13212E-01 6.63056E-30
2.16797E-01 6.02777E-30
2.20404E-01 5.46210E-30
2.24032E-01 4.93338E-30
2.27680E-01 4.44113E-30
2.31350E-01 3.98461E-30
2.35040E-01 3.56285E-30
2.38751E-01 3.17468E-30
2.42481E-01 2.81880E-30
2.46231E-01 2.49375E-30
2.50000E-01 2.19802E-30
2.53788E-01 1.93001E-30
2.57595E-01 1.68808E-30
2.61421E-01 1.47058E-30
2.65264E-01 1.27584E-30
2.69126E-01 1.10225E-30
2.73005E-01 9.48181E-31
2.76901E-01 8.12082E-31
2.80814E-01 6.92440E-31
2.84744E-01 5.87808E-31
2.88691E-01 4.96803E-31
2.92653E-01 4.18115E-31
2.96632E-01 3.50508E-31
3.00625E-01 2.92824E-31
3.04634E-01 2.43981E-31
3.08658E-01 2.02973E-31
3.12697E-01 1.68873E-31
3.16749E-01 1.40827E-31
3.20816E-01 1.18052E-31
3.24896E-01 9.98362E-32
3.28990E-01 8.55343E-32
3.33097E-01 7.45637E-32
3.37216E-01 6.64016E-32
3.41348E-01 6.05816E-32
3.45492E-01 5.66895E-32
3.49647E-01 5.43599E-32
3.53814E-01 5.32724E-32
3.57992E-01 5.31481E-32
3.62181E-01 5.37459E-32
3.66381E-01 5.48595E-32
3.70590E-01 5.63136E-32
3.74810E-01 5.79610E-32
3.79039E-01 5.96802E-32
3.83277E-01 6.13716E-32
3.87524E-01 6.29559E-32
3.91780E-01 6.43713E-32
3.96044E-01 6.55711E-32
4.00316E-01 6.65221E-32
4.04596E-01 6.72022E-32
4.08882E-01 6.75992E-32
4.13176E-01 6.77090E-32
4.17476E-01 6.75343E-32
4.21783E-01 6.70834E-32
4.26095E-01 6.63687E-32
4.30413E-01 6.54065E-32
4.34737E-01 6.42153E-32
4.39065E-01 6.28157E-32
4.43398E-01 6.12293E-32
4.47736E-01 5.94785E-32
4.52077E-01 5.75858E-32
4.56422E-01 5.55736E-32
4.60770E-01 5.34634E-32
4.65122E-01 5.12764E-32
4.69476E-01 4.90324E-32
4.73832E-01 4.67503E-32
4.78190E-01 4.44474E-32
4.82550E-01 4.21399E-32
4.86912E-01 3.98426E-32
4.91274E-01 3.75687E-32
4.95637E-01 3.53300E-32
5.00000E-01 3.31371E-32
5.04363E-01 3.09990E-32
5.08726E-01 2.89235E-32
5.13088E-01 2.69172E-32
5.17450E-01 2.49854E-32
5.21810E-01 2.31324E-32
5.26168E-01 2.13614E-32
5.30524E-01 1.96747E-32
5.34878E-01 1.80738E-32
5.39230E-01 1.65594E-32
5.43578E-01 1.51313E-32
5.47923E-01 1.37890E-32
5.52264E-01 1.25312E-32
5.56602E-01 1.13564E-32
5.60935E-01 1.02623E-32
5.65263E-01 9.24658E-33
5.69587E-01 8.30654E-33
5.73905E-01 7.43923E-33
5.78217E-01 6.64154E-33
5.82524E-01 5.91022E-33
5.86824E-01 5.24191E-33
5.91118E-01 4.63324E-33
5.95404E-01 4.08078E-33
5.99684E-01 3.58111E-33
6.03956E-01 3.13087E-33
6.08220E-01 2.72673E-33
6.12476E-01 2.36545E-33
6.16723E-01 2.04389E-33
6.20961E-01 1.75898E-33
6.25190E-01 1.50781E-33
6.29410E-01 1.28756E-33
6.33619E-01 1.09556E-33
6.37819E-01 9.29267E-34
6.42008E-01 7.86279E-34
6.46186E-01 6.64333E-34
6.50353E-01 5.61304E-34
6.54508E-01 4.75206E-34
6.58652E-01 4.04190E-34
6.62784E-01 3.46537E-34
6.66903E-01 3.00660E-34
6.71010E-01 2.65096E-34
6.75104E-01 2.38501E-34
6.79184E-01 2.19647E-34
6.83251E-01 2.07414E-34
6.87303E-01 2.00788E-34
6.91342E-01 1.98851E-34
6.95366E-01 2.00779E-34
6.99375E-01 2.05833E-34
7.03368E-01 2.13356E-34
7.07347E-01 2.22766E-34
7.11309E-01 2.33549E-34
7.15256E-01 2.45257E-34
7.19186E-01 2.57501E-34
7.23099E-01 2.69945E-34
7.26995E-01 2.82304E-34
7.30874E-01 2.94338E-34
7.34736E-01 3.05845E-34
7.38579E-01 3.16662E-34
7.42405E-01 3.26659E-34
7.46212E-01 3.35734E-34
7.50000E-01 3.43813E-34
7.53769E-01 3.50841E-34
7.57519E-01 3.56789E-34
7.61249E-01 3.61639E-34
7.64960E-01 3.65394E-34
7.68650E-01 3.68066E-34
7.72320E-01 3.69679E-34
7.75968E-01 3.70267E-34
7.79596E-01 3.69871E-34
7.83203E-01 3.68537E-34
7.86788E-01 3.66316E-34
7.90351E-01 3.63264E-34
7.93893E-01 3.59438E-34
7.97411E-01 3.54897E-34
8.00908E-01 3.49701E-34
8.04381E-01 3.43909E-34
8.07831E-01 3.37581E-34
8.11257E-01 3.30775E-34
8.14660E-01 3.23548E-34
8.18039E-01 3.15954E-34
8.21394E-01 3.08047E-34
8.24724E-01 2.99877E-34
8.28030E-01 2.91493E-34
8.31310E-01 2.82938E-34
8.34565E-01 2.74257E-34
8.37795E-01 2.65489E-34
8.40999E-01 2.56671E-34
8.44177E-01 2.47838E-34
8.47329E-01 2.39021E-34
8.50455E-01 2.30249E-34
8.53553E-01 2.21549E-34
8.56625E-01 2.12945E-34
8.59670E-01 2.04457E-34
8.62687E-01 1.96105E-34
8.65677E-01 1.87905E-34
8.68639E-01 1.79873E-34
8.71572E-01 1.72021E-34
8.74478E-01 1.64360E-34
8.77355E-01 1.56898E-34
8.80203E-01 1.49644E-34
8.83022E-01 1.42603E-34
8.85812E-01 1.35780E-34
8.88573E-01 1.29178E-34
8.91304E-01 1.22799E-34
8.94005E-01 1.16644E-34
8.96677E-01 1.10713E-34
8.99318E-01 1.05005E-34
9.01928E-01 9.95180E-35
9.04508E-01 9.42500E-35
9.07058E-01 8.91978E-35
9.09576E-01 8.43579E-35
9.12063E-01 7.97262E-35
9.14519E-01 7.52982E-35
9.16943E-01 7.10690E-35
9.19335E-01 6.70336E-35
9.21696E-01 6.31865E-35
9.24024E-01 5.95223E-35
9.26320E-01 5.60351E-35
9.28584E-01 5.27192E-35
9.30815E-01 4.95688E-35
9.33013E-01 4.65778E-35
9.35178E-01 4.37404E-35
9.37310E-01 4.10506E-35
9.39409E-01 3.85026E-35
9.41474E-01 3.60907E-35
9.43505E-01 3.38089E-35
9.45503E-01 3.16519E-35
9.47467E-01 2.96140E-35
9.49397E-01 2.76899E-35
9.51293E-01 2.58742E-35
9.53154E-01 2.41621E-35
9.54981E-01 2.25484E-35
9.56773E-01 2.10284E-35
9.58530E-01 1.95974E-35
9.60252E-01 1.82510E-35
9.61940E-01 1.69847E-35
9.63592E-01 1.57946E-35
9.65209E-01 1.46765E-35
9.66790E-01 1.36267E-35
9.68336E-01 1.26414E-35
9.69846E-01 1.17172E-35
9.71321E-01 1.08507E-35
9.72759E-01 1.00387E-35
9.74162E-01 9.27810E-36
9.75528E-01 8.56604E-36
9.76858E-01 7.89974E-36
9.78152E-01 7.27655E-36
9.79410E-01 6.69401E-36
9.80631E-01 6.14973E-36
9.81815E-01 5.64145E-36
9.82963E-01 5.16708E-36
9.84074E-01 4.72458E-36
9.85148E-01 4.31208E-36
9.86185E-01 3.92778E-36
9.87185E-01 3.57005E-36
9.88148E-01 3.23721E-36
9.89074E-01 2.92784E-36
9.89962E-01 2.64053E-36
9.90814E-01 2.37398E-36
9.91627E-01 2.12693E-36
9.92404E-01 1.89827E-36
9.93143E-01 1.68692E-36
9.93844E-01 1.49186E-36
9.94508E-01 1.31219E-36
9.95134E-01 1.14703E-36
9.95722E-01 9.95613E-37
9.96273E-01 8.57181E-37
9.96786E-01 7.31082E-37
9.97261E-01 6.16670E-37
9.97698E-01 5.13405E-37
9.98097E-01 4.20752E-37
9.98459E-01 3.38278E-37
9.98782E-01 2.65561E-37
9.99067E-01 2.02241E-37
9.99315E-01 1.47993E-37
9.99524E-01 1.02545E-37
9.99695E-01 6.56703E-38
9.99829E-01 3.71750E-38
9.99924E-01 1.69335E-38
9.99981E-01 4.81997E-39
1.00000E+00 7.97246E-40
