 #
 # Subroutine ELSEPA. Elastic scattering of electrons and positrons
 #                    by neutral atoms and positive ions
 #
 # Projectile: positron
 # Kinetic energy = 2.50000E+08 eV = 9.18733E+06 a.u.
 #
 # WARNING: High-energy factorization with free-atom DF screening.
 #          Absorption, polarization and exchange corrections are
 #          switched off.
 #          Phase shifts are calculated for the bare nucleus.
 #          Scattering amplitudes are not evaluated.
 #
 # Element:  P,  Z =  15,  atomic weight = 3.09738E+01 g/mol
 #
 # Nuclear model: Fermi distribution
 #                Average radius = 3.36033E-13 cm
 #                Skin thickness = 5.46000E-14 cm
 #
 # Number of electrons = 15
 #
 # Total elastic cross section = 9.75818E-19 cm**2 = 3.48471E-02 a0**2
 # 1st transport cross section = 7.68699E-27 cm**2 = 2.74507E-10 a0**2
 # 2nd transport cross section = 2.30051E-26 cm**2 = 8.21527E-10 a0**2
 #
 #
 # Differential cross section:                       MU=(1-COS(THETA))/2
 #
 #  THETA        MU          DCS          DCS        Sherman      error
 #  (deg)                 (cm**2/sr)   (a0**2/sr)    function
 #----------------------------------------------------------------------
0.00000E+00 7.20444E-10
7.61557E-13 7.10357E-10
1.18994E-12 7.04779E-10
1.71346E-12 6.98047E-10
2.33225E-12 6.90210E-10
3.04617E-12 6.81323E-10
3.85530E-12 6.71443E-10
4.75964E-12 6.60635E-10
5.75917E-12 6.48976E-10
6.85391E-12 6.36540E-10
8.04379E-12 6.23400E-10
9.32893E-12 6.09625E-10
1.07092E-11 5.95308E-10
1.21847E-11 5.80529E-10
1.37554E-11 5.65360E-10
1.54213E-11 5.49862E-10
1.71823E-11 5.34129E-10
1.90386E-11 5.18231E-10
2.09900E-11 5.02237E-10
2.30367E-11 4.86181E-10
2.51785E-11 4.69869E-10
2.74156E-11 4.53174E-10
2.97478E-11 4.36998E-10
3.21752E-11 4.21364E-10
3.46979E-11 4.06287E-10
3.73157E-11 3.91775E-10
4.00286E-11 3.76712E-10
4.28368E-11 3.61614E-10
4.57402E-11 3.47184E-10
4.87388E-11 3.33407E-10
5.18325E-11 3.20268E-10
5.50215E-11 3.07749E-10
5.83057E-11 2.94539E-10
6.16850E-11 2.81919E-10
6.51595E-11 2.69947E-10
6.87293E-11 2.58592E-10
7.23943E-11 2.47826E-10
7.61544E-11 2.37364E-10
1.18991E-10 1.51481E-10
1.71347E-10 9.71772E-11
2.33223E-10 6.37976E-11
3.04617E-10 4.32453E-11
3.85531E-10 3.03680E-11
4.75965E-10 2.20863E-11
5.75917E-10 1.65854E-11
6.85389E-10 1.28058E-11
8.04380E-10 1.01212E-11
9.32891E-10 8.15481E-12
1.07092E-09 6.67505E-12
1.21847E-09 5.53430E-12
1.37554E-09 4.63618E-12
1.54213E-09 3.91594E-12
1.71823E-09 3.33140E-12
1.90386E-09 2.85142E-12
2.09900E-09 2.45338E-12
2.30367E-09 2.11985E-12
2.51785E-09 1.83745E-12
2.74156E-09 1.59816E-12
2.97478E-09 1.39996E-12
3.21752E-09 1.22509E-12
3.46978E-09 1.07874E-12
3.73156E-09 9.50900E-13
4.00286E-09 8.41403E-13
4.28368E-09 7.46530E-13
4.57402E-09 6.63803E-13
4.87388E-09 5.92361E-13
5.18326E-09 5.29278E-13
5.50215E-09 4.74712E-13
5.83057E-09 4.26250E-13
6.16850E-09 3.83963E-13
6.51596E-09 3.46530E-13
6.87293E-09 3.13489E-13
7.23942E-09 2.84247E-13
7.61544E-09 2.58213E-13
1.18991E-08 1.09785E-13
1.71347E-08 5.43289E-14
2.33223E-08 3.00058E-14
3.04617E-08 1.79571E-14
3.85531E-08 1.14160E-14
4.75965E-08 7.60696E-15
5.75917E-08 5.26307E-15
6.85389E-08 3.75586E-15
8.04380E-08 2.75069E-15
9.32891E-08 2.05964E-15
1.07092E-07 1.57203E-15
1.21847E-07 1.22013E-15
1.37554E-07 9.61138E-16
1.54213E-07 7.67157E-16
1.71823E-07 6.19602E-16
1.90386E-07 5.05784E-16
2.09900E-07 4.16876E-16
2.30367E-07 3.46629E-16
2.51785E-07 2.90539E-16
2.74156E-07 2.45330E-16
2.97478E-07 2.08566E-16
3.21752E-07 1.78426E-16
3.46978E-07 1.53530E-16
3.73156E-07 1.32823E-16
4.00286E-07 1.15487E-16
4.28368E-07 1.00887E-16
4.57402E-07 8.85194E-17
4.87388E-07 7.79886E-17
5.18325E-07 6.89769E-17
5.50215E-07 6.12289E-17
5.83057E-07 5.45380E-17
6.16850E-07 4.87359E-17
6.51596E-07 4.36847E-17
6.87293E-07 3.92709E-17
7.23942E-07 3.54004E-17
7.61543E-07 3.19950E-17
1.18991E-06 1.31147E-17
1.71347E-06 6.32632E-18
2.33223E-06 3.41504E-18
3.04617E-06 2.00172E-18
3.85531E-06 1.24958E-18
4.75964E-06 8.19797E-19
5.75916E-06 5.59895E-19
6.85388E-06 3.95296E-19
8.04378E-06 2.86975E-19
9.32888E-06 2.13342E-19
1.07092E-05 1.61880E-19
1.21846E-05 1.25040E-19
1.37553E-05 9.81073E-20
1.54212E-05 7.80507E-20
1.71822E-05 6.28669E-20
1.90385E-05 5.11969E-20
2.09899E-05 4.21187E-20
2.30365E-05 3.49666E-20
2.51783E-05 2.92698E-20
2.74153E-05 2.46867E-20
2.97475E-05 2.09659E-20
3.21749E-05 1.79200E-20
3.46974E-05 1.54076E-20
3.73152E-05 1.33204E-20
4.00281E-05 1.15750E-20
4.28362E-05 1.01065E-20
4.57395E-05 8.86373E-21
4.87380E-05 7.80622E-21
5.18317E-05 6.90176E-21
5.50205E-05 6.12451E-21
5.83045E-05 5.45358E-21
6.16838E-05 4.87201E-21
6.51582E-05 4.36592E-21
6.87277E-05 3.92387E-21
7.23925E-05 3.53638E-21
7.61524E-05 3.19166E-21
9.21439E-05 2.17876E-21
1.09658E-04 1.53740E-21
1.28695E-04 1.11551E-21
1.49255E-04 8.28790E-22
1.71338E-04 6.28480E-22
1.94942E-04 4.85137E-22
2.20070E-04 3.80381E-22
2.46720E-04 3.02402E-22
2.74892E-04 2.43390E-22
3.04586E-04 1.98075E-22
3.35803E-04 1.62813E-22
3.68542E-04 1.35044E-22
4.02802E-04 1.12939E-22
4.38585E-04 9.51663E-23
4.75889E-04 8.07474E-23
5.14715E-04 6.89509E-23
5.55063E-04 5.92256E-23
5.96931E-04 5.11505E-23
6.40321E-04 4.44009E-23
6.85233E-04 3.87246E-23
7.31665E-04 3.39233E-23
7.79618E-04 2.98404E-23
8.29092E-04 2.63508E-23
8.80086E-04 2.33541E-23
9.32601E-04 2.07694E-23
9.86636E-04 1.85305E-23
1.04219E-03 1.65835E-23
1.09927E-03 1.48841E-23
1.15786E-03 1.33954E-23
1.21797E-03 1.20870E-23
1.27961E-03 1.09333E-23
1.34276E-03 9.91296E-24
1.40743E-03 9.00796E-24
1.47362E-03 8.20304E-24
1.54133E-03 7.48524E-24
1.61056E-03 6.84353E-24
1.68131E-03 6.26847E-24
1.75357E-03 5.75195E-24
1.82735E-03 5.28698E-24
1.90265E-03 4.86754E-24
1.97947E-03 4.48840E-24
2.05780E-03 4.14502E-24
2.13765E-03 3.83346E-24
2.21902E-03 3.55024E-24
2.30190E-03 3.29235E-24
2.38630E-03 3.05713E-24
2.47222E-03 2.84225E-24
2.55965E-03 2.64563E-24
2.64859E-03 2.46547E-24
2.73905E-03 2.30013E-24
2.83103E-03 2.14820E-24
2.92452E-03 2.00839E-24
3.01952E-03 1.87958E-24
3.11604E-03 1.76073E-24
3.21407E-03 1.65096E-24
3.31362E-03 1.54945E-24
3.41468E-03 1.45547E-24
3.51725E-03 1.36835E-24
3.62133E-03 1.28753E-24
3.72692E-03 1.21245E-24
3.83403E-03 1.14265E-24
3.94265E-03 1.07768E-24
4.05278E-03 1.01715E-24
4.16442E-03 9.60718E-25
4.27757E-03 9.08045E-25
4.39223E-03 8.58842E-25
4.50840E-03 8.12840E-25
4.62608E-03 7.69794E-25
4.74527E-03 7.29484E-25
4.86597E-03 6.91703E-25
4.98817E-03 6.56267E-25
5.11188E-03 6.23005E-25
5.23711E-03 5.91761E-25
5.36383E-03 5.62391E-25
5.49207E-03 5.34763E-25
5.62181E-03 5.08757E-25
5.75306E-03 4.84261E-25
5.88581E-03 4.61173E-25
6.02007E-03 4.39397E-25
6.15583E-03 4.18846E-25
6.29310E-03 3.99440E-25
6.43187E-03 3.81105E-25
6.57214E-03 3.63770E-25
6.71392E-03 3.47373E-25
6.85720E-03 3.31854E-25
7.00198E-03 3.17158E-25
7.14827E-03 3.03234E-25
7.29605E-03 2.90034E-25
7.44534E-03 2.77515E-25
7.59612E-03 2.65636E-25
7.97965E-03 2.38493E-25
8.37255E-03 2.14588E-25
8.77480E-03 1.93475E-25
9.18641E-03 1.74781E-25
9.60736E-03 1.58185E-25
1.00376E-02 1.43418E-25
1.04773E-02 1.30247E-25
1.09262E-02 1.18475E-25
1.13844E-02 1.07931E-25
1.18520E-02 9.84683E-26
1.23288E-02 8.99597E-26
1.28150E-02 8.22951E-26
1.33104E-02 7.53787E-26
1.38150E-02 6.91271E-26
1.43290E-02 6.34673E-26
1.48521E-02 5.83355E-26
1.53845E-02 5.36754E-26
1.59262E-02 4.94377E-26
1.64770E-02 4.55790E-26
1.70371E-02 4.20606E-26
1.76063E-02 3.88485E-26
1.81848E-02 3.59125E-26
1.87724E-02 3.32258E-26
1.93692E-02 3.07644E-26
1.99751E-02 2.85069E-26
2.05901E-02 2.64344E-26
2.12143E-02 2.45297E-26
2.18476E-02 2.27775E-26
2.24900E-02 2.11642E-26
2.31415E-02 1.96774E-26
2.38021E-02 1.83059E-26
2.44717E-02 1.70398E-26
2.51504E-02 1.58700E-26
2.58382E-02 1.47884E-26
2.65349E-02 1.37875E-26
2.72407E-02 1.28607E-26
2.79555E-02 1.20018E-26
2.86793E-02 1.12054E-26
2.94120E-02 1.04663E-26
3.01537E-02 9.78014E-27
3.09043E-02 9.14260E-27
3.16639E-02 8.54993E-27
3.24324E-02 7.99865E-27
3.32098E-02 7.48558E-27
3.39961E-02 7.00782E-27
3.47912E-02 6.56271E-27
3.55952E-02 6.14781E-27
3.64081E-02 5.76089E-27
3.72297E-02 5.39988E-27
3.80602E-02 5.06290E-27
3.88995E-02 4.74822E-27
3.97476E-02 4.45423E-27
4.06044E-02 4.17947E-27
4.14700E-02 3.92257E-27
4.23443E-02 3.68228E-27
4.32273E-02 3.45745E-27
4.41190E-02 3.24700E-27
4.50194E-02 3.04996E-27
4.59284E-02 2.86540E-27
4.68461E-02 2.69247E-27
4.87074E-02 2.37848E-27
5.06030E-02 2.10235E-27
5.25328E-02 1.85927E-27
5.44967E-02 1.64508E-27
5.64946E-02 1.45615E-27
5.85262E-02 1.28938E-27
6.05914E-02 1.14206E-27
6.26901E-02 1.01181E-27
6.48222E-02 8.96596E-28
6.69873E-02 7.94617E-28
6.91854E-02 7.04307E-28
7.14163E-02 6.24292E-28
7.36799E-02 5.53372E-28
7.59760E-02 4.90489E-28
7.83043E-02 4.34716E-28
8.06647E-02 3.85236E-28
8.30571E-02 3.41331E-28
8.54812E-02 3.02366E-28
8.79369E-02 2.67782E-28
9.04240E-02 2.37083E-28
9.29422E-02 2.09834E-28
9.54915E-02 1.85646E-28
9.80716E-02 1.64177E-28
1.00682E-01 1.45124E-28
1.03323E-01 1.28218E-28
1.05995E-01 1.13219E-28
1.08696E-01 9.99147E-29
1.11427E-01 8.81179E-29
1.14188E-01 7.76608E-29
1.16978E-01 6.83945E-29
1.19797E-01 6.01869E-29
1.22645E-01 5.29202E-29
1.25522E-01 4.64897E-29
1.28428E-01 4.08023E-29
1.31361E-01 3.57751E-29
1.34323E-01 3.13343E-29
1.37313E-01 2.74141E-29
1.40330E-01 2.39561E-29
1.43375E-01 2.09082E-29
1.46447E-01 1.82240E-29
1.49545E-01 1.58623E-29
1.52671E-01 1.37863E-29
1.55823E-01 1.19634E-29
1.59001E-01 1.03644E-29
1.62205E-01 8.96357E-30
1.65435E-01 7.73778E-30
1.68690E-01 6.66663E-30
1.71970E-01 5.73194E-30
1.75276E-01 4.91757E-30
1.78606E-01 4.20919E-30
1.81961E-01 3.59407E-30
1.85340E-01 3.06094E-30
1.88743E-01 2.59979E-30
1.92169E-01 2.20176E-30
1.95619E-01 1.85902E-30
1.99092E-01 1.56462E-30
2.02589E-01 1.31243E-30
2.06107E-01 1.09705E-30
2.09649E-01 9.13689E-31
2.13212E-01 7.58144E-31
2.16797E-01 6.26709E-31
2.20404E-01 5.16125E-31
2.24032E-01 4.23531E-31
2.27680E-01 3.46417E-31
2.31350E-01 2.82585E-31
2.35040E-01 2.30113E-31
2.38751E-01 1.87323E-31
2.42481E-01 1.52753E-31
2.46231E-01 1.25133E-31
2.50000E-01 1.03357E-31
2.53788E-01 8.64721E-32
2.57595E-01 7.36520E-32
2.61421E-01 6.41865E-32
2.65264E-01 5.74654E-32
2.69126E-01 5.29669E-32
2.73005E-01 5.02457E-32
2.76901E-01 4.89241E-32
2.80814E-01 4.86827E-32
2.84744E-01 4.92534E-32
2.88691E-01 5.04119E-32
2.92653E-01 5.19724E-32
2.96632E-01 5.37822E-32
3.00625E-01 5.57166E-32
3.04634E-01 5.76756E-32
3.08658E-01 5.95801E-32
3.12697E-01 6.13684E-32
3.16749E-01 6.29940E-32
3.20816E-01 6.44230E-32
3.24896E-01 6.56321E-32
3.28990E-01 6.66065E-32
3.33097E-01 6.73392E-32
3.37216E-01 6.78286E-32
3.41348E-01 6.80780E-32
3.45492E-01 6.80945E-32
3.49647E-01 6.78882E-32
3.53814E-01 6.74713E-32
3.57992E-01 6.68576E-32
3.62181E-01 6.60622E-32
3.66381E-01 6.51004E-32
3.70590E-01 6.39884E-32
3.74810E-01 6.27420E-32
3.79039E-01 6.13771E-32
3.83277E-01 5.99089E-32
3.87524E-01 5.83523E-32
3.91780E-01 5.67215E-32
3.96044E-01 5.50299E-32
4.00316E-01 5.32901E-32
4.04596E-01 5.15139E-32
4.08882E-01 4.97124E-32
4.13176E-01 4.78956E-32
4.17476E-01 4.60727E-32
4.21783E-01 4.42522E-32
4.26095E-01 4.24416E-32
4.30413E-01 4.06478E-32
4.34737E-01 3.88768E-32
4.39065E-01 3.71340E-32
4.43398E-01 3.54240E-32
4.47736E-01 3.37509E-32
4.52077E-01 3.21181E-32
4.56422E-01 3.05285E-32
4.60770E-01 2.89845E-32
4.65122E-01 2.74879E-32
4.69476E-01 2.60403E-32
4.73832E-01 2.46428E-32
4.78190E-01 2.32961E-32
4.82550E-01 2.20006E-32
4.86912E-01 2.07563E-32
4.91274E-01 1.95633E-32
4.95637E-01 1.84210E-32
5.00000E-01 1.73290E-32
5.04363E-01 1.62865E-32
5.08726E-01 1.52926E-32
5.13088E-01 1.43462E-32
5.17450E-01 1.34463E-32
5.21810E-01 1.25915E-32
5.26168E-01 1.17807E-32
5.30524E-01 1.10124E-32
5.34878E-01 1.02852E-32
5.39230E-01 9.59761E-33
5.43578E-01 8.94827E-33
5.47923E-01 8.33566E-33
5.52264E-01 7.75828E-33
5.56602E-01 7.21466E-33
5.60935E-01 6.70334E-33
5.65263E-01 6.22286E-33
5.69587E-01 5.77180E-33
5.73905E-01 5.34876E-33
5.78217E-01 4.95237E-33
5.82524E-01 4.58129E-33
5.86824E-01 4.23423E-33
5.91118E-01 3.90994E-33
5.95404E-01 3.60719E-33
5.99684E-01 3.32480E-33
6.03956E-01 3.06166E-33
6.08220E-01 2.81666E-33
6.12476E-01 2.58877E-33
6.16723E-01 2.37697E-33
6.20961E-01 2.18032E-33
6.25190E-01 1.99789E-33
6.29410E-01 1.82882E-33
6.33619E-01 1.67227E-33
6.37819E-01 1.52744E-33
6.42008E-01 1.39360E-33
6.46186E-01 1.27002E-33
6.50353E-01 1.15603E-33
6.54508E-01 1.05098E-33
6.58652E-01 9.54283E-34
6.62784E-01 8.65357E-34
6.66903E-01 7.83665E-34
6.71010E-01 7.08700E-34
6.75104E-01 6.39985E-34
6.79184E-01 5.77070E-34
6.83251E-01 5.19532E-34
6.87303E-01 4.66977E-34
6.91342E-01 4.19032E-34
6.95366E-01 3.75351E-34
6.99375E-01 3.35607E-34
7.03368E-01 2.99496E-34
7.07347E-01 2.66735E-34
7.11309E-01 2.37058E-34
7.15256E-01 2.10218E-34
7.19186E-01 1.85986E-34
7.23099E-01 1.64146E-34
7.26995E-01 1.44500E-34
7.30874E-01 1.26862E-34
7.34736E-01 1.11062E-34
7.38579E-01 9.69394E-35
7.42405E-01 8.43478E-35
7.46212E-01 7.31507E-35
7.50000E-01 6.32222E-35
7.53769E-01 5.44453E-35
7.57519E-01 4.67134E-35
7.61249E-01 3.99270E-35
7.64960E-01 3.39954E-35
7.68650E-01 2.88346E-35
7.72320E-01 2.43678E-35
7.75968E-01 2.05243E-35
7.79596E-01 1.72394E-35
7.83203E-01 1.44539E-35
7.86788E-01 1.21141E-35
7.90351E-01 1.01699E-35
7.93893E-01 8.57645E-36
7.97411E-01 7.29283E-36
8.00908E-01 6.28166E-36
8.04381E-01 5.50898E-36
8.07831E-01 4.94473E-36
8.11257E-01 4.56059E-36
8.14660E-01 4.33147E-36
8.18039E-01 4.23492E-36
8.21394E-01 4.25072E-36
8.24724E-01 4.36051E-36
8.28030E-01 4.54827E-36
8.31310E-01 4.79927E-36
8.34565E-01 5.10068E-36
8.37795E-01 5.44095E-36
8.40999E-01 5.80963E-36
8.44177E-01 6.19859E-36
8.47329E-01 6.59924E-36
8.50455E-01 7.00554E-36
8.53553E-01 7.41087E-36
8.56625E-01 7.81027E-36
8.59670E-01 8.19995E-36
8.62687E-01 8.57567E-36
8.65677E-01 8.93469E-36
8.68639E-01 9.27432E-36
8.71572E-01 9.59229E-36
8.74478E-01 9.88741E-36
8.77355E-01 1.01582E-35
8.80203E-01 1.04041E-35
8.83022E-01 1.06242E-35
8.85812E-01 1.08182E-35
8.88573E-01 1.09861E-35
8.91304E-01 1.11283E-35
8.94005E-01 1.12444E-35
8.96677E-01 1.13355E-35
8.99318E-01 1.14015E-35
9.01928E-01 1.14436E-35
9.04508E-01 1.14627E-35
9.07058E-01 1.14592E-35
9.09576E-01 1.14344E-35
9.12063E-01 1.13888E-35
9.14519E-01 1.13239E-35
9.16943E-01 1.12400E-35
9.19335E-01 1.11389E-35
9.21696E-01 1.10213E-35
9.24024E-01 1.08882E-35
9.26320E-01 1.07406E-35
9.28584E-01 1.05796E-35
9.30815E-01 1.04061E-35
9.33013E-01 1.02216E-35
9.35178E-01 1.00263E-35
9.37310E-01 9.82161E-36
9.39409E-01 9.60868E-36
9.41474E-01 9.38765E-36
9.43505E-01 9.15984E-36
9.45503E-01 8.92636E-36
9.47467E-01 8.68770E-36
9.49397E-01 8.44471E-36
9.51293E-01 8.19777E-36
9.53154E-01 7.94817E-36
9.54981E-01 7.69614E-36
9.56773E-01 7.44246E-36
9.58530E-01 7.18793E-36
9.60252E-01 6.93284E-36
9.61940E-01 6.67794E-36
9.63592E-01 6.42362E-36
9.65209E-01 6.17019E-36
9.66790E-01 5.91861E-36
9.68336E-01 5.66918E-36
9.69846E-01 5.42193E-36
9.71321E-01 5.17753E-36
9.72759E-01 4.93644E-36
9.74162E-01 4.69861E-36
9.75528E-01 4.46482E-36
9.76858E-01 4.23496E-36
9.78152E-01 4.00981E-36
9.79410E-01 3.78900E-36
9.80631E-01 3.57320E-36
9.81815E-01 3.36224E-36
9.82963E-01 3.15688E-36
9.84074E-01 2.95692E-36
9.85148E-01 2.76256E-36
9.86185E-01 2.57407E-36
9.87185E-01 2.39141E-36
9.88148E-01 2.21498E-36
9.89074E-01 2.04478E-36
9.89962E-01 1.88088E-36
9.90814E-01 1.72337E-36
9.91627E-01 1.57228E-36
9.92404E-01 1.42797E-36
9.93143E-01 1.29019E-36
9.93844E-01 1.15925E-36
9.94508E-01 1.03501E-36
9.95134E-01 9.17740E-37
9.95722E-01 8.07343E-37
9.96273E-01 7.03834E-37
9.96786E-01 6.07546E-37
9.97261E-01 5.17944E-37
9.97698E-01 4.35718E-37
9.98097E-01 3.60395E-37
9.98459E-01 2.92202E-37
9.98782E-01 2.31162E-37
9.99067E-01 1.77255E-37
9.99315E-01 1.30486E-37
9.99524E-01 9.09011E-38
9.99695E-01 5.84887E-38
9.99829E-01 3.33220E-38
9.99924E-01 1.53271E-38
9.99981E-01 4.51500E-39
1.00000E+00 8.99913E-40
