 #
 # Subroutine ELSEPA. Elastic scattering of electrons and positrons
 #                    by neutral atoms and positive ions
 #
 # Projectile: positron
 # Kinetic energy = 7.00000E+06 eV = 2.57245E+05 a.u.
 #
 # WARNING: High-energy factorization with free-atom DF screening.
 #          Absorption, polarization and exchange corrections are
 #          switched off.
 #          Phase shifts are calculated for the bare nucleus.
 #          Scattering amplitudes are not evaluated.
 #
 # Element:  P,  Z =  15,  atomic weight = 3.09738E+01 g/mol
 #
 # Nuclear model: Fermi distribution
 #                Average radius = 3.36033E-13 cm
 #                Skin thickness = 5.46000E-14 cm
 #
 # Number of electrons = 15
 #
 # Total elastic cross section = 9.80994E-19 cm**2 = 3.50319E-02 a0**2
 # 1st transport cross section = 6.26784E-24 cm**2 = 2.23829E-07 a0**2
 # 2nd transport cross section = 1.80918E-23 cm**2 = 6.46070E-07 a0**2
 #
 #
 # Differential cross section:                       MU=(1-COS(THETA))/2
 #
 #  THETA        MU          DCS          DCS        Sherman      error
 #  (deg)                 (cm**2/sr)   (a0**2/sr)    function
 #----------------------------------------------------------------------
0.00000E+00 6.47652E-13
7.61557E-13 6.47643E-13
1.18994E-12 6.47638E-13
1.71346E-12 6.47632E-13
2.33225E-12 6.47625E-13
3.04617E-12 6.47617E-13
3.85530E-12 6.47608E-13
4.75964E-12 6.47598E-13
5.75917E-12 6.47587E-13
6.85391E-12 6.47575E-13
8.04379E-12 6.47562E-13
9.32893E-12 6.47548E-13
1.07092E-11 6.47533E-13
1.21847E-11 6.47517E-13
1.37554E-11 6.47500E-13
1.54213E-11 6.47482E-13
1.71823E-11 6.47463E-13
1.90386E-11 6.47442E-13
2.09900E-11 6.47421E-13
2.30367E-11 6.47399E-13
2.51785E-11 6.47376E-13
2.74156E-11 6.47352E-13
2.97478E-11 6.47326E-13
3.21752E-11 6.47300E-13
3.46979E-11 6.47273E-13
3.73157E-11 6.47244E-13
4.00286E-11 6.47215E-13
4.28368E-11 6.47185E-13
4.57402E-11 6.47153E-13
4.87388E-11 6.47121E-13
5.18325E-11 6.47087E-13
5.50215E-11 6.47053E-13
5.83057E-11 6.47018E-13
6.16850E-11 6.46981E-13
6.51595E-11 6.46944E-13
6.87293E-11 6.46905E-13
7.23943E-11 6.46866E-13
7.61544E-11 6.46825E-13
1.18991E-10 6.46364E-13
1.71347E-10 6.45802E-13
2.33223E-10 6.45139E-13
3.04617E-10 6.44375E-13
3.85531E-10 6.43511E-13
4.75965E-10 6.42548E-13
5.75917E-10 6.41487E-13
6.85389E-10 6.40327E-13
8.04380E-10 6.39070E-13
9.32891E-10 6.37716E-13
1.07092E-09 6.36268E-13
1.21847E-09 6.34724E-13
1.37554E-09 6.33088E-13
1.54213E-09 6.31357E-13
1.71823E-09 6.29537E-13
1.90386E-09 6.27623E-13
2.09900E-09 6.25625E-13
2.30367E-09 6.23534E-13
2.51785E-09 6.21361E-13
2.74156E-09 6.19099E-13
2.97478E-09 6.16756E-13
3.21752E-09 6.14328E-13
3.46978E-09 6.11822E-13
3.73156E-09 6.09235E-13
4.00286E-09 6.06570E-13
4.28368E-09 6.03831E-13
4.57402E-09 6.01014E-13
4.87388E-09 5.98128E-13
5.18326E-09 5.95166E-13
5.50215E-09 5.92142E-13
5.83057E-09 5.89041E-13
6.16850E-09 5.85885E-13
6.51596E-09 5.82651E-13
6.87293E-09 5.79370E-13
7.23942E-09 5.76013E-13
7.61544E-09 5.72611E-13
1.18991E-08 5.35710E-13
1.71347E-08 4.95014E-13
2.33223E-08 4.52340E-13
3.04617E-08 4.08390E-13
3.85531E-08 3.66254E-13
4.75965E-08 3.26208E-13
5.75917E-08 2.88989E-13
6.85389E-08 2.54567E-13
8.04380E-08 2.23831E-13
9.32891E-08 1.95897E-13
1.07092E-07 1.71617E-13
1.21847E-07 1.49809E-13
1.37554E-07 1.31163E-13
1.54213E-07 1.14556E-13
1.71823E-07 1.00459E-13
1.90386E-07 8.80066E-14
2.09900E-07 7.74168E-14
2.30367E-07 6.81597E-14
2.51785E-07 6.02356E-14
2.74156E-07 5.33435E-14
2.97478E-07 4.74072E-14
3.21752E-07 4.22489E-14
3.46978E-07 3.77796E-14
3.73156E-07 3.38883E-14
4.00286E-07 3.04975E-14
4.28368E-07 2.75334E-14
4.57402E-07 2.49358E-14
4.87388E-07 2.26533E-14
5.18325E-07 2.06414E-14
5.50215E-07 1.88633E-14
5.83057E-07 1.72865E-14
6.16850E-07 1.58847E-14
6.51596E-07 1.46343E-14
6.87293E-07 1.35162E-14
7.23942E-07 1.25113E-14
7.61543E-07 1.16078E-14
1.18991E-06 6.04919E-15
1.71347E-06 3.54908E-15
2.33223E-06 2.22419E-15
3.04617E-06 1.44950E-15
3.85531E-06 9.78600E-16
4.75964E-06 6.77646E-16
5.75916E-06 4.80493E-16
6.85388E-06 3.48599E-16
8.04378E-06 2.58120E-16
9.32888E-06 1.94739E-16
1.07092E-05 1.49539E-16
1.21846E-05 1.16673E-16
1.37553E-05 9.23482E-17
1.54212E-05 7.40662E-17
1.71822E-05 6.01160E-17
1.90385E-05 4.93153E-17
2.09899E-05 4.08595E-17
2.30365E-05 3.41568E-17
2.51783E-05 2.87839E-17
2.74153E-05 2.44357E-17
2.97475E-05 2.08849E-17
3.21749E-05 1.79600E-17
3.46974E-05 1.55330E-17
3.73152E-05 1.35053E-17
4.00281E-05 1.17994E-17
4.28362E-05 1.03558E-17
4.57395E-05 9.12740E-18
4.87380E-05 8.07620E-18
5.18317E-05 7.17224E-18
5.50205E-05 6.39148E-18
5.83045E-05 5.71410E-18
6.16838E-05 5.12399E-18
6.51582E-05 4.60815E-18
6.87277E-05 4.15555E-18
7.23925E-05 3.75704E-18
7.61524E-05 3.40513E-18
9.21439E-05 2.34925E-18
1.09658E-04 1.67168E-18
1.28695E-04 1.22108E-18
1.49255E-04 9.12130E-19
1.71338E-04 6.94711E-19
1.94942E-04 5.38197E-19
2.20070E-04 4.23255E-19
2.46720E-04 3.37349E-19
2.74892E-04 2.72116E-19
3.04586E-04 2.21880E-19
3.35803E-04 1.82696E-19
3.68542E-04 1.51774E-19
4.02802E-04 1.27115E-19
4.38585E-04 1.07257E-19
4.75889E-04 9.11235E-20
5.14715E-04 7.79076E-20
5.55063E-04 6.69994E-20
5.96931E-04 5.79326E-20
6.40321E-04 5.03466E-20
6.85233E-04 4.39611E-20
7.31665E-04 3.85552E-20
7.79618E-04 3.39542E-20
8.29092E-04 3.00187E-20
8.80086E-04 2.66364E-20
9.32601E-04 2.37169E-20
9.86636E-04 2.11860E-20
1.04219E-03 1.89836E-20
1.09927E-03 1.70597E-20
1.15786E-03 1.53731E-20
1.21797E-03 1.38897E-20
1.27961E-03 1.25807E-20
1.34276E-03 1.14222E-20
1.40743E-03 1.03939E-20
1.47362E-03 9.47857E-21
1.54133E-03 8.66170E-21
1.61056E-03 7.93084E-21
1.68131E-03 7.27538E-21
1.75357E-03 6.68616E-21
1.82735E-03 6.15533E-21
1.90265E-03 5.67608E-21
1.97947E-03 5.24251E-21
2.05780E-03 4.84950E-21
2.13765E-03 4.49259E-21
2.21902E-03 4.16787E-21
2.30190E-03 3.87193E-21
2.38630E-03 3.60175E-21
2.47222E-03 3.35469E-21
2.55965E-03 3.12839E-21
2.64859E-03 2.92083E-21
2.73905E-03 2.73017E-21
2.83103E-03 2.55480E-21
2.92452E-03 2.39326E-21
3.01952E-03 2.24427E-21
3.11604E-03 2.10667E-21
3.21407E-03 1.97945E-21
3.31362E-03 1.86167E-21
3.41468E-03 1.75251E-21
3.51725E-03 1.65121E-21
3.62133E-03 1.55712E-21
3.72692E-03 1.46963E-21
3.83403E-03 1.38818E-21
3.94265E-03 1.31229E-21
4.05278E-03 1.24151E-21
4.16442E-03 1.17542E-21
4.27757E-03 1.11367E-21
4.39223E-03 1.05591E-21
4.50840E-03 1.00184E-21
4.62608E-03 9.51181E-22
4.74527E-03 9.03677E-22
4.86597E-03 8.59096E-22
4.98817E-03 8.17225E-22
5.11188E-03 7.77868E-22
5.23711E-03 7.40848E-22
5.36383E-03 7.05999E-22
5.49207E-03 6.73171E-22
5.62181E-03 6.42225E-22
5.75306E-03 6.13032E-22
5.88581E-03 5.85477E-22
6.02007E-03 5.59448E-22
6.15583E-03 5.34847E-22
6.29310E-03 5.11580E-22
6.43187E-03 4.89562E-22
6.57214E-03 4.68712E-22
6.71392E-03 4.48959E-22
6.85720E-03 4.30232E-22
7.00198E-03 4.12469E-22
7.14827E-03 3.95611E-22
7.29605E-03 3.79604E-22
7.44534E-03 3.64396E-22
7.59612E-03 3.49940E-22
7.97965E-03 3.16808E-22
8.37255E-03 2.87496E-22
8.77480E-03 2.61488E-22
9.18641E-03 2.38348E-22
9.60736E-03 2.17706E-22
1.00376E-02 1.99244E-22
1.04773E-02 1.82692E-22
1.09262E-02 1.67819E-22
1.13844E-02 1.54425E-22
1.18520E-02 1.42337E-22
1.23288E-02 1.31405E-22
1.28150E-02 1.21499E-22
1.33104E-02 1.12506E-22
1.38150E-02 1.04327E-22
1.43290E-02 9.68756E-23
1.48521E-02 9.00753E-23
1.53845E-02 8.38591E-23
1.59262E-02 7.81680E-23
1.64770E-02 7.29498E-23
1.70371E-02 6.81582E-23
1.76063E-02 6.37520E-23
1.81848E-02 5.96947E-23
1.87724E-02 5.59538E-23
1.93692E-02 5.25002E-23
1.99751E-02 4.93078E-23
2.05901E-02 4.63533E-23
2.12143E-02 4.36158E-23
2.18476E-02 4.10766E-23
2.24900E-02 3.87186E-23
2.31415E-02 3.65266E-23
2.38021E-02 3.44868E-23
2.44717E-02 3.25868E-23
2.51504E-02 3.08151E-23
2.58382E-02 2.91616E-23
2.65349E-02 2.76170E-23
2.72407E-02 2.61727E-23
2.79555E-02 2.48211E-23
2.86793E-02 2.35552E-23
2.94120E-02 2.23685E-23
3.01537E-02 2.12552E-23
3.09043E-02 2.02099E-23
3.16639E-02 1.92277E-23
3.24324E-02 1.83041E-23
3.32098E-02 1.74349E-23
3.39961E-02 1.66164E-23
3.47912E-02 1.58451E-23
3.55952E-02 1.51178E-23
3.64081E-02 1.44314E-23
3.72297E-02 1.37833E-23
3.80602E-02 1.31709E-23
3.88995E-02 1.25919E-23
3.97476E-02 1.20442E-23
4.06044E-02 1.15257E-23
4.14700E-02 1.10346E-23
4.23443E-02 1.05693E-23
4.32273E-02 1.01280E-23
4.41190E-02 9.70930E-24
4.50194E-02 9.31188E-24
4.59284E-02 8.93444E-24
4.68461E-02 8.57578E-24
4.87074E-02 7.91045E-24
5.06030E-02 7.30792E-24
5.25328E-02 6.76123E-24
5.44967E-02 6.26430E-24
5.64946E-02 5.81182E-24
5.85262E-02 5.39911E-24
6.05914E-02 5.02207E-24
6.26901E-02 4.67708E-24
6.48222E-02 4.36093E-24
6.69873E-02 4.07080E-24
6.91854E-02 3.80416E-24
7.14163E-02 3.55877E-24
7.36799E-02 3.33265E-24
7.59760E-02 3.12402E-24
7.83043E-02 2.93128E-24
8.06647E-02 2.75302E-24
8.30571E-02 2.58794E-24
8.54812E-02 2.43491E-24
8.79369E-02 2.29289E-24
9.04240E-02 2.16094E-24
9.29422E-02 2.03823E-24
9.54915E-02 1.92400E-24
9.80716E-02 1.81754E-24
1.00682E-01 1.71826E-24
1.03323E-01 1.62556E-24
1.05995E-01 1.53894E-24
1.08696E-01 1.45793E-24
1.11427E-01 1.38210E-24
1.14188E-01 1.31106E-24
1.16978E-01 1.24446E-24
1.19797E-01 1.18196E-24
1.22645E-01 1.12328E-24
1.25522E-01 1.06813E-24
1.28428E-01 1.01626E-24
1.31361E-01 9.67451E-25
1.34323E-01 9.21484E-25
1.37313E-01 8.78164E-25
1.40330E-01 8.37312E-25
1.43375E-01 7.98762E-25
1.46447E-01 7.62363E-25
1.49545E-01 7.27971E-25
1.52671E-01 6.95457E-25
1.55823E-01 6.64700E-25
1.59001E-01 6.35589E-25
1.62205E-01 6.08019E-25
1.65435E-01 5.81894E-25
1.68690E-01 5.57125E-25
1.71970E-01 5.33630E-25
1.75276E-01 5.11330E-25
1.78606E-01 4.90156E-25
1.81961E-01 4.70038E-25
1.85340E-01 4.50916E-25
1.88743E-01 4.32732E-25
1.92169E-01 4.15431E-25
1.95619E-01 3.98962E-25
1.99092E-01 3.83280E-25
2.02589E-01 3.68338E-25
2.06107E-01 3.54097E-25
2.09649E-01 3.40517E-25
2.13212E-01 3.27563E-25
2.16797E-01 3.15200E-25
2.20404E-01 3.03397E-25
2.24032E-01 2.92124E-25
2.27680E-01 2.81353E-25
2.31350E-01 2.71057E-25
2.35040E-01 2.61213E-25
2.38751E-01 2.51795E-25
2.42481E-01 2.42784E-25
2.46231E-01 2.34158E-25
2.50000E-01 2.25898E-25
2.53788E-01 2.17985E-25
2.57595E-01 2.10403E-25
2.61421E-01 2.03135E-25
2.65264E-01 1.96166E-25
2.69126E-01 1.89481E-25
2.73005E-01 1.83067E-25
2.76901E-01 1.76911E-25
2.80814E-01 1.71001E-25
2.84744E-01 1.65324E-25
2.88691E-01 1.59872E-25
2.92653E-01 1.54632E-25
2.96632E-01 1.49595E-25
3.00625E-01 1.44752E-25
3.04634E-01 1.40095E-25
3.08658E-01 1.35614E-25
3.12697E-01 1.31302E-25
3.16749E-01 1.27152E-25
3.20816E-01 1.23156E-25
3.24896E-01 1.19308E-25
3.28990E-01 1.15601E-25
3.33097E-01 1.12030E-25
3.37216E-01 1.08587E-25
3.41348E-01 1.05269E-25
3.45492E-01 1.02069E-25
3.49647E-01 9.89831E-26
3.53814E-01 9.60060E-26
3.57992E-01 9.31334E-26
3.62181E-01 9.03609E-26
3.66381E-01 8.76845E-26
3.70590E-01 8.51003E-26
3.74810E-01 8.26045E-26
3.79039E-01 8.01937E-26
3.83277E-01 7.78643E-26
3.87524E-01 7.56133E-26
3.91780E-01 7.34375E-26
3.96044E-01 7.13339E-26
4.00316E-01 6.92999E-26
4.04596E-01 6.73326E-26
4.08882E-01 6.54296E-26
4.13176E-01 6.35883E-26
4.17476E-01 6.18065E-26
4.21783E-01 6.00818E-26
4.26095E-01 5.84123E-26
4.30413E-01 5.67957E-26
4.34737E-01 5.52301E-26
4.39065E-01 5.37137E-26
4.43398E-01 5.22447E-26
4.47736E-01 5.08213E-26
4.52077E-01 4.94418E-26
4.56422E-01 4.81048E-26
4.60770E-01 4.68086E-26
4.65122E-01 4.55518E-26
4.69476E-01 4.43331E-26
4.73832E-01 4.31510E-26
4.78190E-01 4.20044E-26
4.82550E-01 4.08919E-26
4.86912E-01 3.98123E-26
4.91274E-01 3.87647E-26
4.95637E-01 3.77477E-26
5.00000E-01 3.67605E-26
5.04363E-01 3.58020E-26
5.08726E-01 3.48712E-26
5.13088E-01 3.39672E-26
5.17450E-01 3.30891E-26
5.21810E-01 3.22360E-26
5.26168E-01 3.14071E-26
5.30524E-01 3.06017E-26
5.34878E-01 2.98189E-26
5.39230E-01 2.90580E-26
5.43578E-01 2.83183E-26
5.47923E-01 2.75992E-26
5.52264E-01 2.68998E-26
5.56602E-01 2.62197E-26
5.60935E-01 2.55583E-26
5.65263E-01 2.49148E-26
5.69587E-01 2.42888E-26
5.73905E-01 2.36797E-26
5.78217E-01 2.30870E-26
5.82524E-01 2.25102E-26
5.86824E-01 2.19488E-26
5.91118E-01 2.14023E-26
5.95404E-01 2.08702E-26
5.99684E-01 2.03522E-26
6.03956E-01 1.98477E-26
6.08220E-01 1.93564E-26
6.12476E-01 1.88779E-26
6.16723E-01 1.84119E-26
6.20961E-01 1.79578E-26
6.25190E-01 1.75155E-26
6.29410E-01 1.70844E-26
6.33619E-01 1.66644E-26
6.37819E-01 1.62551E-26
6.42008E-01 1.58561E-26
6.46186E-01 1.54672E-26
6.50353E-01 1.50881E-26
6.54508E-01 1.47185E-26
6.58652E-01 1.43582E-26
6.62784E-01 1.40067E-26
6.66903E-01 1.36641E-26
6.71010E-01 1.33298E-26
6.75104E-01 1.30038E-26
6.79184E-01 1.26859E-26
6.83251E-01 1.23756E-26
6.87303E-01 1.20730E-26
6.91342E-01 1.17777E-26
6.95366E-01 1.14896E-26
6.99375E-01 1.12084E-26
7.03368E-01 1.09340E-26
7.07347E-01 1.06662E-26
7.11309E-01 1.04048E-26
7.15256E-01 1.01496E-26
7.19186E-01 9.90047E-27
7.23099E-01 9.65727E-27
7.26995E-01 9.41982E-27
7.30874E-01 9.18798E-27
7.34736E-01 8.96158E-27
7.38579E-01 8.74050E-27
7.42405E-01 8.52459E-27
7.46212E-01 8.31372E-27
7.50000E-01 8.10775E-27
7.53769E-01 7.90657E-27
7.57519E-01 7.71004E-27
7.61249E-01 7.51806E-27
7.64960E-01 7.33050E-27
7.68650E-01 7.14725E-27
7.72320E-01 6.96822E-27
7.75968E-01 6.79328E-27
7.79596E-01 6.62233E-27
7.83203E-01 6.45529E-27
7.86788E-01 6.29205E-27
7.90351E-01 6.13252E-27
7.93893E-01 5.97660E-27
7.97411E-01 5.82422E-27
8.00908E-01 5.67528E-27
8.04381E-01 5.52970E-27
8.07831E-01 5.38740E-27
8.11257E-01 5.24831E-27
8.14660E-01 5.11233E-27
8.18039E-01 4.97941E-27
8.21394E-01 4.84947E-27
8.24724E-01 4.72244E-27
8.28030E-01 4.59825E-27
8.31310E-01 4.47684E-27
8.34565E-01 4.35814E-27
8.37795E-01 4.24208E-27
8.40999E-01 4.12862E-27
8.44177E-01 4.01768E-27
8.47329E-01 3.90921E-27
8.50455E-01 3.80317E-27
8.53553E-01 3.69948E-27
8.56625E-01 3.59810E-27
8.59670E-01 3.49898E-27
8.62687E-01 3.40207E-27
8.65677E-01 3.30732E-27
8.68639E-01 3.21467E-27
8.71572E-01 3.12410E-27
8.74478E-01 3.03555E-27
8.77355E-01 2.94898E-27
8.80203E-01 2.86434E-27
8.83022E-01 2.78160E-27
8.85812E-01 2.70071E-27
8.88573E-01 2.62164E-27
8.91304E-01 2.54435E-27
8.94005E-01 2.46880E-27
8.96677E-01 2.39495E-27
8.99318E-01 2.32278E-27
9.01928E-01 2.25225E-27
9.04508E-01 2.18332E-27
9.07058E-01 2.11596E-27
9.09576E-01 2.05014E-27
9.12063E-01 1.98584E-27
9.14519E-01 1.92302E-27
9.16943E-01 1.86165E-27
9.19335E-01 1.80170E-27
9.21696E-01 1.74316E-27
9.24024E-01 1.68598E-27
9.26320E-01 1.63015E-27
9.28584E-01 1.57564E-27
9.30815E-01 1.52243E-27
9.33013E-01 1.47049E-27
9.35178E-01 1.41980E-27
9.37310E-01 1.37034E-27
9.39409E-01 1.32209E-27
9.41474E-01 1.27502E-27
9.43505E-01 1.22911E-27
9.45503E-01 1.18436E-27
9.47467E-01 1.14072E-27
9.49397E-01 1.09819E-27
9.51293E-01 1.05675E-27
9.53154E-01 1.01639E-27
9.54981E-01 9.77070E-28
9.56773E-01 9.38791E-28
9.58530E-01 9.01534E-28
9.60252E-01 8.65281E-28
9.61940E-01 8.30017E-28
9.63592E-01 7.95729E-28
9.65209E-01 7.62401E-28
9.66790E-01 7.30019E-28
9.68336E-01 6.98571E-28
9.69846E-01 6.68042E-28
9.71321E-01 6.38421E-28
9.72759E-01 6.09696E-28
9.74162E-01 5.81853E-28
9.75528E-01 5.54883E-28
9.76858E-01 5.28774E-28
9.78152E-01 5.03515E-28
9.79410E-01 4.79096E-28
9.80631E-01 4.55507E-28
9.81815E-01 4.32738E-28
9.82963E-01 4.10781E-28
9.84074E-01 3.89627E-28
9.85148E-01 3.69266E-28
9.86185E-01 3.49691E-28
9.87185E-01 3.30894E-28
9.88148E-01 3.12867E-28
9.89074E-01 2.95603E-28
9.89962E-01 2.79095E-28
9.90814E-01 2.63337E-28
9.91627E-01 2.48323E-28
9.92404E-01 2.34046E-28
9.93143E-01 2.20500E-28
9.93844E-01 2.07681E-28
9.94508E-01 1.95584E-28
9.95134E-01 1.84203E-28
9.95722E-01 1.73533E-28
9.96273E-01 1.63572E-28
9.96786E-01 1.54315E-28
9.97261E-01 1.45757E-28
9.97698E-01 1.37897E-28
9.98097E-01 1.30730E-28
9.98459E-01 1.24255E-28
9.98782E-01 1.18468E-28
9.99067E-01 1.13367E-28
9.99315E-01 1.08950E-28
9.99524E-01 1.05216E-28
9.99695E-01 1.02162E-28
9.99829E-01 9.97884E-29
9.99924E-01 9.80936E-29
9.99981E-01 9.70770E-29
1.00000E+00 9.67382E-29
