 #
 # Subroutine ELSEPA. Elastic scattering of electrons and positrons
 #                    by neutral atoms and positive ions
 #
 # Projectile: positron
 # Kinetic energy = 2.50000E+07 eV = 9.18733E+05 a.u.
 #
 # WARNING: High-energy factorization with free-atom DF screening.
 #          Absorption, polarization and exchange corrections are
 #          switched off.
 #          Phase shifts are calculated for the bare nucleus.
 #          Scattering amplitudes are not evaluated.
 #
 # Element:  P,  Z =  15,  atomic weight = 3.09738E+01 g/mol
 #
 # Nuclear model: Fermi distribution
 #                Average radius = 3.36033E-13 cm
 #                Skin thickness = 5.46000E-14 cm
 #
 # Number of electrons = 15
 #
 # Total elastic cross section = 9.76277E-19 cm**2 = 3.48635E-02 a0**2
 # 1st transport cross section = 6.45453E-25 cm**2 = 2.30495E-08 a0**2
 # 2nd transport cross section = 1.87887E-24 cm**2 = 6.70955E-08 a0**2
 #
 #
 # Differential cross section:                       MU=(1-COS(THETA))/2
 #
 #  THETA        MU          DCS          DCS        Sherman      error
 #  (deg)                 (cm**2/sr)   (a0**2/sr)    function
 #----------------------------------------------------------------------
0.00000E+00 7.47139E-12
7.61557E-13 7.47026E-12
1.18994E-12 7.46964E-12
1.71346E-12 7.46888E-12
2.33225E-12 7.46798E-12
3.04617E-12 7.46695E-12
3.85530E-12 7.46578E-12
4.75964E-12 7.46448E-12
5.75917E-12 7.46304E-12
6.85391E-12 7.46146E-12
8.04379E-12 7.45975E-12
9.32893E-12 7.45790E-12
1.07092E-11 7.45592E-12
1.21847E-11 7.45380E-12
1.37554E-11 7.45155E-12
1.54213E-11 7.44916E-12
1.71823E-11 7.44664E-12
1.90386E-11 7.44398E-12
2.09900E-11 7.44119E-12
2.30367E-11 7.43827E-12
2.51785E-11 7.43520E-12
2.74156E-11 7.43201E-12
2.97478E-11 7.42868E-12
3.21752E-11 7.42522E-12
3.46979E-11 7.42163E-12
3.73157E-11 7.41791E-12
4.00286E-11 7.41405E-12
4.28368E-11 7.41006E-12
4.57402E-11 7.40593E-12
4.87388E-11 7.40168E-12
5.18325E-11 7.39730E-12
5.50215E-11 7.39279E-12
5.83057E-11 7.38814E-12
6.16850E-11 7.38336E-12
6.51595E-11 7.37846E-12
6.87293E-11 7.37343E-12
7.23943E-11 7.36827E-12
7.61544E-11 7.36297E-12
1.18991E-10 7.30308E-12
1.71347E-10 7.23080E-12
2.33223E-10 7.14669E-12
3.04617E-10 7.05136E-12
3.85531E-10 6.94551E-12
4.75965E-10 6.82983E-12
5.75917E-10 6.70505E-12
6.85389E-10 6.57206E-12
8.04380E-10 6.43173E-12
9.32891E-10 6.28491E-12
1.07092E-09 6.13239E-12
1.21847E-09 5.97498E-12
1.37554E-09 5.81365E-12
1.54213E-09 5.64923E-12
1.71823E-09 5.48252E-12
1.90386E-09 5.31413E-12
2.09900E-09 5.14483E-12
2.30367E-09 4.97541E-12
2.51785E-09 4.79978E-12
2.74156E-09 4.62581E-12
2.97478E-09 4.45753E-12
3.21752E-09 4.29517E-12
3.46978E-09 4.13883E-12
3.73156E-09 3.98618E-12
4.00286E-09 3.82333E-12
4.28368E-09 3.66770E-12
4.57402E-09 3.51917E-12
4.87388E-09 3.37758E-12
5.18326E-09 3.24274E-12
5.50215E-09 3.10637E-12
5.83057E-09 2.97050E-12
6.16850E-09 2.84169E-12
6.51596E-09 2.71963E-12
6.87293E-09 2.60401E-12
7.23942E-09 2.49452E-12
7.61544E-09 2.38112E-12
1.18991E-08 1.50961E-12
1.71347E-08 9.61538E-13
2.33223E-08 6.28426E-13
3.04617E-08 4.25012E-13
3.85531E-08 2.98254E-13
4.75965E-08 2.16936E-13
5.75917E-08 1.62995E-13
6.85389E-08 1.25919E-13
8.04380E-08 9.95713E-14
9.32891E-08 8.02633E-14
1.07092E-07 6.57045E-14
1.21847E-07 5.44533E-14
1.37554E-07 4.55891E-14
1.54213E-07 3.84888E-14
1.71823E-07 3.27228E-14
1.90386E-07 2.79805E-14
2.09900E-07 2.40459E-14
2.30367E-07 2.07589E-14
2.51785E-07 1.79575E-14
2.74156E-07 1.56299E-14
2.97478E-07 1.36520E-14
3.21752E-07 1.19533E-14
3.46978E-07 1.05154E-14
3.73156E-07 9.25908E-15
4.00286E-07 8.19611E-15
4.28368E-07 7.25673E-15
4.57402E-07 6.45475E-15
4.87388E-07 5.75016E-15
5.18325E-07 5.13912E-15
5.50215E-07 4.60379E-15
5.83057E-07 4.13399E-15
6.16850E-07 3.72233E-15
6.51596E-07 3.35788E-15
6.87293E-07 3.03780E-15
7.23942E-07 2.75253E-15
7.61543E-07 2.50074E-15
1.18991E-06 1.06179E-15
1.71347E-06 5.25467E-16
2.33223E-06 2.90234E-16
3.04617E-06 1.73691E-16
3.85531E-06 1.10404E-16
4.75964E-06 7.35480E-17
5.75916E-06 5.08715E-17
6.85388E-06 3.62918E-17
8.04378E-06 2.65711E-17
9.32888E-06 1.98901E-17
1.07092E-05 1.51771E-17
1.21846E-05 1.17770E-17
1.37553E-05 9.27503E-18
1.54212E-05 7.40166E-18
1.71822E-05 5.97695E-18
1.90385E-05 4.87775E-18
2.09899E-05 4.01990E-18
2.30365E-05 3.34222E-18
2.51783E-05 2.80116E-18
2.74153E-05 2.36505E-18
2.97475E-05 2.01039E-18
3.21749E-05 1.71963E-18
3.46974E-05 1.47950E-18
3.73152E-05 1.27981E-18
4.00281E-05 1.11266E-18
4.28362E-05 9.71915E-19
4.57395E-05 8.52714E-19
4.87380E-05 7.51222E-19
5.18317E-05 6.64372E-19
5.50205E-05 5.89701E-19
5.83045E-05 5.25217E-19
6.16838E-05 4.69300E-19
6.51582E-05 4.20624E-19
6.87277E-05 3.78095E-19
7.23925E-05 3.40806E-19
7.61524E-05 3.07998E-19
9.21439E-05 2.10394E-19
1.09658E-04 1.48547E-19
1.28695E-04 1.07839E-19
1.49255E-04 8.01626E-20
1.71338E-04 6.08190E-20
1.94942E-04 4.69717E-20
2.20070E-04 3.68480E-20
2.46720E-04 2.93090E-20
2.74892E-04 2.36023E-20
3.04586E-04 1.92189E-20
3.35803E-04 1.58070E-20
3.68542E-04 1.31194E-20
4.02802E-04 1.09792E-20
4.38585E-04 9.25793E-21
4.75889E-04 7.86098E-21
5.14715E-04 6.71770E-21
5.55063E-04 5.77478E-21
5.96931E-04 4.99156E-21
6.40321E-04 4.33663E-21
6.85233E-04 3.78562E-21
7.31665E-04 3.31934E-21
7.79618E-04 2.92264E-21
8.29092E-04 2.58342E-21
8.80086E-04 2.29199E-21
9.32601E-04 2.04048E-21
9.86636E-04 1.82251E-21
1.04219E-03 1.63286E-21
1.09927E-03 1.46723E-21
1.15786E-03 1.32206E-21
1.21797E-03 1.19438E-21
1.27961E-03 1.08174E-21
1.34276E-03 9.82060E-22
1.40743E-03 8.93586E-22
1.47362E-03 8.14845E-22
1.54133E-03 7.44579E-22
1.61056E-03 6.81718E-22
1.68131E-03 6.25345E-22
1.75357E-03 5.74673E-22
1.82735E-03 5.29025E-22
1.90265E-03 4.87815E-22
1.97947E-03 4.50536E-22
2.05780E-03 4.16746E-22
2.13765E-03 3.86060E-22
2.21902E-03 3.58144E-22
2.30190E-03 3.32703E-22
2.38630E-03 3.09477E-22
2.47222E-03 2.88241E-22
2.55965E-03 2.68792E-22
2.64859E-03 2.50954E-22
2.73905E-03 2.34569E-22
2.83103E-03 2.19498E-22
2.92452E-03 2.05615E-22
3.01952E-03 1.92812E-22
3.11604E-03 1.80987E-22
3.21407E-03 1.70054E-22
3.31362E-03 1.59933E-22
3.41468E-03 1.50552E-22
3.51725E-03 1.41848E-22
3.62133E-03 1.33763E-22
3.72692E-03 1.26244E-22
3.83403E-03 1.19246E-22
3.94265E-03 1.12724E-22
4.05278E-03 1.06642E-22
4.16442E-03 1.00963E-22
4.27757E-03 9.56572E-23
4.39223E-03 9.06942E-23
4.50840E-03 8.60483E-23
4.62608E-03 8.16954E-23
4.74527E-03 7.76138E-23
4.86597E-03 7.37833E-23
4.98817E-03 7.01857E-23
5.11188E-03 6.68042E-23
5.23711E-03 6.36235E-23
5.36383E-03 6.06293E-23
5.49207E-03 5.78088E-23
5.62181E-03 5.51501E-23
5.75306E-03 5.26420E-23
5.88581E-03 5.02746E-23
6.02007E-03 4.80384E-23
6.15583E-03 4.59249E-23
6.29310E-03 4.39260E-23
6.43187E-03 4.20344E-23
6.57214E-03 4.02433E-23
6.71392E-03 3.85463E-23
6.85720E-03 3.69376E-23
7.00198E-03 3.54116E-23
7.14827E-03 3.39635E-23
7.29605E-03 3.25884E-23
7.44534E-03 3.12820E-23
7.59612E-03 3.00402E-23
7.97965E-03 2.71942E-23
8.37255E-03 2.46764E-23
8.77480E-03 2.24426E-23
9.18641E-03 2.04551E-23
9.60736E-03 1.86821E-23
1.00376E-02 1.70966E-23
1.04773E-02 1.56751E-23
1.09262E-02 1.43979E-23
1.13844E-02 1.32477E-23
1.18520E-02 1.22097E-23
1.23288E-02 1.12710E-23
1.28150E-02 1.04204E-23
1.33104E-02 9.64830E-24
1.38150E-02 8.94610E-24
1.43290E-02 8.30638E-24
1.48521E-02 7.72259E-24
1.53845E-02 7.18897E-24
1.59262E-02 6.70045E-24
1.64770E-02 6.25255E-24
1.70371E-02 5.84128E-24
1.76063E-02 5.46311E-24
1.81848E-02 5.11491E-24
1.87724E-02 4.79387E-24
1.93692E-02 4.49750E-24
1.99751E-02 4.22357E-24
2.05901E-02 3.97006E-24
2.12143E-02 3.73519E-24
2.18476E-02 3.51734E-24
2.24900E-02 3.31505E-24
2.31415E-02 3.12701E-24
2.38021E-02 2.95204E-24
2.44717E-02 2.78906E-24
2.51504E-02 2.63711E-24
2.58382E-02 2.49530E-24
2.65349E-02 2.36284E-24
2.72407E-02 2.23899E-24
2.79555E-02 2.12309E-24
2.86793E-02 2.01455E-24
2.94120E-02 1.91281E-24
3.01537E-02 1.81737E-24
3.09043E-02 1.72776E-24
3.16639E-02 1.64357E-24
3.24324E-02 1.56440E-24
3.32098E-02 1.48991E-24
3.39961E-02 1.41976E-24
3.47912E-02 1.35367E-24
3.55952E-02 1.29134E-24
3.64081E-02 1.23253E-24
3.72297E-02 1.17701E-24
3.80602E-02 1.12454E-24
3.88995E-02 1.07495E-24
3.97476E-02 1.02803E-24
4.06044E-02 9.83627E-25
4.14700E-02 9.41571E-25
4.23443E-02 9.01719E-25
4.32273E-02 8.63933E-25
4.41190E-02 8.28087E-25
4.50194E-02 7.94063E-25
4.59284E-02 7.61752E-25
4.68461E-02 7.31051E-25
4.87074E-02 6.74108E-25
5.06030E-02 6.22548E-25
5.25328E-02 5.75775E-25
5.44967E-02 5.33268E-25
5.64946E-02 4.94570E-25
5.85262E-02 4.59280E-25
6.05914E-02 4.27047E-25
6.26901E-02 3.97559E-25
6.48222E-02 3.70543E-25
6.69873E-02 3.45754E-25
6.91854E-02 3.22978E-25
7.14163E-02 3.02021E-25
7.36799E-02 2.82715E-25
7.59760E-02 2.64905E-25
7.83043E-02 2.48456E-25
8.06647E-02 2.33245E-25
8.30571E-02 2.19164E-25
8.54812E-02 2.06112E-25
8.79369E-02 1.94003E-25
9.04240E-02 1.82756E-25
9.29422E-02 1.72298E-25
9.54915E-02 1.62566E-25
9.80716E-02 1.53498E-25
1.00682E-01 1.45043E-25
1.03323E-01 1.37152E-25
1.05995E-01 1.29780E-25
1.08696E-01 1.22887E-25
1.11427E-01 1.16437E-25
1.14188E-01 1.10396E-25
1.16978E-01 1.04734E-25
1.19797E-01 9.94226E-26
1.22645E-01 9.44364E-26
1.25522E-01 8.97521E-26
1.28428E-01 8.53482E-26
1.31361E-01 8.12049E-26
1.34323E-01 7.73041E-26
1.37313E-01 7.36292E-26
1.40330E-01 7.01648E-26
1.43375E-01 6.68966E-26
1.46447E-01 6.38118E-26
1.49545E-01 6.08981E-26
1.52671E-01 5.81444E-26
1.55823E-01 5.55404E-26
1.59001E-01 5.30765E-26
1.62205E-01 5.07439E-26
1.65435E-01 4.85344E-26
1.68690E-01 4.64404E-26
1.71970E-01 4.44547E-26
1.75276E-01 4.25708E-26
1.78606E-01 4.07825E-26
1.81961E-01 3.90842E-26
1.85340E-01 3.74705E-26
1.88743E-01 3.59366E-26
1.92169E-01 3.44777E-26
1.95619E-01 3.30895E-26
1.99092E-01 3.17682E-26
2.02589E-01 3.05098E-26
2.06107E-01 2.93108E-26
2.09649E-01 2.81680E-26
2.13212E-01 2.70783E-26
2.16797E-01 2.60388E-26
2.20404E-01 2.50468E-26
2.24032E-01 2.40997E-26
2.27680E-01 2.31951E-26
2.31350E-01 2.23309E-26
2.35040E-01 2.15049E-26
2.38751E-01 2.07151E-26
2.42481E-01 1.99597E-26
2.46231E-01 1.92369E-26
2.50000E-01 1.85451E-26
2.53788E-01 1.78827E-26
2.57595E-01 1.72483E-26
2.61421E-01 1.66404E-26
2.65264E-01 1.60578E-26
2.69126E-01 1.54993E-26
2.73005E-01 1.49636E-26
2.76901E-01 1.44497E-26
2.80814E-01 1.39566E-26
2.84744E-01 1.34833E-26
2.88691E-01 1.30288E-26
2.92653E-01 1.25923E-26
2.96632E-01 1.21729E-26
3.00625E-01 1.17698E-26
3.04634E-01 1.13824E-26
3.08658E-01 1.10099E-26
3.12697E-01 1.06517E-26
3.16749E-01 1.03070E-26
3.20816E-01 9.97533E-27
3.24896E-01 9.65609E-27
3.28990E-01 9.34874E-27
3.33097E-01 9.05276E-27
3.37216E-01 8.76766E-27
3.41348E-01 8.49298E-27
3.45492E-01 8.22827E-27
3.49647E-01 7.97311E-27
3.53814E-01 7.72710E-27
3.57992E-01 7.48986E-27
3.62181E-01 7.26102E-27
3.66381E-01 7.04025E-27
3.70590E-01 6.82720E-27
3.74810E-01 6.62156E-27
3.79039E-01 6.42304E-27
3.83277E-01 6.23135E-27
3.87524E-01 6.04622E-27
3.91780E-01 5.86738E-27
3.96044E-01 5.69459E-27
4.00316E-01 5.52762E-27
4.04596E-01 5.36622E-27
4.08882E-01 5.21019E-27
4.13176E-01 5.05933E-27
4.17476E-01 4.91342E-27
4.21783E-01 4.77229E-27
4.26095E-01 4.63576E-27
4.30413E-01 4.50364E-27
4.34737E-01 4.37578E-27
4.39065E-01 4.25201E-27
4.43398E-01 4.13219E-27
4.47736E-01 4.01617E-27
4.52077E-01 3.90381E-27
4.56422E-01 3.79497E-27
4.60770E-01 3.68954E-27
4.65122E-01 3.58738E-27
4.69476E-01 3.48838E-27
4.73832E-01 3.39242E-27
4.78190E-01 3.29941E-27
4.82550E-01 3.20923E-27
4.86912E-01 3.12178E-27
4.91274E-01 3.03697E-27
4.95637E-01 2.95472E-27
5.00000E-01 2.87492E-27
5.04363E-01 2.79750E-27
5.08726E-01 2.72237E-27
5.13088E-01 2.64945E-27
5.17450E-01 2.57868E-27
5.21810E-01 2.50998E-27
5.26168E-01 2.44328E-27
5.30524E-01 2.37851E-27
5.34878E-01 2.31561E-27
5.39230E-01 2.25451E-27
5.43578E-01 2.19516E-27
5.47923E-01 2.13750E-27
5.52264E-01 2.08148E-27
5.56602E-01 2.02704E-27
5.60935E-01 1.97413E-27
5.65263E-01 1.92270E-27
5.69587E-01 1.87271E-27
5.73905E-01 1.82411E-27
5.78217E-01 1.77685E-27
5.82524E-01 1.73089E-27
5.86824E-01 1.68619E-27
5.91118E-01 1.64272E-27
5.95404E-01 1.60043E-27
5.99684E-01 1.55929E-27
6.03956E-01 1.51926E-27
6.08220E-01 1.48030E-27
6.12476E-01 1.44240E-27
6.16723E-01 1.40550E-27
6.20961E-01 1.36959E-27
6.25190E-01 1.33463E-27
6.29410E-01 1.30059E-27
6.33619E-01 1.26746E-27
6.37819E-01 1.23519E-27
6.42008E-01 1.20376E-27
6.46186E-01 1.17316E-27
6.50353E-01 1.14335E-27
6.54508E-01 1.11431E-27
6.58652E-01 1.08602E-27
6.62784E-01 1.05846E-27
6.66903E-01 1.03160E-27
6.71010E-01 1.00543E-27
6.75104E-01 9.79928E-28
6.79184E-01 9.55072E-28
6.83251E-01 9.30846E-28
6.87303E-01 9.07231E-28
6.91342E-01 8.84210E-28
6.95366E-01 8.61766E-28
6.99375E-01 8.39883E-28
7.03368E-01 8.18546E-28
7.07347E-01 7.97739E-28
7.11309E-01 7.77448E-28
7.15256E-01 7.57658E-28
7.19186E-01 7.38357E-28
7.23099E-01 7.19529E-28
7.26995E-01 7.01164E-28
7.30874E-01 6.83247E-28
7.34736E-01 6.65767E-28
7.38579E-01 6.48713E-28
7.42405E-01 6.32072E-28
7.46212E-01 6.15834E-28
7.50000E-01 5.99988E-28
7.53769E-01 5.84524E-28
7.57519E-01 5.69431E-28
7.61249E-01 5.54701E-28
7.64960E-01 5.40323E-28
7.68650E-01 5.26288E-28
7.72320E-01 5.12587E-28
7.75968E-01 4.99212E-28
7.79596E-01 4.86155E-28
7.83203E-01 4.73407E-28
7.86788E-01 4.60960E-28
7.90351E-01 4.48807E-28
7.93893E-01 4.36940E-28
7.97411E-01 4.25353E-28
8.00908E-01 4.14037E-28
8.04381E-01 4.02987E-28
8.07831E-01 3.92195E-28
8.11257E-01 3.81655E-28
8.14660E-01 3.71362E-28
8.18039E-01 3.61308E-28
8.21394E-01 3.51489E-28
8.24724E-01 3.41898E-28
8.28030E-01 3.32530E-28
8.31310E-01 3.23379E-28
8.34565E-01 3.14441E-28
8.37795E-01 3.05710E-28
8.40999E-01 2.97181E-28
8.44177E-01 2.88849E-28
8.47329E-01 2.80710E-28
8.50455E-01 2.72760E-28
8.53553E-01 2.64993E-28
8.56625E-01 2.57406E-28
8.59670E-01 2.49994E-28
8.62687E-01 2.42753E-28
8.65677E-01 2.35680E-28
8.68639E-01 2.28771E-28
8.71572E-01 2.22022E-28
8.74478E-01 2.15428E-28
8.77355E-01 2.08988E-28
8.80203E-01 2.02697E-28
8.83022E-01 1.96551E-28
8.85812E-01 1.90549E-28
8.88573E-01 1.84686E-28
8.91304E-01 1.78960E-28
8.94005E-01 1.73368E-28
8.96677E-01 1.67906E-28
8.99318E-01 1.62572E-28
9.01928E-01 1.57364E-28
9.04508E-01 1.52278E-28
9.07058E-01 1.47312E-28
9.09576E-01 1.42463E-28
9.12063E-01 1.37729E-28
9.14519E-01 1.33108E-28
9.16943E-01 1.28598E-28
9.19335E-01 1.24195E-28
9.21696E-01 1.19899E-28
9.24024E-01 1.15706E-28
9.26320E-01 1.11615E-28
9.28584E-01 1.07624E-28
9.30815E-01 1.03730E-28
9.33013E-01 9.99325E-29
9.35178E-01 9.62289E-29
9.37310E-01 9.26176E-29
9.39409E-01 8.90968E-29
9.41474E-01 8.56648E-29
9.43505E-01 8.23200E-29
9.45503E-01 7.90609E-29
9.47467E-01 7.58857E-29
9.49397E-01 7.27931E-29
9.51293E-01 6.97816E-29
9.53154E-01 6.68498E-29
9.54981E-01 6.39963E-29
9.56773E-01 6.12197E-29
9.58530E-01 5.85188E-29
9.60252E-01 5.58924E-29
9.61940E-01 5.33391E-29
9.63592E-01 5.08578E-29
9.65209E-01 4.84474E-29
9.66790E-01 4.61068E-29
9.68336E-01 4.38348E-29
9.69846E-01 4.16305E-29
9.71321E-01 3.94929E-29
9.72759E-01 3.74209E-29
9.74162E-01 3.54136E-29
9.75528E-01 3.34702E-29
9.76858E-01 3.15897E-29
9.78152E-01 2.97713E-29
9.79410E-01 2.80141E-29
9.80631E-01 2.63175E-29
9.81815E-01 2.46806E-29
9.82963E-01 2.31026E-29
9.84074E-01 2.15830E-29
9.85148E-01 2.01209E-29
9.86185E-01 1.87158E-29
9.87185E-01 1.73671E-29
9.88148E-01 1.60741E-29
9.89074E-01 1.48362E-29
9.89962E-01 1.36530E-29
9.90814E-01 1.25239E-29
9.91627E-01 1.14483E-29
9.92404E-01 1.04259E-29
9.93143E-01 9.45613E-30
9.93844E-01 8.53862E-30
9.94508E-01 7.67296E-30
9.95134E-01 6.85877E-30
9.95722E-01 6.09568E-30
9.96273E-01 5.38337E-30
9.96786E-01 4.72152E-30
9.97261E-01 4.10985E-30
9.97698E-01 3.54808E-30
9.98097E-01 3.03598E-30
9.98459E-01 2.57332E-30
9.98782E-01 2.15990E-30
9.99067E-01 1.79554E-30
9.99315E-01 1.48008E-30
9.99524E-01 1.21338E-30
9.99695E-01 9.95329E-31
9.99829E-01 8.25833E-31
9.99924E-01 7.04817E-31
9.99981E-01 6.32229E-31
1.00000E+00 6.08037E-31
