 #
 # Subroutine ELSEPA. Elastic scattering of electrons and positrons
 #                    by neutral atoms and positive ions
 #
 # Projectile: positron
 # Kinetic energy = 1.25000E+08 eV = 4.59367E+06 a.u.
 #
 # WARNING: High-energy factorization with free-atom DF screening.
 #          Absorption, polarization and exchange corrections are
 #          switched off.
 #          Phase shifts are calculated for the bare nucleus.
 #          Scattering amplitudes are not evaluated.
 #
 # Element:  P,  Z =  15,  atomic weight = 3.09738E+01 g/mol
 #
 # Nuclear model: Fermi distribution
 #                Average radius = 3.36033E-13 cm
 #                Skin thickness = 5.46000E-14 cm
 #
 # Number of electrons = 15
 #
 # Total elastic cross section = 9.75865E-19 cm**2 = 3.48488E-02 a0**2
 # 1st transport cross section = 3.03102E-26 cm**2 = 1.08240E-09 a0**2
 # 2nd transport cross section = 9.01456E-26 cm**2 = 3.21916E-09 a0**2
 #
 #
 # Differential cross section:                       MU=(1-COS(THETA))/2
 #
 #  THETA        MU          DCS          DCS        Sherman      error
 #  (deg)                 (cm**2/sr)   (a0**2/sr)    function
 #----------------------------------------------------------------------
0.00000E+00 1.80846E-10
7.61557E-13 1.80204E-10
1.18994E-12 1.79845E-10
1.71346E-12 1.79408E-10
2.33225E-12 1.78894E-10
3.04617E-12 1.78304E-10
3.85530E-12 1.77639E-10
4.75964E-12 1.76899E-10
5.75917E-12 1.76086E-10
6.85391E-12 1.75202E-10
8.04379E-12 1.74249E-10
9.32893E-12 1.73227E-10
1.07092E-11 1.72139E-10
1.21847E-11 1.70988E-10
1.37554E-11 1.69774E-10
1.54213E-11 1.68499E-10
1.71823E-11 1.67165E-10
1.90386E-11 1.65776E-10
2.09900E-11 1.64333E-10
2.30367E-11 1.62838E-10
2.51785E-11 1.61295E-10
2.74156E-11 1.59706E-10
2.97478E-11 1.58073E-10
3.21752E-11 1.56397E-10
3.46979E-11 1.54681E-10
3.73157E-11 1.52928E-10
4.00286E-11 1.51141E-10
4.28368E-11 1.49323E-10
4.57402E-11 1.47476E-10
4.87388E-11 1.45602E-10
5.18325E-11 1.43704E-10
5.50215E-11 1.41784E-10
5.83057E-11 1.39843E-10
6.16850E-11 1.37884E-10
6.51595E-11 1.35910E-10
6.87293E-11 1.33924E-10
7.23943E-11 1.31927E-10
7.61544E-11 1.29923E-10
1.18991E-10 1.09493E-10
1.71347E-10 9.05468E-11
2.33223E-10 7.37042E-11
3.04617E-10 5.93612E-11
3.85531E-10 4.74677E-11
4.75965E-10 3.78547E-11
5.75917E-10 3.02438E-11
6.85389E-10 2.42648E-11
8.04380E-10 1.95843E-11
9.32891E-10 1.59219E-11
1.07092E-09 1.30502E-11
1.21847E-09 1.07899E-11
1.37554E-09 9.00123E-12
1.54213E-09 7.57638E-12
1.71823E-09 6.43387E-12
1.90386E-09 5.51021E-12
2.09900E-09 4.75714E-12
2.30367E-09 4.13806E-12
2.51785E-09 3.62470E-12
2.74156E-09 3.19522E-12
2.97478E-09 2.83322E-12
3.21752E-09 2.52559E-12
3.46978E-09 2.26213E-12
3.73156E-09 2.03499E-12
4.00286E-09 1.83786E-12
4.28368E-09 1.66571E-12
4.57402E-09 1.51450E-12
4.87388E-09 1.38098E-12
5.18326E-09 1.26249E-12
5.50215E-09 1.15688E-12
5.83057E-09 1.06217E-12
6.16850E-09 9.77084E-13
6.51596E-09 9.00422E-13
6.87293E-09 8.31138E-13
7.23942E-09 7.68349E-13
7.61544E-09 7.11300E-13
1.18991E-08 3.48981E-13
1.71347E-08 1.86029E-13
2.33223E-08 1.06191E-13
3.04617E-08 6.43179E-14
3.85531E-08 4.10169E-14
4.75965E-08 2.73421E-14
5.75917E-08 1.89279E-14
6.85389E-08 1.35307E-14
8.04380E-08 9.93957E-15
9.32891E-08 7.47310E-15
1.07092E-07 5.73163E-15
1.21847E-07 4.47226E-15
1.37554E-07 3.54241E-15
1.54213E-07 2.84317E-15
1.71823E-07 2.30878E-15
1.90386E-07 1.89445E-15
2.09900E-07 1.56910E-15
2.30367E-07 1.31069E-15
2.51785E-07 1.10331E-15
2.74156E-07 9.35314E-16
2.97478E-07 7.98027E-16
3.21752E-07 6.84969E-16
3.46978E-07 5.91187E-16
3.73156E-07 5.12871E-16
4.00286E-07 4.47063E-16
4.28368E-07 3.91439E-16
4.57402E-07 3.44174E-16
4.87388E-07 3.03808E-16
5.18325E-07 2.69170E-16
5.50215E-07 2.39313E-16
5.83057E-07 2.13469E-16
6.16850E-07 1.91009E-16
6.51596E-07 1.71418E-16
6.87293E-07 1.54268E-16
7.23942E-07 1.39203E-16
7.61543E-07 1.25927E-16
1.18991E-06 5.19236E-17
1.71347E-06 2.51150E-17
2.33223E-06 1.35762E-17
3.04617E-06 7.96421E-18
3.85531E-06 4.97411E-18
4.75964E-06 3.26428E-18
5.75916E-06 2.22984E-18
6.85388E-06 1.57452E-18
8.04378E-06 1.14317E-18
9.32888E-06 8.49887E-19
1.07092E-05 6.44882E-19
1.21846E-05 4.98123E-19
1.37553E-05 3.90834E-19
1.54212E-05 3.10934E-19
1.71822E-05 2.50446E-19
1.90385E-05 2.03956E-19
2.09899E-05 1.67791E-19
2.30365E-05 1.39299E-19
2.51783E-05 1.16604E-19
2.74153E-05 9.83464E-20
2.97475E-05 8.35237E-20
3.21749E-05 7.13896E-20
3.46974E-05 6.13805E-20
3.73152E-05 5.30656E-20
4.00281E-05 4.61126E-20
4.28362E-05 4.02624E-20
4.57395E-05 3.53114E-20
4.87380E-05 3.10985E-20
5.18317E-05 2.74953E-20
5.50205E-05 2.43988E-20
5.83045E-05 2.17260E-20
6.16838E-05 1.94092E-20
6.51582E-05 1.73930E-20
6.87277E-05 1.56319E-20
7.23925E-05 1.40883E-20
7.61524E-05 1.27272E-20
9.21439E-05 8.69009E-21
1.09658E-04 6.13353E-21
1.28695E-04 4.45156E-21
1.49255E-04 3.30837E-21
1.71338E-04 2.50957E-21
1.94942E-04 1.93786E-21
2.20070E-04 1.51998E-21
2.46720E-04 1.20886E-21
2.74892E-04 9.73365E-22
3.04586E-04 7.92491E-22
3.35803E-04 6.51715E-22
3.68542E-04 5.40830E-22
4.02802E-04 4.52538E-22
4.38585E-04 3.81532E-22
4.75889E-04 3.23910E-22
5.14715E-04 2.76755E-22
5.55063E-04 2.37867E-22
5.96931E-04 2.05568E-22
6.40321E-04 1.78562E-22
6.85233E-04 1.55844E-22
7.31665E-04 1.36620E-22
7.79618E-04 1.20267E-22
8.29092E-04 1.06285E-22
8.80086E-04 9.42737E-23
9.32601E-04 8.39091E-23
9.86636E-04 7.49277E-23
1.04219E-03 6.71141E-23
1.09927E-03 6.02908E-23
1.15786E-03 5.43111E-23
1.21797E-03 4.90530E-23
1.27961E-03 4.44145E-23
1.34276E-03 4.03101E-23
1.40743E-03 3.66679E-23
1.47362E-03 3.34267E-23
1.54133E-03 3.05348E-23
1.61056E-03 2.79481E-23
1.68131E-03 2.56287E-23
1.75357E-03 2.35442E-23
1.82735E-03 2.16667E-23
1.90265E-03 1.99720E-23
1.97947E-03 1.84392E-23
2.05780E-03 1.70501E-23
2.13765E-03 1.57888E-23
2.21902E-03 1.46416E-23
2.30190E-03 1.35963E-23
2.38630E-03 1.26422E-23
2.47222E-03 1.17700E-23
2.55965E-03 1.09714E-23
2.64859E-03 1.02390E-23
2.73905E-03 9.56646E-24
2.83103E-03 8.94795E-24
2.92452E-03 8.37836E-24
3.01952E-03 7.85314E-24
3.11604E-03 7.36821E-24
3.21407E-03 6.91993E-24
3.31362E-03 6.50502E-24
3.41468E-03 6.12056E-24
3.51725E-03 5.76391E-24
3.62133E-03 5.43270E-24
3.72692E-03 5.12478E-24
3.83403E-03 4.83823E-24
3.94265E-03 4.57128E-24
4.05278E-03 4.32237E-24
4.16442E-03 4.09005E-24
4.27757E-03 3.87301E-24
4.39223E-03 3.67007E-24
4.50840E-03 3.48014E-24
4.62608E-03 3.30224E-24
4.74527E-03 3.13547E-24
4.86597E-03 2.97901E-24
4.98817E-03 2.83211E-24
5.11188E-03 2.69407E-24
5.23711E-03 2.56426E-24
5.36383E-03 2.44210E-24
5.49207E-03 2.32707E-24
5.62181E-03 2.21866E-24
5.75306E-03 2.11643E-24
5.88581E-03 2.01996E-24
6.02007E-03 1.92887E-24
6.15583E-03 1.84281E-24
6.29310E-03 1.76143E-24
6.43187E-03 1.68446E-24
6.57214E-03 1.61159E-24
6.71392E-03 1.54258E-24
6.85720E-03 1.47718E-24
7.00198E-03 1.41517E-24
7.14827E-03 1.35633E-24
7.29605E-03 1.30049E-24
7.44534E-03 1.24746E-24
7.59612E-03 1.19706E-24
7.97965E-03 1.08164E-24
8.37255E-03 9.79631E-25
8.77480E-03 8.89210E-25
9.18641E-03 8.08843E-25
9.60736E-03 7.37224E-25
1.00376E-02 6.73241E-25
1.04773E-02 6.15944E-25
1.09262E-02 5.64516E-25
1.13844E-02 5.18256E-25
1.18520E-02 4.76555E-25
1.23288E-02 4.38890E-25
1.28150E-02 4.04803E-25
1.33104E-02 3.73898E-25
1.38150E-02 3.45827E-25
1.43290E-02 3.20286E-25
1.48521E-02 2.97009E-25
1.53845E-02 2.75761E-25
1.59262E-02 2.56336E-25
1.64770E-02 2.38551E-25
1.70371E-02 2.22244E-25
1.76063E-02 2.07271E-25
1.81848E-02 1.93506E-25
1.87724E-02 1.80833E-25
1.93692E-02 1.69152E-25
1.99751E-02 1.58373E-25
2.05901E-02 1.48413E-25
2.12143E-02 1.39200E-25
2.18476E-02 1.30669E-25
2.24900E-02 1.22761E-25
2.31415E-02 1.15423E-25
2.38021E-02 1.08607E-25
2.44717E-02 1.02269E-25
2.51504E-02 9.63699E-26
2.58382E-02 9.08752E-26
2.65349E-02 8.57520E-26
2.72407E-02 8.09712E-26
2.79555E-02 7.65060E-26
2.86793E-02 7.23322E-26
2.94120E-02 6.84277E-26
3.01537E-02 6.47722E-26
3.09043E-02 6.13473E-26
3.16639E-02 5.81360E-26
3.24324E-02 5.51228E-26
3.32098E-02 5.22935E-26
3.39961E-02 4.96352E-26
3.47912E-02 4.71356E-26
3.55952E-02 4.47840E-26
3.64081E-02 4.25700E-26
3.72297E-02 4.04844E-26
3.80602E-02 3.85185E-26
3.88995E-02 3.66644E-26
3.97476E-02 3.49146E-26
4.06044E-02 3.32624E-26
4.14700E-02 3.17015E-26
4.23443E-02 3.02260E-26
4.32273E-02 2.88305E-26
4.41190E-02 2.75100E-26
4.50194E-02 2.62599E-26
4.59284E-02 2.50758E-26
4.68461E-02 2.39537E-26
4.87074E-02 2.18807E-26
5.06030E-02 2.00139E-26
5.25328E-02 1.83299E-26
5.44967E-02 1.68082E-26
5.64946E-02 1.54310E-26
5.85262E-02 1.41826E-26
6.05914E-02 1.30494E-26
6.26901E-02 1.20191E-26
6.48222E-02 1.10812E-26
6.69873E-02 1.02262E-26
6.91854E-02 9.44594E-27
7.14163E-02 8.73287E-27
7.36799E-02 8.08049E-27
7.59760E-02 7.48296E-27
7.83043E-02 6.93506E-27
8.06647E-02 6.43214E-27
8.30571E-02 5.97003E-27
8.54812E-02 5.54502E-27
8.79369E-02 5.15375E-27
9.04240E-02 4.79321E-27
9.29422E-02 4.46070E-27
9.54915E-02 4.15377E-27
9.80716E-02 3.87023E-27
1.00682E-01 3.60807E-27
1.03323E-01 3.36551E-27
1.05995E-01 3.14091E-27
1.08696E-01 2.93279E-27
1.11427E-01 2.73980E-27
1.14188E-01 2.56072E-27
1.16978E-01 2.39445E-27
1.19797E-01 2.23997E-27
1.22645E-01 2.09635E-27
1.25522E-01 1.96275E-27
1.28428E-01 1.83841E-27
1.31361E-01 1.72260E-27
1.34323E-01 1.61470E-27
1.37313E-01 1.51411E-27
1.40330E-01 1.42028E-27
1.43375E-01 1.33272E-27
1.46447E-01 1.25097E-27
1.49545E-01 1.17460E-27
1.52671E-01 1.10324E-27
1.55823E-01 1.03653E-27
1.59001E-01 9.74124E-28
1.62205E-01 9.15737E-28
1.65435E-01 8.61082E-28
1.68690E-01 8.09902E-28
1.71970E-01 7.61958E-28
1.75276E-01 7.17028E-28
1.78606E-01 6.74909E-28
1.81961E-01 6.35411E-28
1.85340E-01 5.98359E-28
1.88743E-01 5.63590E-28
1.92169E-01 5.30953E-28
1.95619E-01 5.00308E-28
1.99092E-01 4.71525E-28
2.02589E-01 4.44483E-28
2.06107E-01 4.19069E-28
2.09649E-01 3.95180E-28
2.13212E-01 3.72718E-28
2.16797E-01 3.51592E-28
2.20404E-01 3.31717E-28
2.24032E-01 3.13016E-28
2.27680E-01 2.95415E-28
2.31350E-01 2.78844E-28
2.35040E-01 2.63242E-28
2.38751E-01 2.48547E-28
2.42481E-01 2.34705E-28
2.46231E-01 2.21662E-28
2.50000E-01 2.09371E-28
2.53788E-01 1.97786E-28
2.57595E-01 1.86864E-28
2.61421E-01 1.76566E-28
2.65264E-01 1.66854E-28
2.69126E-01 1.57694E-28
2.73005E-01 1.49052E-28
2.76901E-01 1.40898E-28
2.80814E-01 1.33204E-28
2.84744E-01 1.25941E-28
2.88691E-01 1.19086E-28
2.92653E-01 1.12614E-28
2.96632E-01 1.06503E-28
3.00625E-01 1.00732E-28
3.04634E-01 9.52814E-29
3.08658E-01 9.01330E-29
3.12697E-01 8.52692E-29
3.16749E-01 8.06738E-29
3.20816E-01 7.63316E-29
3.24896E-01 7.22280E-29
3.28990E-01 6.83496E-29
3.33097E-01 6.46837E-29
3.37216E-01 6.12182E-29
3.41348E-01 5.79418E-29
3.45492E-01 5.48440E-29
3.49647E-01 5.19147E-29
3.53814E-01 4.91446E-29
3.57992E-01 4.65247E-29
3.62181E-01 4.40467E-29
3.66381E-01 4.17027E-29
3.70590E-01 3.94853E-29
3.74810E-01 3.73875E-29
3.79039E-01 3.54027E-29
3.83277E-01 3.35247E-29
3.87524E-01 3.17476E-29
3.91780E-01 3.00659E-29
3.96044E-01 2.84743E-29
4.00316E-01 2.69680E-29
4.04596E-01 2.55422E-29
4.08882E-01 2.41926E-29
4.13176E-01 2.29151E-29
4.17476E-01 2.17057E-29
4.21783E-01 2.05607E-29
4.26095E-01 1.94766E-29
4.30413E-01 1.84503E-29
4.34737E-01 1.74784E-29
4.39065E-01 1.65582E-29
4.43398E-01 1.56868E-29
4.47736E-01 1.48616E-29
4.52077E-01 1.40801E-29
4.56422E-01 1.33399E-29
4.60770E-01 1.26389E-29
4.65122E-01 1.19750E-29
4.69476E-01 1.13461E-29
4.73832E-01 1.07505E-29
4.78190E-01 1.01863E-29
4.82550E-01 9.65180E-30
4.86912E-01 9.14551E-30
4.91274E-01 8.66588E-30
4.95637E-01 8.21151E-30
5.00000E-01 7.78105E-30
5.04363E-01 7.37323E-30
5.08726E-01 6.98686E-30
5.13088E-01 6.62080E-30
5.17450E-01 6.27396E-30
5.21810E-01 5.94535E-30
5.26168E-01 5.63398E-30
5.30524E-01 5.33895E-30
5.34878E-01 5.05940E-30
5.39230E-01 4.79452E-30
5.43578E-01 4.54352E-30
5.47923E-01 4.30567E-30
5.52264E-01 4.08029E-30
5.56602E-01 3.86672E-30
5.60935E-01 3.66433E-30
5.65263E-01 3.47254E-30
5.69587E-01 3.29079E-30
5.73905E-01 3.11855E-30
5.78217E-01 2.95533E-30
5.82524E-01 2.80064E-30
5.86824E-01 2.65405E-30
5.91118E-01 2.51513E-30
5.95404E-01 2.38347E-30
5.99684E-01 2.25870E-30
6.03956E-01 2.14045E-30
6.08220E-01 2.02838E-30
6.12476E-01 1.92218E-30
6.16723E-01 1.82152E-30
6.20961E-01 1.72613E-30
6.25190E-01 1.63572E-30
6.29410E-01 1.55004E-30
6.33619E-01 1.46883E-30
6.37819E-01 1.39187E-30
6.42008E-01 1.31893E-30
6.46186E-01 1.24981E-30
6.50353E-01 1.18429E-30
6.54508E-01 1.12221E-30
6.58652E-01 1.06336E-30
6.62784E-01 1.00759E-30
6.66903E-01 9.54739E-31
6.71010E-01 9.04648E-31
6.75104E-01 8.57176E-31
6.79184E-01 8.12185E-31
6.83251E-01 7.69547E-31
6.87303E-01 7.29138E-31
6.91342E-01 6.90842E-31
6.95366E-01 6.54549E-31
6.99375E-01 6.20154E-31
7.03368E-01 5.87558E-31
7.07347E-01 5.56667E-31
7.11309E-01 5.27392E-31
7.15256E-01 4.99649E-31
7.19186E-01 4.73358E-31
7.23099E-01 4.48443E-31
7.26995E-01 4.24833E-31
7.30874E-01 4.02458E-31
7.34736E-01 3.81255E-31
7.38579E-01 3.61163E-31
7.42405E-01 3.42123E-31
7.46212E-01 3.24080E-31
7.50000E-01 3.06983E-31
7.53769E-01 2.90782E-31
7.57519E-01 2.75431E-31
7.61249E-01 2.60884E-31
7.64960E-01 2.47100E-31
7.68650E-01 2.34039E-31
7.72320E-01 2.21663E-31
7.75968E-01 2.09937E-31
7.79596E-01 1.98826E-31
7.83203E-01 1.88298E-31
7.86788E-01 1.78323E-31
7.90351E-01 1.68872E-31
7.93893E-01 1.59917E-31
7.97411E-01 1.51433E-31
8.00908E-01 1.43395E-31
8.04381E-01 1.35780E-31
8.07831E-01 1.28564E-31
8.11257E-01 1.21729E-31
8.14660E-01 1.15253E-31
8.18039E-01 1.09117E-31
8.21394E-01 1.03305E-31
8.24724E-01 9.77986E-32
8.28030E-01 9.25822E-32
8.31310E-01 8.76406E-32
8.34565E-01 8.29593E-32
8.37795E-01 7.85247E-32
8.40999E-01 7.43239E-32
8.44177E-01 7.03445E-32
8.47329E-01 6.65751E-32
8.50455E-01 6.30045E-32
8.53553E-01 5.96223E-32
8.56625E-01 5.64187E-32
8.59670E-01 5.33842E-32
8.62687E-01 5.05099E-32
8.65677E-01 4.77875E-32
8.68639E-01 4.52089E-32
8.71572E-01 4.27666E-32
8.74478E-01 4.04535E-32
8.77355E-01 3.82626E-32
8.80203E-01 3.61876E-32
8.83022E-01 3.42224E-32
8.85812E-01 3.23613E-32
8.88573E-01 3.05986E-32
8.91304E-01 2.89292E-32
8.94005E-01 2.73483E-32
8.96677E-01 2.58511E-32
8.99318E-01 2.44333E-32
9.01928E-01 2.30906E-32
9.04508E-01 2.18191E-32
9.07058E-01 2.06150E-32
9.09576E-01 1.94748E-32
9.12063E-01 1.83951E-32
9.14519E-01 1.73727E-32
9.16943E-01 1.64046E-32
9.19335E-01 1.54878E-32
9.21696E-01 1.46198E-32
9.24024E-01 1.37979E-32
9.26320E-01 1.30197E-32
9.28584E-01 1.22829E-32
9.30815E-01 1.15852E-32
9.33013E-01 1.09247E-32
9.35178E-01 1.02993E-32
9.37310E-01 9.70724E-33
9.39409E-01 9.14669E-33
9.41474E-01 8.61603E-33
9.43505E-01 8.11368E-33
9.45503E-01 7.63811E-33
9.47467E-01 7.18793E-33
9.49397E-01 6.76179E-33
9.51293E-01 6.35844E-33
9.53154E-01 5.97665E-33
9.54981E-01 5.61531E-33
9.56773E-01 5.27334E-33
9.58530E-01 4.94970E-33
9.60252E-01 4.64345E-33
9.61940E-01 4.35367E-33
9.63592E-01 4.07949E-33
9.65209E-01 3.82012E-33
9.66790E-01 3.57474E-33
9.68336E-01 3.34264E-33
9.69846E-01 3.12315E-33
9.71321E-01 2.91560E-33
9.72759E-01 2.71936E-33
9.74162E-01 2.53386E-33
9.75528E-01 2.35854E-33
9.76858E-01 2.19290E-33
9.78152E-01 2.03640E-33
9.79410E-01 1.88862E-33
9.80631E-01 1.74911E-33
9.81815E-01 1.61745E-33
9.82963E-01 1.49323E-33
9.84074E-01 1.37611E-33
9.85148E-01 1.26573E-33
9.86185E-01 1.16176E-33
9.87185E-01 1.06390E-33
9.88148E-01 9.71849E-34
9.89074E-01 8.85332E-34
9.89962E-01 8.04104E-34
9.90814E-01 7.27918E-34
9.91627E-01 6.56555E-34
9.92404E-01 5.89789E-34
9.93143E-01 5.27438E-34
9.93844E-01 4.69305E-34
9.94508E-01 4.15230E-34
9.95134E-01 3.65040E-34
9.95722E-01 3.18594E-34
9.96273E-01 2.75758E-34
9.96786E-01 2.36389E-34
9.97261E-01 2.00406E-34
9.97698E-01 1.67659E-34
9.98097E-01 1.38084E-34
9.98459E-01 1.11580E-34
9.98782E-01 8.80686E-35
9.99067E-01 6.74860E-35
9.99315E-01 4.97698E-35
9.99524E-01 3.48666E-35
9.99695E-01 2.27318E-35
9.99829E-01 1.33280E-35
9.99924E-01 6.63166E-36
9.99981E-01 2.62307E-36
1.00000E+00 1.28903E-36
