 #
 # Subroutine ELSEPA. Elastic scattering of electrons and positrons
 #                    by neutral atoms and positive ions
 #
 # Projectile: positron
 # Kinetic energy = 2.00000E+07 eV = 7.34987E+05 a.u.
 #
 # WARNING: High-energy factorization with free-atom DF screening.
 #          Absorption, polarization and exchange corrections are
 #          switched off.
 #          Phase shifts are calculated for the bare nucleus.
 #          Scattering amplitudes are not evaluated.
 #
 # Element:  P,  Z =  15,  atomic weight = 3.09738E+01 g/mol
 #
 # Nuclear model: Fermi distribution
 #                Average radius = 3.36033E-13 cm
 #                Skin thickness = 5.46000E-14 cm
 #
 # Number of electrons = 15
 #
 # Total elastic cross section = 9.76079E-19 cm**2 = 3.48564E-02 a0**2
 # 1st transport cross section = 9.70503E-25 cm**2 = 3.46573E-08 a0**2
 # 2nd transport cross section = 2.82051E-24 cm**2 = 1.00722E-07 a0**2
 #
 #
 # Differential cross section:                       MU=(1-COS(THETA))/2
 #
 #  THETA        MU          DCS          DCS        Sherman      error
 #  (deg)                 (cm**2/sr)   (a0**2/sr)    function
 #----------------------------------------------------------------------
0.00000E+00 4.82970E-12
7.61557E-13 4.82922E-12
1.18994E-12 4.82896E-12
1.71346E-12 4.82864E-12
2.33225E-12 4.82827E-12
3.04617E-12 4.82783E-12
3.85530E-12 4.82735E-12
4.75964E-12 4.82680E-12
5.75917E-12 4.82620E-12
6.85391E-12 4.82554E-12
8.04379E-12 4.82482E-12
9.32893E-12 4.82405E-12
1.07092E-11 4.82322E-12
1.21847E-11 4.82233E-12
1.37554E-11 4.82139E-12
1.54213E-11 4.82039E-12
1.71823E-11 4.81933E-12
1.90386E-11 4.81822E-12
2.09900E-11 4.81705E-12
2.30367E-11 4.81582E-12
2.51785E-11 4.81454E-12
2.74156E-11 4.81320E-12
2.97478E-11 4.81181E-12
3.21752E-11 4.81036E-12
3.46979E-11 4.80885E-12
3.73157E-11 4.80729E-12
4.00286E-11 4.80567E-12
4.28368E-11 4.80399E-12
4.57402E-11 4.80226E-12
4.87388E-11 4.80048E-12
5.18325E-11 4.79864E-12
5.50215E-11 4.79674E-12
5.83057E-11 4.79479E-12
6.16850E-11 4.79278E-12
6.51595E-11 4.79072E-12
6.87293E-11 4.78860E-12
7.23943E-11 4.78642E-12
7.61544E-11 4.78420E-12
1.18991E-10 4.75893E-12
1.71347E-10 4.72831E-12
2.33223E-10 4.69250E-12
3.04617E-10 4.65163E-12
3.85531E-10 4.60596E-12
4.75965E-10 4.55562E-12
5.75917E-10 4.50092E-12
6.85389E-10 4.44204E-12
8.04380E-10 4.37928E-12
9.32891E-10 4.31290E-12
1.07092E-09 4.24314E-12
1.21847E-09 4.17039E-12
1.37554E-09 4.09476E-12
1.54213E-09 4.01677E-12
1.71823E-09 3.93644E-12
1.90386E-09 3.85431E-12
2.09900E-09 3.77049E-12
2.30367E-09 3.68534E-12
2.51785E-09 3.59914E-12
2.74156E-09 3.51205E-12
2.97478E-09 3.42450E-12
3.21752E-09 3.33648E-12
3.46978E-09 3.24850E-12
3.73156E-09 3.15912E-12
4.00286E-09 3.06703E-12
4.28368E-09 2.97725E-12
4.57402E-09 2.88986E-12
4.87388E-09 2.80493E-12
5.18326E-09 2.72252E-12
5.50215E-09 2.64264E-12
5.83057E-09 2.56204E-12
6.16850E-09 2.47756E-12
6.51596E-09 2.39610E-12
6.87293E-09 2.31762E-12
7.23942E-09 2.24207E-12
7.61544E-09 2.16940E-12
1.18991E-08 1.52530E-12
1.71347E-08 1.05627E-12
2.33223E-08 7.33874E-13
3.04617E-08 5.15373E-13
3.85531E-08 3.69453E-13
4.75965E-08 2.70755E-13
5.75917E-08 2.03317E-13
6.85389E-08 1.56294E-13
8.04380E-08 1.22804E-13
9.32891E-08 9.84155E-14
1.07092E-07 8.02325E-14
1.21847E-07 6.63964E-14
1.37554E-07 5.56400E-14
1.54213E-07 4.71404E-14
1.71823E-07 4.02887E-14
1.90386E-07 3.47031E-14
2.09900E-07 3.00793E-14
2.30367E-07 2.62163E-14
2.51785E-07 2.29589E-14
2.74156E-07 2.01863E-14
2.97478E-07 1.78175E-14
3.21752E-07 1.57725E-14
3.46978E-07 1.40073E-14
3.73156E-07 1.24609E-14
4.00286E-07 1.11041E-14
4.28368E-07 9.94454E-15
4.57402E-07 8.91968E-15
4.87388E-07 8.00863E-15
5.18325E-07 7.22022E-15
5.50215E-07 6.51095E-15
5.83057E-07 5.88399E-15
6.16850E-07 5.33563E-15
6.51596E-07 4.83643E-15
6.87293E-07 4.39622E-15
7.23942E-07 4.00571E-15
7.61543E-07 3.65103E-15
1.18991E-06 1.58673E-15
1.71347E-06 7.88327E-16
2.33223E-06 4.34911E-16
3.04617E-06 2.59919E-16
3.85531E-06 1.65196E-16
4.75964E-06 1.10174E-16
5.75916E-06 7.63560E-17
6.85388E-06 5.46065E-17
8.04378E-06 4.00861E-17
9.32888E-06 3.00851E-17
1.07092E-05 2.30138E-17
1.21846E-05 1.78987E-17
1.37553E-05 1.41254E-17
1.54212E-05 1.12932E-17
1.71822E-05 9.13431E-18
1.90385E-05 7.46520E-18
2.09899E-05 6.16006E-18
2.30365E-05 5.12725E-18
2.51783E-05 4.30143E-18
2.74153E-05 3.63479E-18
2.97475E-05 3.09201E-18
3.21749E-05 2.64655E-18
3.46974E-05 2.27829E-18
3.73152E-05 1.97175E-18
4.00281E-05 1.71501E-18
4.28362E-05 1.49864E-18
4.57395E-05 1.31530E-18
4.87380E-05 1.15911E-18
5.18317E-05 1.02538E-18
5.50205E-05 9.10357E-19
5.83045E-05 8.10983E-19
6.16838E-05 7.24786E-19
6.51582E-05 6.49722E-19
6.87277E-05 5.84121E-19
7.23925E-05 5.26586E-19
7.61524E-05 4.75956E-19
9.21439E-05 3.25255E-19
1.09658E-04 2.29706E-19
1.28695E-04 1.66790E-19
1.49255E-04 1.24001E-19
1.71338E-04 9.40886E-20
1.94942E-04 7.26721E-20
2.20070E-04 5.70134E-20
2.46720E-04 4.53526E-20
2.74892E-04 3.65246E-20
3.04586E-04 2.97429E-20
3.35803E-04 2.44636E-20
3.68542E-04 2.03042E-20
4.02802E-04 1.69920E-20
4.38585E-04 1.43281E-20
4.75889E-04 1.21662E-20
5.14715E-04 1.03968E-20
5.55063E-04 8.93750E-21
5.96931E-04 7.72534E-21
6.40321E-04 6.71175E-21
6.85233E-04 5.85897E-21
7.31665E-04 5.13733E-21
7.79618E-04 4.52337E-21
8.29092E-04 3.99838E-21
8.80086E-04 3.54733E-21
9.32601E-04 3.15808E-21
9.86636E-04 2.82074E-21
1.04219E-03 2.52723E-21
1.09927E-03 2.27088E-21
1.15786E-03 2.04620E-21
1.21797E-03 1.84860E-21
1.27961E-03 1.67427E-21
1.34276E-03 1.51999E-21
1.40743E-03 1.38306E-21
1.47362E-03 1.26119E-21
1.54133E-03 1.15244E-21
1.61056E-03 1.05515E-21
1.68131E-03 9.67903E-22
1.75357E-03 8.89478E-22
1.82735E-03 8.18828E-22
1.90265E-03 7.55046E-22
1.97947E-03 6.97348E-22
2.05780E-03 6.45050E-22
2.13765E-03 5.97557E-22
2.21902E-03 5.54351E-22
2.30190E-03 5.14974E-22
2.38630E-03 4.79027E-22
2.47222E-03 4.46158E-22
2.55965E-03 4.16057E-22
2.64859E-03 3.88448E-22
2.73905E-03 3.63088E-22
2.83103E-03 3.39761E-22
2.92452E-03 3.18274E-22
3.01952E-03 2.98457E-22
3.11604E-03 2.80156E-22
3.21407E-03 2.63234E-22
3.31362E-03 2.47568E-22
3.41468E-03 2.33049E-22
3.51725E-03 2.19576E-22
3.62133E-03 2.07062E-22
3.72692E-03 1.95425E-22
3.83403E-03 1.84592E-22
3.94265E-03 1.74498E-22
4.05278E-03 1.65084E-22
4.16442E-03 1.56295E-22
4.27757E-03 1.48081E-22
4.39223E-03 1.40400E-22
4.50840E-03 1.33208E-22
4.62608E-03 1.26471E-22
4.74527E-03 1.20153E-22
4.86597E-03 1.14224E-22
4.98817E-03 1.08655E-22
5.11188E-03 1.03421E-22
5.23711E-03 9.84979E-23
5.36383E-03 9.38633E-23
5.49207E-03 8.94976E-23
5.62181E-03 8.53821E-23
5.75306E-03 8.14999E-23
5.88581E-03 7.78353E-23
6.02007E-03 7.43739E-23
6.15583E-03 7.11023E-23
6.29310E-03 6.80082E-23
6.43187E-03 6.50801E-23
6.57214E-03 6.23075E-23
6.71392E-03 5.96807E-23
6.85720E-03 5.71904E-23
7.00198E-03 5.48284E-23
7.14827E-03 5.25867E-23
7.29605E-03 5.04581E-23
7.44534E-03 4.84358E-23
7.59612E-03 4.65135E-23
7.97965E-03 4.21078E-23
8.37255E-03 3.82103E-23
8.77480E-03 3.47521E-23
9.18641E-03 3.16754E-23
9.60736E-03 2.89307E-23
1.00376E-02 2.64761E-23
1.04773E-02 2.42755E-23
1.09262E-02 2.22982E-23
1.13844E-02 2.05174E-23
1.18520E-02 1.89104E-23
1.23288E-02 1.74571E-23
1.28150E-02 1.61402E-23
1.33104E-02 1.49448E-23
1.38150E-02 1.38576E-23
1.43290E-02 1.28671E-23
1.48521E-02 1.19632E-23
1.53845E-02 1.11369E-23
1.59262E-02 1.03805E-23
1.64770E-02 9.68695E-24
1.70371E-02 9.05011E-24
1.76063E-02 8.46453E-24
1.81848E-02 7.92533E-24
1.87724E-02 7.42819E-24
1.93692E-02 6.96924E-24
1.99751E-02 6.54502E-24
2.05901E-02 6.15243E-24
2.12143E-02 5.78870E-24
2.18476E-02 5.45131E-24
2.24900E-02 5.13801E-24
2.31415E-02 4.84678E-24
2.38021E-02 4.57579E-24
2.44717E-02 4.32336E-24
2.51504E-02 4.08800E-24
2.58382E-02 3.86835E-24
2.65349E-02 3.66317E-24
2.72407E-02 3.47133E-24
2.79555E-02 3.29181E-24
2.86793E-02 3.12367E-24
2.94120E-02 2.96606E-24
3.01537E-02 2.81820E-24
3.09043E-02 2.67938E-24
3.16639E-02 2.54895E-24
3.24324E-02 2.42630E-24
3.32098E-02 2.31089E-24
3.39961E-02 2.20221E-24
3.47912E-02 2.09980E-24
3.55952E-02 2.00323E-24
3.64081E-02 1.91211E-24
3.72297E-02 1.82607E-24
3.80602E-02 1.74478E-24
3.88995E-02 1.66792E-24
3.97476E-02 1.59522E-24
4.06044E-02 1.52640E-24
4.14700E-02 1.46123E-24
4.23443E-02 1.39946E-24
4.32273E-02 1.34090E-24
4.41190E-02 1.28534E-24
4.50194E-02 1.23261E-24
4.59284E-02 1.18252E-24
4.68461E-02 1.13494E-24
4.87074E-02 1.04667E-24
5.06030E-02 9.66738E-25
5.25328E-02 8.94224E-25
5.44967E-02 8.28319E-25
5.64946E-02 7.68315E-25
5.85262E-02 7.13593E-25
6.05914E-02 6.63606E-25
6.26901E-02 6.17873E-25
6.48222E-02 5.75970E-25
6.69873E-02 5.37519E-25
6.91854E-02 5.02186E-25
7.14163E-02 4.69674E-25
7.36799E-02 4.39719E-25
7.59760E-02 4.12085E-25
7.83043E-02 3.86559E-25
8.06647E-02 3.62953E-25
8.30571E-02 3.41097E-25
8.54812E-02 3.20839E-25
8.79369E-02 3.02041E-25
9.04240E-02 2.84579E-25
9.29422E-02 2.68342E-25
9.54915E-02 2.53229E-25
9.80716E-02 2.39148E-25
1.00682E-01 2.26016E-25
1.03323E-01 2.13759E-25
1.05995E-01 2.02307E-25
1.08696E-01 1.91598E-25
1.11427E-01 1.81576E-25
1.14188E-01 1.72189E-25
1.16978E-01 1.63389E-25
1.19797E-01 1.55134E-25
1.22645E-01 1.47383E-25
1.25522E-01 1.40101E-25
1.28428E-01 1.33253E-25
1.31361E-01 1.26811E-25
1.34323E-01 1.20744E-25
1.37313E-01 1.15028E-25
1.40330E-01 1.09639E-25
1.43375E-01 1.04555E-25
1.46447E-01 9.97547E-26
1.49545E-01 9.52205E-26
1.52671E-01 9.09348E-26
1.55823E-01 8.68815E-26
1.59001E-01 8.30459E-26
1.62205E-01 7.94141E-26
1.65435E-01 7.59735E-26
1.68690E-01 7.27122E-26
1.71970E-01 6.96192E-26
1.75276E-01 6.66844E-26
1.78606E-01 6.38982E-26
1.81961E-01 6.12517E-26
1.85340E-01 5.87368E-26
1.88743E-01 5.63458E-26
1.92169E-01 5.40714E-26
1.95619E-01 5.19071E-26
1.99092E-01 4.98464E-26
2.02589E-01 4.78837E-26
2.06107E-01 4.60135E-26
2.09649E-01 4.42305E-26
2.13212E-01 4.25301E-26
2.16797E-01 4.09078E-26
2.20404E-01 3.93593E-26
2.24032E-01 3.78807E-26
2.27680E-01 3.64684E-26
2.31350E-01 3.51187E-26
2.35040E-01 3.38285E-26
2.38751E-01 3.25947E-26
2.42481E-01 3.14144E-26
2.46231E-01 3.02848E-26
2.50000E-01 2.92035E-26
2.53788E-01 2.81679E-26
2.57595E-01 2.71759E-26
2.61421E-01 2.62253E-26
2.65264E-01 2.53140E-26
2.69126E-01 2.44402E-26
2.73005E-01 2.36021E-26
2.76901E-01 2.27978E-26
2.80814E-01 2.20259E-26
2.84744E-01 2.12849E-26
2.88691E-01 2.05732E-26
2.92653E-01 1.98895E-26
2.96632E-01 1.92325E-26
3.00625E-01 1.86010E-26
3.04634E-01 1.79939E-26
3.08658E-01 1.74100E-26
3.12697E-01 1.68483E-26
3.16749E-01 1.63078E-26
3.20816E-01 1.57876E-26
3.24896E-01 1.52868E-26
3.28990E-01 1.48045E-26
3.33097E-01 1.43400E-26
3.37216E-01 1.38925E-26
3.41348E-01 1.34612E-26
3.45492E-01 1.30455E-26
3.49647E-01 1.26447E-26
3.53814E-01 1.22582E-26
3.57992E-01 1.18854E-26
3.62181E-01 1.15257E-26
3.66381E-01 1.11786E-26
3.70590E-01 1.08436E-26
3.74810E-01 1.05201E-26
3.79039E-01 1.02078E-26
3.83277E-01 9.90615E-27
3.87524E-01 9.61475E-27
3.91780E-01 9.33320E-27
3.96044E-01 9.06111E-27
4.00316E-01 8.79810E-27
4.04596E-01 8.54382E-27
4.08882E-01 8.29795E-27
4.13176E-01 8.06015E-27
4.17476E-01 7.83011E-27
4.21783E-01 7.60755E-27
4.26095E-01 7.39217E-27
4.30413E-01 7.18372E-27
4.34737E-01 6.98193E-27
4.39065E-01 6.78656E-27
4.43398E-01 6.59736E-27
4.47736E-01 6.41411E-27
4.52077E-01 6.23660E-27
4.56422E-01 6.06462E-27
4.60770E-01 5.89797E-27
4.65122E-01 5.73645E-27
4.69476E-01 5.57988E-27
4.73832E-01 5.42810E-27
4.78190E-01 5.28092E-27
4.82550E-01 5.13818E-27
4.86912E-01 4.99974E-27
4.91274E-01 4.86545E-27
4.95637E-01 4.73515E-27
5.00000E-01 4.60871E-27
5.04363E-01 4.48601E-27
5.08726E-01 4.36690E-27
5.13088E-01 4.25128E-27
5.17450E-01 4.13902E-27
5.21810E-01 4.03001E-27
5.26168E-01 3.92414E-27
5.30524E-01 3.82132E-27
5.34878E-01 3.72142E-27
5.39230E-01 3.62438E-27
5.43578E-01 3.53007E-27
5.47923E-01 3.43843E-27
5.52264E-01 3.34936E-27
5.56602E-01 3.26278E-27
5.60935E-01 3.17861E-27
5.65263E-01 3.09678E-27
5.69587E-01 3.01720E-27
5.73905E-01 2.93981E-27
5.78217E-01 2.86454E-27
5.82524E-01 2.79132E-27
5.86824E-01 2.72008E-27
5.91118E-01 2.65078E-27
5.95404E-01 2.58334E-27
5.99684E-01 2.51771E-27
6.03956E-01 2.45384E-27
6.08220E-01 2.39166E-27
6.12476E-01 2.33114E-27
6.16723E-01 2.27221E-27
6.20961E-01 2.21484E-27
6.25190E-01 2.15897E-27
6.29410E-01 2.10456E-27
6.33619E-01 2.05156E-27
6.37819E-01 1.99994E-27
6.42008E-01 1.94966E-27
6.46186E-01 1.90067E-27
6.50353E-01 1.85293E-27
6.54508E-01 1.80642E-27
6.58652E-01 1.76109E-27
6.62784E-01 1.71692E-27
6.66903E-01 1.67386E-27
6.71010E-01 1.63189E-27
6.75104E-01 1.59098E-27
6.79184E-01 1.55109E-27
6.83251E-01 1.51219E-27
6.87303E-01 1.47427E-27
6.91342E-01 1.43729E-27
6.95366E-01 1.40122E-27
6.99375E-01 1.36604E-27
7.03368E-01 1.33173E-27
7.07347E-01 1.29826E-27
7.11309E-01 1.26561E-27
7.15256E-01 1.23376E-27
7.19186E-01 1.20268E-27
7.23099E-01 1.17235E-27
7.26995E-01 1.14276E-27
7.30874E-01 1.11388E-27
7.34736E-01 1.08570E-27
7.38579E-01 1.05819E-27
7.42405E-01 1.03134E-27
7.46212E-01 1.00513E-27
7.50000E-01 9.79547E-28
7.53769E-01 9.54570E-28
7.57519E-01 9.30186E-28
7.61249E-01 9.06378E-28
7.64960E-01 8.83132E-28
7.68650E-01 8.60433E-28
7.72320E-01 8.38268E-28
7.75968E-01 8.16622E-28
7.79596E-01 7.95482E-28
7.83203E-01 7.74836E-28
7.86788E-01 7.54672E-28
7.90351E-01 7.34976E-28
7.93893E-01 7.15738E-28
7.97411E-01 6.96946E-28
8.00908E-01 6.78588E-28
8.04381E-01 6.60655E-28
8.07831E-01 6.43136E-28
8.11257E-01 6.26021E-28
8.14660E-01 6.09299E-28
8.18039E-01 5.92962E-28
8.21394E-01 5.76999E-28
8.24724E-01 5.61403E-28
8.28030E-01 5.46164E-28
8.31310E-01 5.31274E-28
8.34565E-01 5.16724E-28
8.37795E-01 5.02507E-28
8.40999E-01 4.88614E-28
8.44177E-01 4.75039E-28
8.47329E-01 4.61773E-28
8.50455E-01 4.48809E-28
8.53553E-01 4.36141E-28
8.56625E-01 4.23762E-28
8.59670E-01 4.11666E-28
8.62687E-01 3.99844E-28
8.65677E-01 3.88293E-28
8.68639E-01 3.77005E-28
8.71572E-01 3.65975E-28
8.74478E-01 3.55196E-28
8.77355E-01 3.44664E-28
8.80203E-01 3.34373E-28
8.83022E-01 3.24317E-28
8.85812E-01 3.14493E-28
8.88573E-01 3.04893E-28
8.91304E-01 2.95515E-28
8.94005E-01 2.86352E-28
8.96677E-01 2.77401E-28
8.99318E-01 2.68657E-28
9.01928E-01 2.60115E-28
9.04508E-01 2.51772E-28
9.07058E-01 2.43623E-28
9.09576E-01 2.35665E-28
9.12063E-01 2.27893E-28
9.14519E-01 2.20304E-28
9.16943E-01 2.12894E-28
9.19335E-01 2.05659E-28
9.21696E-01 1.98597E-28
9.24024E-01 1.91703E-28
9.26320E-01 1.84974E-28
9.28584E-01 1.78408E-28
9.30815E-01 1.72001E-28
9.33013E-01 1.65749E-28
9.35178E-01 1.59651E-28
9.37310E-01 1.53704E-28
9.39409E-01 1.47904E-28
9.41474E-01 1.42248E-28
9.43505E-01 1.36735E-28
9.45503E-01 1.31362E-28
9.47467E-01 1.26126E-28
9.49397E-01 1.21025E-28
9.51293E-01 1.16056E-28
9.53154E-01 1.11218E-28
9.54981E-01 1.06508E-28
9.56773E-01 1.01923E-28
9.58530E-01 9.74628E-29
9.60252E-01 9.31243E-29
9.61940E-01 8.89058E-29
9.63592E-01 8.48054E-29
9.65209E-01 8.08212E-29
9.66790E-01 7.69515E-29
9.68336E-01 7.31946E-29
9.69846E-01 6.95488E-29
9.71321E-01 6.60125E-29
9.72759E-01 6.25842E-29
9.74162E-01 5.92624E-29
9.75528E-01 5.60456E-29
9.76858E-01 5.29323E-29
9.78152E-01 4.99214E-29
9.79410E-01 4.70114E-29
9.80631E-01 4.42011E-29
9.81815E-01 4.14893E-29
9.82963E-01 3.88747E-29
9.84074E-01 3.63564E-29
9.85148E-01 3.39332E-29
9.86185E-01 3.16040E-29
9.87185E-01 2.93679E-29
9.88148E-01 2.72239E-29
9.89074E-01 2.51711E-29
9.89962E-01 2.32087E-29
9.90814E-01 2.13357E-29
9.91627E-01 1.95514E-29
9.92404E-01 1.78551E-29
9.93143E-01 1.62459E-29
9.93844E-01 1.47234E-29
9.94508E-01 1.32867E-29
9.95134E-01 1.19353E-29
9.95722E-01 1.06686E-29
9.96273E-01 9.48612E-30
9.96786E-01 8.38733E-30
9.97261E-01 7.37177E-30
9.97698E-01 6.43900E-30
9.98097E-01 5.58865E-30
9.98459E-01 4.82036E-30
9.98782E-01 4.13379E-30
9.99067E-01 3.52868E-30
9.99315E-01 3.00475E-30
9.99524E-01 2.56180E-30
9.99695E-01 2.19964E-30
9.99829E-01 1.91812E-30
9.99924E-01 1.71711E-30
9.99981E-01 1.59654E-30
1.00000E+00 1.55636E-30
