 #
 # Subroutine ELSEPA. Elastic scattering of electrons and positrons
 #                    by neutral atoms and positive ions
 #
 # Projectile: positron
 # Kinetic energy = 3.00000E+07 eV = 1.10248E+06 a.u.
 #
 # WARNING: High-energy factorization with free-atom DF screening.
 #          Absorption, polarization and exchange corrections are
 #          switched off.
 #          Phase shifts are calculated for the bare nucleus.
 #          Scattering amplitudes are not evaluated.
 #
 # Element:  P,  Z =  15,  atomic weight = 3.09738E+01 g/mol
 #
 # Nuclear model: Fermi distribution
 #                Average radius = 3.36033E-13 cm
 #                Skin thickness = 5.46000E-14 cm
 #
 # Number of electrons = 15
 #
 # Total elastic cross section = 9.76409E-19 cm**2 = 3.48682E-02 a0**2
 # 1st transport cross section = 4.61299E-25 cm**2 = 1.64733E-08 a0**2
 # 2nd transport cross section = 1.34478E-24 cm**2 = 4.80230E-08 a0**2
 #
 #
 # Differential cross section:                       MU=(1-COS(THETA))/2
 #
 #  THETA        MU          DCS          DCS        Sherman      error
 #  (deg)                 (cm**2/sr)   (a0**2/sr)    function
 #----------------------------------------------------------------------
0.00000E+00 1.06871E-11
7.61557E-13 1.06848E-11
1.18994E-12 1.06835E-11
1.71346E-12 1.06820E-11
2.33225E-12 1.06801E-11
3.04617E-12 1.06780E-11
3.85530E-12 1.06756E-11
4.75964E-12 1.06730E-11
5.75917E-12 1.06700E-11
6.85391E-12 1.06668E-11
8.04379E-12 1.06633E-11
9.32893E-12 1.06595E-11
1.07092E-11 1.06555E-11
1.21847E-11 1.06512E-11
1.37554E-11 1.06466E-11
1.54213E-11 1.06417E-11
1.71823E-11 1.06366E-11
1.90386E-11 1.06311E-11
2.09900E-11 1.06254E-11
2.30367E-11 1.06195E-11
2.51785E-11 1.06132E-11
2.74156E-11 1.06067E-11
2.97478E-11 1.05999E-11
3.21752E-11 1.05929E-11
3.46979E-11 1.05856E-11
3.73157E-11 1.05780E-11
4.00286E-11 1.05701E-11
4.28368E-11 1.05620E-11
4.57402E-11 1.05536E-11
4.87388E-11 1.05450E-11
5.18325E-11 1.05360E-11
5.50215E-11 1.05269E-11
5.83057E-11 1.05174E-11
6.16850E-11 1.05077E-11
6.51595E-11 1.04978E-11
6.87293E-11 1.04875E-11
7.23943E-11 1.04771E-11
7.61544E-11 1.04663E-11
1.18991E-10 1.03452E-11
1.71347E-10 1.01998E-11
2.33223E-10 1.00317E-11
3.04617E-10 9.84243E-12
3.85531E-10 9.63402E-12
4.75965E-10 9.40839E-12
5.75917E-10 9.16761E-12
6.85389E-10 8.91379E-12
8.04380E-10 8.64903E-12
9.32891E-10 8.37537E-12
1.07092E-09 8.09471E-12
1.21847E-09 7.80919E-12
1.37554E-09 7.52068E-12
1.54213E-09 7.23092E-12
1.71823E-09 6.93538E-12
1.90386E-09 6.63607E-12
2.09900E-09 6.34837E-12
2.30367E-09 6.07280E-12
2.51785E-09 5.80963E-12
2.74156E-09 5.53641E-12
2.97478E-09 5.26774E-12
3.21752E-09 5.01362E-12
3.46978E-09 4.77366E-12
3.73156E-09 4.54654E-12
4.00286E-09 4.30896E-12
4.28368E-09 4.08601E-12
4.57402E-09 3.87695E-12
4.87388E-09 3.68101E-12
5.18326E-09 3.49096E-12
5.50215E-09 3.30268E-12
5.83057E-09 3.12682E-12
6.16850E-09 2.96255E-12
6.51596E-09 2.80912E-12
6.87293E-09 2.65794E-12
7.23942E-09 2.51384E-12
7.61544E-09 2.37944E-12
1.18991E-08 1.38725E-12
1.71347E-08 8.36972E-13
2.33223E-08 5.30556E-13
3.04617E-08 3.54499E-13
3.85531E-08 2.48707E-13
4.75965E-08 1.81870E-13
5.75917E-08 1.37535E-13
6.85389E-08 1.06806E-13
8.04380E-08 8.46670E-14
9.32891E-08 6.81900E-14
1.07092E-07 5.56000E-14
1.21847E-07 4.57935E-14
1.37554E-07 3.80306E-14
1.54213E-07 3.18053E-14
1.71823E-07 2.67221E-14
1.90386E-07 2.25970E-14
2.09900E-07 1.92197E-14
2.30367E-07 1.64224E-14
2.51785E-07 1.40878E-14
2.74156E-07 1.21466E-14
2.97478E-07 1.05032E-14
3.21752E-07 9.13033E-15
3.46978E-07 7.95506E-15
3.73156E-07 6.96668E-15
4.00286E-07 6.11458E-15
4.28368E-07 5.39090E-15
4.57402E-07 4.76546E-15
4.87388E-07 4.22842E-15
5.18325E-07 3.76252E-15
5.50215E-07 3.35876E-15
5.83057E-07 3.00691E-15
6.16850E-07 2.69954E-15
6.51596E-07 2.43032E-15
6.87293E-07 2.19351E-15
7.23942E-07 1.98500E-15
7.61543E-07 1.80044E-15
1.18991E-06 7.61251E-16
1.71347E-06 3.77292E-16
2.33223E-06 2.08581E-16
3.04617E-06 1.24736E-16
3.85531E-06 7.91358E-17
4.75964E-06 5.25859E-17
5.75916E-06 3.62766E-17
6.85388E-06 2.58130E-17
8.04378E-06 1.88548E-17
9.32888E-06 1.40846E-17
1.07092E-05 1.07278E-17
1.21846E-05 8.31151E-18
1.37553E-05 6.53709E-18
1.54212E-05 5.21084E-18
1.71822E-05 4.20378E-18
1.90385E-05 3.42789E-18
2.09899E-05 2.82306E-18
2.30365E-05 2.34575E-18
2.51783E-05 1.96503E-18
2.74153E-05 1.65837E-18
2.97475E-05 1.40916E-18
3.21749E-05 1.20497E-18
3.46974E-05 1.03642E-18
3.73152E-05 8.96315E-19
4.00281E-05 7.79091E-19
4.28362E-05 6.80413E-19
4.57395E-05 5.96869E-19
4.87380E-05 5.25754E-19
5.18317E-05 4.64913E-19
5.50205E-05 4.12614E-19
5.83045E-05 3.67459E-19
6.16838E-05 3.28310E-19
6.51582E-05 2.94235E-19
6.87277E-05 2.64466E-19
7.23925E-05 2.38369E-19
7.61524E-05 2.15409E-19
9.21439E-05 1.47121E-19
1.09658E-04 1.03861E-19
1.28695E-04 7.53933E-20
1.49255E-04 5.60403E-20
1.71338E-04 4.25135E-20
1.94942E-04 3.28316E-20
2.20070E-04 2.57544E-20
2.46720E-04 2.04851E-20
2.74892E-04 1.64964E-20
3.04586E-04 1.34326E-20
3.35803E-04 1.10479E-20
3.68542E-04 9.16946E-21
4.02802E-04 7.67362E-21
4.38585E-04 6.47056E-21
4.75889E-04 5.49419E-21
5.14715E-04 4.69511E-21
5.55063E-04 4.03608E-21
5.96931E-04 3.48866E-21
6.40321E-04 3.03092E-21
6.85233E-04 2.64580E-21
7.31665E-04 2.31990E-21
7.79618E-04 2.04264E-21
8.29092E-04 1.80556E-21
8.80086E-04 1.60186E-21
9.32601E-04 1.42608E-21
9.86636E-04 1.27374E-21
1.04219E-03 1.14119E-21
1.09927E-03 1.02543E-21
1.15786E-03 9.23961E-22
1.21797E-03 8.34730E-22
1.27961E-03 7.56004E-22
1.34276E-03 6.86335E-22
1.40743E-03 6.24500E-22
1.47362E-03 5.69468E-22
1.54133E-03 5.20359E-22
1.61056E-03 4.76425E-22
1.68131E-03 4.37026E-22
1.75357E-03 4.01611E-22
1.82735E-03 3.69708E-22
1.90265E-03 3.40906E-22
1.97947E-03 3.14852E-22
2.05780E-03 2.91237E-22
2.13765E-03 2.69791E-22
2.21902E-03 2.50281E-22
2.30190E-03 2.32500E-22
2.38630E-03 2.16268E-22
2.47222E-03 2.01426E-22
2.55965E-03 1.87834E-22
2.64859E-03 1.75368E-22
2.73905E-03 1.63917E-22
2.83103E-03 1.53384E-22
2.92452E-03 1.43682E-22
3.01952E-03 1.34734E-22
3.11604E-03 1.26470E-22
3.21407E-03 1.18829E-22
3.31362E-03 1.11756E-22
3.41468E-03 1.05200E-22
3.51725E-03 9.91173E-23
3.62133E-03 9.34669E-23
3.72692E-03 8.82126E-23
3.83403E-03 8.33216E-23
3.94265E-03 7.87643E-23
4.05278E-03 7.45137E-23
4.16442E-03 7.05454E-23
4.27757E-03 6.68372E-23
4.39223E-03 6.33689E-23
4.50840E-03 6.01222E-23
4.62608E-03 5.70804E-23
4.74527E-03 5.42280E-23
4.86597E-03 5.15512E-23
4.98817E-03 4.90371E-23
5.11188E-03 4.66741E-23
5.23711E-03 4.44514E-23
5.36383E-03 4.23591E-23
5.49207E-03 4.03881E-23
5.62181E-03 3.85302E-23
5.75306E-03 3.67776E-23
5.88581E-03 3.51232E-23
6.02007E-03 3.35606E-23
6.15583E-03 3.20837E-23
6.29310E-03 3.06869E-23
6.43187E-03 2.93651E-23
6.57214E-03 2.81136E-23
6.71392E-03 2.69277E-23
6.85720E-03 2.58036E-23
7.00198E-03 2.47374E-23
7.14827E-03 2.37255E-23
7.29605E-03 2.27646E-23
7.44534E-03 2.18518E-23
7.59612E-03 2.09841E-23
7.97965E-03 1.89955E-23
8.37255E-03 1.72362E-23
8.77480E-03 1.56754E-23
9.18641E-03 1.42867E-23
9.60736E-03 1.30480E-23
1.00376E-02 1.19402E-23
1.04773E-02 1.09471E-23
1.09262E-02 1.00547E-23
1.13844E-02 9.25113E-24
1.18520E-02 8.52593E-24
1.23288E-02 7.87014E-24
1.28150E-02 7.27595E-24
1.33104E-02 6.73655E-24
1.38150E-02 6.24602E-24
1.43290E-02 5.79913E-24
1.48521E-02 5.39132E-24
1.53845E-02 5.01857E-24
1.59262E-02 4.67734E-24
1.64770E-02 4.36447E-24
1.70371E-02 4.07721E-24
1.76063E-02 3.81307E-24
1.81848E-02 3.56986E-24
1.87724E-02 3.34564E-24
1.93692E-02 3.13865E-24
1.99751E-02 2.94734E-24
2.05901E-02 2.77029E-24
2.12143E-02 2.60627E-24
2.18476E-02 2.45413E-24
2.24900E-02 2.31287E-24
2.31415E-02 2.18156E-24
2.38021E-02 2.05937E-24
2.44717E-02 1.94557E-24
2.51504E-02 1.83947E-24
2.58382E-02 1.74045E-24
2.65349E-02 1.64797E-24
2.72407E-02 1.56150E-24
2.79555E-02 1.48058E-24
2.86793E-02 1.40480E-24
2.94120E-02 1.33378E-24
3.01537E-02 1.26715E-24
3.09043E-02 1.20459E-24
3.16639E-02 1.14582E-24
3.24324E-02 1.09056E-24
3.32098E-02 1.03856E-24
3.39961E-02 9.89603E-25
3.47912E-02 9.43470E-25
3.55952E-02 8.99970E-25
3.64081E-02 8.58926E-25
3.72297E-02 8.20174E-25
3.80602E-02 7.83563E-25
3.88995E-02 7.48953E-25
3.97476E-02 7.16214E-25
4.06044E-02 6.85228E-25
4.14700E-02 6.55883E-25
4.23443E-02 6.28076E-25
4.32273E-02 6.01712E-25
4.41190E-02 5.76703E-25
4.50194E-02 5.52966E-25
4.59284E-02 5.30425E-25
4.68461E-02 5.09008E-25
4.87074E-02 4.69286E-25
5.06030E-02 4.33323E-25
5.25328E-02 4.00702E-25
5.44967E-02 3.71058E-25
5.64946E-02 3.44073E-25
5.85262E-02 3.19467E-25
6.05914E-02 2.96994E-25
6.26901E-02 2.76438E-25
6.48222E-02 2.57606E-25
6.69873E-02 2.40328E-25
6.91854E-02 2.24455E-25
7.14163E-02 2.09851E-25
7.36799E-02 1.96399E-25
7.59760E-02 1.83991E-25
7.83043E-02 1.72532E-25
8.06647E-02 1.61937E-25
8.30571E-02 1.52129E-25
8.54812E-02 1.43040E-25
8.79369E-02 1.34608E-25
9.04240E-02 1.26777E-25
9.29422E-02 1.19497E-25
9.54915E-02 1.12723E-25
9.80716E-02 1.06412E-25
1.00682E-01 1.00528E-25
1.03323E-01 9.50372E-26
1.05995E-01 8.99084E-26
1.08696E-01 8.51136E-26
1.11427E-01 8.06272E-26
1.14188E-01 7.64261E-26
1.16978E-01 7.24889E-26
1.19797E-01 6.87961E-26
1.22645E-01 6.53299E-26
1.25522E-01 6.20740E-26
1.28428E-01 5.90134E-26
1.31361E-01 5.61344E-26
1.34323E-01 5.34243E-26
1.37313E-01 5.08715E-26
1.40330E-01 4.84653E-26
1.43375E-01 4.61958E-26
1.46447E-01 4.40539E-26
1.49545E-01 4.20311E-26
1.52671E-01 4.01197E-26
1.55823E-01 3.83126E-26
1.59001E-01 3.66029E-26
1.62205E-01 3.49847E-26
1.65435E-01 3.34520E-26
1.68690E-01 3.19997E-26
1.71970E-01 3.06228E-26
1.75276E-01 2.93167E-26
1.78606E-01 2.80771E-26
1.81961E-01 2.69001E-26
1.85340E-01 2.57819E-26
1.88743E-01 2.47192E-26
1.92169E-01 2.37087E-26
1.95619E-01 2.27473E-26
1.99092E-01 2.18324E-26
2.02589E-01 2.09612E-26
2.06107E-01 2.01314E-26
2.09649E-01 1.93405E-26
2.13212E-01 1.85866E-26
2.16797E-01 1.78675E-26
2.20404E-01 1.71814E-26
2.24032E-01 1.65265E-26
2.27680E-01 1.59012E-26
2.31350E-01 1.53039E-26
2.35040E-01 1.47331E-26
2.38751E-01 1.41874E-26
2.42481E-01 1.36656E-26
2.46231E-01 1.31665E-26
2.50000E-01 1.26888E-26
2.53788E-01 1.22316E-26
2.57595E-01 1.17937E-26
2.61421E-01 1.13743E-26
2.65264E-01 1.09724E-26
2.69126E-01 1.05872E-26
2.73005E-01 1.02179E-26
2.76901E-01 9.86363E-27
2.80814E-01 9.52378E-27
2.84744E-01 9.19763E-27
2.88691E-01 8.88454E-27
2.92653E-01 8.58391E-27
2.96632E-01 8.29515E-27
3.00625E-01 8.01773E-27
3.04634E-01 7.75111E-27
3.08658E-01 7.49482E-27
3.12697E-01 7.24838E-27
3.16749E-01 7.01136E-27
3.20816E-01 6.78334E-27
3.24896E-01 6.56392E-27
3.28990E-01 6.35273E-27
3.33097E-01 6.14940E-27
3.37216E-01 5.95360E-27
3.41348E-01 5.76500E-27
3.45492E-01 5.58330E-27
3.49647E-01 5.40820E-27
3.53814E-01 5.23943E-27
3.57992E-01 5.07671E-27
3.62181E-01 4.91981E-27
3.66381E-01 4.76847E-27
3.70590E-01 4.62247E-27
3.74810E-01 4.48159E-27
3.79039E-01 4.34562E-27
3.83277E-01 4.21437E-27
3.87524E-01 4.08764E-27
3.91780E-01 3.96526E-27
3.96044E-01 3.84706E-27
4.00316E-01 3.73286E-27
4.04596E-01 3.62251E-27
4.08882E-01 3.51586E-27
4.13176E-01 3.41278E-27
4.17476E-01 3.31311E-27
4.21783E-01 3.21674E-27
4.26095E-01 3.12353E-27
4.30413E-01 3.03336E-27
4.34737E-01 2.94613E-27
4.39065E-01 2.86171E-27
4.43398E-01 2.78002E-27
4.47736E-01 2.70093E-27
4.52077E-01 2.62437E-27
4.56422E-01 2.55024E-27
4.60770E-01 2.47844E-27
4.65122E-01 2.40889E-27
4.69476E-01 2.34152E-27
4.73832E-01 2.27625E-27
4.78190E-01 2.21299E-27
4.82550E-01 2.15168E-27
4.86912E-01 2.09225E-27
4.91274E-01 2.03463E-27
4.95637E-01 1.97877E-27
5.00000E-01 1.92459E-27
5.04363E-01 1.87204E-27
5.08726E-01 1.82107E-27
5.13088E-01 1.77162E-27
5.17450E-01 1.72364E-27
5.21810E-01 1.67707E-27
5.26168E-01 1.63188E-27
5.30524E-01 1.58801E-27
5.34878E-01 1.54542E-27
5.39230E-01 1.50408E-27
5.43578E-01 1.46392E-27
5.47923E-01 1.42493E-27
5.52264E-01 1.38705E-27
5.56602E-01 1.35026E-27
5.60935E-01 1.31451E-27
5.65263E-01 1.27978E-27
5.69587E-01 1.24603E-27
5.73905E-01 1.21323E-27
5.78217E-01 1.18135E-27
5.82524E-01 1.15036E-27
5.86824E-01 1.12023E-27
5.91118E-01 1.09093E-27
5.95404E-01 1.06245E-27
5.99684E-01 1.03474E-27
6.03956E-01 1.00780E-27
6.08220E-01 9.81593E-28
6.12476E-01 9.56097E-28
6.16723E-01 9.31292E-28
6.20961E-01 9.07158E-28
6.25190E-01 8.83672E-28
6.29410E-01 8.60816E-28
6.33619E-01 8.38571E-28
6.37819E-01 8.16919E-28
6.42008E-01 7.95840E-28
6.46186E-01 7.75320E-28
6.50353E-01 7.55340E-28
6.54508E-01 7.35886E-28
6.58652E-01 7.16940E-28
6.62784E-01 6.98490E-28
6.66903E-01 6.80519E-28
6.71010E-01 6.63015E-28
6.75104E-01 6.45963E-28
6.79184E-01 6.29351E-28
6.83251E-01 6.13165E-28
6.87303E-01 5.97395E-28
6.91342E-01 5.82027E-28
6.95366E-01 5.67051E-28
6.99375E-01 5.52455E-28
7.03368E-01 5.38229E-28
7.07347E-01 5.24362E-28
7.11309E-01 5.10845E-28
7.15256E-01 4.97666E-28
7.19186E-01 4.84818E-28
7.23099E-01 4.72291E-28
7.26995E-01 4.60076E-28
7.30874E-01 4.48165E-28
7.34736E-01 4.36549E-28
7.38579E-01 4.25220E-28
7.42405E-01 4.14171E-28
7.46212E-01 4.03393E-28
7.50000E-01 3.92880E-28
7.53769E-01 3.82625E-28
7.57519E-01 3.72620E-28
7.61249E-01 3.62859E-28
7.64960E-01 3.53336E-28
7.68650E-01 3.44044E-28
7.72320E-01 3.34977E-28
7.75968E-01 3.26129E-28
7.79596E-01 3.17495E-28
7.83203E-01 3.09069E-28
7.86788E-01 3.00846E-28
7.90351E-01 2.92820E-28
7.93893E-01 2.84986E-28
7.97411E-01 2.77339E-28
8.00908E-01 2.69876E-28
8.04381E-01 2.62590E-28
8.07831E-01 2.55478E-28
8.11257E-01 2.48534E-28
8.14660E-01 2.41756E-28
8.18039E-01 2.35139E-28
8.21394E-01 2.28678E-28
8.24724E-01 2.22370E-28
8.28030E-01 2.16211E-28
8.31310E-01 2.10198E-28
8.34565E-01 2.04326E-28
8.37795E-01 1.98593E-28
8.40999E-01 1.92995E-28
8.44177E-01 1.87529E-28
8.47329E-01 1.82192E-28
8.50455E-01 1.76980E-28
8.53553E-01 1.71890E-28
8.56625E-01 1.66921E-28
8.59670E-01 1.62068E-28
8.62687E-01 1.57329E-28
8.65677E-01 1.52701E-28
8.68639E-01 1.48183E-28
8.71572E-01 1.43771E-28
8.74478E-01 1.39462E-28
8.77355E-01 1.35255E-28
8.80203E-01 1.31147E-28
8.83022E-01 1.27136E-28
8.85812E-01 1.23220E-28
8.88573E-01 1.19397E-28
8.91304E-01 1.15664E-28
8.94005E-01 1.12019E-28
8.96677E-01 1.08461E-28
8.99318E-01 1.04987E-28
9.01928E-01 1.01597E-28
9.04508E-01 9.82873E-29
9.07058E-01 9.50569E-29
9.09576E-01 9.19041E-29
9.12063E-01 8.88272E-29
9.14519E-01 8.58246E-29
9.16943E-01 8.28948E-29
9.19335E-01 8.00362E-29
9.21696E-01 7.72473E-29
9.24024E-01 7.45267E-29
9.26320E-01 7.18731E-29
9.28584E-01 6.92851E-29
9.30815E-01 6.67613E-29
9.33013E-01 6.43004E-29
9.35178E-01 6.19013E-29
9.37310E-01 5.95628E-29
9.39409E-01 5.72836E-29
9.41474E-01 5.50626E-29
9.43505E-01 5.28987E-29
9.45503E-01 5.07909E-29
9.47467E-01 4.87380E-29
9.49397E-01 4.67391E-29
9.51293E-01 4.47933E-29
9.53154E-01 4.28994E-29
9.54981E-01 4.10567E-29
9.56773E-01 3.92642E-29
9.58530E-01 3.75210E-29
9.60252E-01 3.58263E-29
9.61940E-01 3.41793E-29
9.63592E-01 3.25792E-29
9.65209E-01 3.10252E-29
9.66790E-01 2.95166E-29
9.68336E-01 2.80526E-29
9.69846E-01 2.66326E-29
9.71321E-01 2.52558E-29
9.72759E-01 2.39216E-29
9.74162E-01 2.26295E-29
9.75528E-01 2.13787E-29
9.76858E-01 2.01686E-29
9.78152E-01 1.89988E-29
9.79410E-01 1.78686E-29
9.80631E-01 1.67776E-29
9.81815E-01 1.57252E-29
9.82963E-01 1.47109E-29
9.84074E-01 1.37343E-29
9.85148E-01 1.27948E-29
9.86185E-01 1.18921E-29
9.87185E-01 1.10258E-29
9.88148E-01 1.01954E-29
9.89074E-01 9.40053E-30
9.89962E-01 8.64087E-30
9.90814E-01 7.91604E-30
9.91627E-01 7.22572E-30
9.92404E-01 6.56958E-30
9.93143E-01 5.94733E-30
9.93844E-01 5.35867E-30
9.94508E-01 4.80335E-30
9.95134E-01 4.28109E-30
9.95722E-01 3.79167E-30
9.96273E-01 3.33486E-30
9.96786E-01 2.91045E-30
9.97261E-01 2.51825E-30
9.97698E-01 2.15808E-30
9.98097E-01 1.82978E-30
9.98459E-01 1.53319E-30
9.98782E-01 1.26818E-30
9.99067E-01 1.03463E-30
9.99315E-01 8.32434E-31
9.99524E-01 6.61501E-31
9.99695E-01 5.21753E-31
9.99829E-01 4.13125E-31
9.99924E-01 3.35569E-31
9.99981E-01 2.89050E-31
1.00000E+00 2.73547E-31
