 #
 # Subroutine ELSEPA. Elastic scattering of electrons and positrons
 #                    by neutral atoms and positive ions
 #
 # Projectile: electron
 # Kinetic energy = 3.50000E+06 eV = 1.28623E+05 a.u.
 #
 # WARNING: High-energy factorization with free-atom DF screening.
 #          Absorption, polarization and exchange corrections are
 #          switched off.
 #          Phase shifts are calculated for the bare nucleus.
 #          Scattering amplitudes are not evaluated.
 #
 # Element: Eu,  Z =  63,  atomic weight = 1.51964E+02 g/mol
 #
 # Nuclear model: Fermi distribution
 #                Average radius = 5.70993E-13 cm
 #                Skin thickness = 5.46000E-14 cm
 #
 # Number of electrons = 63
 #
 # Total elastic cross section = 7.32908E-18 cm**2 = 2.61726E-01 a0**2
 # 1st transport cross section = 3.92868E-22 cm**2 = 1.40296E-05 a0**2
 # 2nd transport cross section = 1.07331E-21 cm**2 = 3.83288E-05 a0**2
 #
 #
 # Differential cross section:                       MU=(1-COS(THETA))/2
 #
 #  THETA        MU          DCS          DCS        Sherman      error
 #  (deg)                 (cm**2/sr)   (a0**2/sr)    function
 #----------------------------------------------------------------------
0.00000E+00 1.43166E-12
7.61557E-13 1.43165E-12
1.18994E-12 1.43165E-12
1.71346E-12 1.43164E-12
2.33225E-12 1.43163E-12
3.04617E-12 1.43162E-12
3.85530E-12 1.43161E-12
4.75964E-12 1.43159E-12
5.75917E-12 1.43158E-12
6.85391E-12 1.43156E-12
8.04379E-12 1.43154E-12
9.32893E-12 1.43152E-12
1.07092E-11 1.43150E-12
1.21847E-11 1.43148E-12
1.37554E-11 1.43146E-12
1.54213E-11 1.43143E-12
1.71823E-11 1.43141E-12
1.90386E-11 1.43138E-12
2.09900E-11 1.43135E-12
2.30367E-11 1.43132E-12
2.51785E-11 1.43129E-12
2.74156E-11 1.43125E-12
2.97478E-11 1.43122E-12
3.21752E-11 1.43118E-12
3.46979E-11 1.43115E-12
3.73157E-11 1.43111E-12
4.00286E-11 1.43107E-12
4.28368E-11 1.43102E-12
4.57402E-11 1.43098E-12
4.87388E-11 1.43094E-12
5.18325E-11 1.43089E-12
5.50215E-11 1.43084E-12
5.83057E-11 1.43079E-12
6.16850E-11 1.43074E-12
6.51595E-11 1.43069E-12
6.87293E-11 1.43064E-12
7.23943E-11 1.43058E-12
7.61544E-11 1.43053E-12
1.18991E-10 1.42989E-12
1.71347E-10 1.42911E-12
2.33223E-10 1.42819E-12
3.04617E-10 1.42712E-12
3.85531E-10 1.42592E-12
4.75965E-10 1.42458E-12
5.75917E-10 1.42310E-12
6.85389E-10 1.42148E-12
8.04380E-10 1.41972E-12
9.32891E-10 1.41783E-12
1.07092E-09 1.41580E-12
1.21847E-09 1.41364E-12
1.37554E-09 1.41134E-12
1.54213E-09 1.40891E-12
1.71823E-09 1.40635E-12
1.90386E-09 1.40366E-12
2.09900E-09 1.40084E-12
2.30367E-09 1.39790E-12
2.51785E-09 1.39482E-12
2.74156E-09 1.39163E-12
2.97478E-09 1.38830E-12
3.21752E-09 1.38486E-12
3.46978E-09 1.38130E-12
3.73156E-09 1.37762E-12
4.00286E-09 1.37382E-12
4.28368E-09 1.36991E-12
4.57402E-09 1.36588E-12
4.87388E-09 1.36175E-12
5.18326E-09 1.35750E-12
5.50215E-09 1.35314E-12
5.83057E-09 1.34868E-12
6.16850E-09 1.34412E-12
6.51596E-09 1.33945E-12
6.87293E-09 1.33469E-12
7.23942E-09 1.32983E-12
7.61544E-09 1.32487E-12
1.18991E-08 1.27049E-12
1.71347E-08 1.20920E-12
2.33223E-08 1.14265E-12
3.04617E-08 1.07361E-12
3.85531E-08 1.00379E-12
4.75965E-08 9.34565E-13
5.75917E-08 8.67277E-13
6.85389E-08 8.03617E-13
8.04380E-08 7.43456E-13
9.32891E-08 6.87201E-13
1.07092E-07 6.35390E-13
1.21847E-07 5.88028E-13
1.37554E-07 5.44621E-13
1.54213E-07 5.05019E-13
1.71823E-07 4.69334E-13
1.90386E-07 4.36925E-13
2.09900E-07 4.07469E-13
2.30367E-07 3.80760E-13
2.51785E-07 3.56610E-13
2.74156E-07 3.34585E-13
2.97478E-07 3.14486E-13
3.21752E-07 2.96147E-13
3.46978E-07 2.79336E-13
3.73156E-07 2.63878E-13
4.00286E-07 2.49641E-13
4.28368E-07 2.36467E-13
4.57402E-07 2.24253E-13
4.87388E-07 2.12913E-13
5.18325E-07 2.02350E-13
5.50215E-07 1.92452E-13
5.83057E-07 1.83201E-13
6.16850E-07 1.74542E-13
6.51596E-07 1.66379E-13
6.87293E-07 1.58685E-13
7.23942E-07 1.51449E-13
7.61543E-07 1.44636E-13
1.18991E-06 9.31223E-14
1.71347E-06 6.12008E-14
2.33223E-06 4.23982E-14
3.04617E-06 2.99191E-14
3.85531E-06 2.17521E-14
4.75964E-06 1.62453E-14
5.75916E-06 1.23839E-14
6.85388E-06 9.53876E-15
8.04378E-06 7.46843E-15
9.32888E-06 5.92602E-15
1.07092E-05 4.74525E-15
1.21846E-05 3.83436E-15
1.37553E-05 3.13160E-15
1.54212E-05 2.58217E-15
1.71822E-05 2.14519E-15
1.90385E-05 1.79723E-15
2.09899E-05 1.51985E-15
2.30365E-05 1.29482E-15
2.51783E-05 1.11022E-15
2.74153E-05 9.58279E-16
2.97475E-05 8.32250E-16
3.21749E-05 7.26733E-16
3.46974E-05 6.38018E-16
3.73152E-05 5.62821E-16
4.00281E-05 4.98562E-16
4.28362E-05 4.43277E-16
4.57395E-05 3.95633E-16
4.87380E-05 3.54359E-16
5.18317E-05 3.18374E-16
5.50205E-05 2.86783E-16
5.83045E-05 2.59047E-16
6.16838E-05 2.34604E-16
6.51582E-05 2.12912E-16
6.87277E-05 1.93636E-16
7.23925E-05 1.76490E-16
7.61524E-05 1.61190E-16
9.21439E-05 1.14092E-16
1.09658E-04 8.29067E-17
1.28695E-04 6.16348E-17
1.49255E-04 4.67233E-17
1.71338E-04 3.60790E-17
1.94942E-04 2.82992E-17
2.20070E-04 2.25214E-17
2.46720E-04 1.81540E-17
2.74892E-04 1.47942E-17
3.04586E-04 1.21810E-17
3.35803E-04 1.01237E-17
3.68542E-04 8.48472E-18
4.02802E-04 7.16340E-18
4.38585E-04 6.09098E-18
4.75889E-04 5.21288E-18
5.14715E-04 4.48723E-18
5.55063E-04 3.88349E-18
5.96931E-04 3.37836E-18
6.40321E-04 2.95301E-18
6.85233E-04 2.59213E-18
7.31665E-04 2.28487E-18
7.79618E-04 2.02194E-18
8.29092E-04 1.79577E-18
8.80086E-04 1.60023E-18
9.32601E-04 1.43067E-18
9.86636E-04 1.28304E-18
1.04219E-03 1.15392E-18
1.09927E-03 1.04064E-18
1.15786E-03 9.40970E-19
1.21797E-03 8.52982E-19
1.27961E-03 7.75002E-19
1.34276E-03 7.05764E-19
1.40743E-03 6.44116E-19
1.47362E-03 5.89060E-19
1.54133E-03 5.39764E-19
1.61056E-03 4.95541E-19
1.68131E-03 4.55773E-19
1.75357E-03 4.19917E-19
1.82735E-03 3.87531E-19
1.90265E-03 3.58224E-19
1.97947E-03 3.31647E-19
2.05780E-03 3.07492E-19
2.13765E-03 2.85509E-19
2.21902E-03 2.65467E-19
2.30190E-03 2.47160E-19
2.38630E-03 2.30410E-19
2.47222E-03 2.15065E-19
2.55965E-03 2.00984E-19
2.64859E-03 1.88040E-19
2.73905E-03 1.76129E-19
2.83103E-03 1.65152E-19
2.92452E-03 1.55023E-19
3.01952E-03 1.45662E-19
3.11604E-03 1.37002E-19
3.21407E-03 1.28981E-19
3.31362E-03 1.21542E-19
3.41468E-03 1.14635E-19
3.51725E-03 1.08216E-19
3.62133E-03 1.02244E-19
3.72692E-03 9.66801E-20
3.83403E-03 9.14928E-20
3.94265E-03 8.66518E-20
4.05278E-03 8.21292E-20
4.16442E-03 7.78999E-20
4.27757E-03 7.39418E-20
4.39223E-03 7.02342E-20
4.50840E-03 6.67578E-20
4.62608E-03 6.34956E-20
4.74527E-03 6.04322E-20
4.86597E-03 5.75531E-20
4.98817E-03 5.48446E-20
5.11188E-03 5.22952E-20
5.23711E-03 4.98937E-20
5.36383E-03 4.76297E-20
5.49207E-03 4.54938E-20
5.62181E-03 4.34775E-20
5.75306E-03 4.15729E-20
5.88581E-03 3.97723E-20
6.02007E-03 3.80691E-20
6.15583E-03 3.64572E-20
6.29310E-03 3.49305E-20
6.43187E-03 3.34836E-20
6.57214E-03 3.21118E-20
6.71392E-03 3.08103E-20
6.85720E-03 2.95747E-20
7.00198E-03 2.84010E-20
7.14827E-03 2.72858E-20
7.29605E-03 2.62254E-20
7.44534E-03 2.52164E-20
7.59612E-03 2.42561E-20
7.97965E-03 2.20502E-20
8.37255E-03 2.00922E-20
8.77480E-03 1.83492E-20
9.18641E-03 1.67934E-20
9.60736E-03 1.54010E-20
1.00376E-02 1.41517E-20
1.04773E-02 1.30282E-20
1.09262E-02 1.20154E-20
1.13844E-02 1.11005E-20
1.18520E-02 1.02722E-20
1.23288E-02 9.52079E-21
1.28150E-02 8.83787E-21
1.33104E-02 8.21599E-21
1.38150E-02 7.64868E-21
1.43290E-02 7.13026E-21
1.48521E-02 6.65569E-21
1.53845E-02 6.22063E-21
1.59262E-02 5.82115E-21
1.64770E-02 5.45372E-21
1.70371E-02 5.11535E-21
1.76063E-02 4.80329E-21
1.81848E-02 4.51509E-21
1.87724E-02 4.24856E-21
1.93692E-02 4.00180E-21
1.99751E-02 3.77303E-21
2.05901E-02 3.56069E-21
2.12143E-02 3.36337E-21
2.18476E-02 3.17981E-21
2.24900E-02 3.00886E-21
2.31415E-02 2.84947E-21
2.38021E-02 2.70073E-21
2.44717E-02 2.56178E-21
2.51504E-02 2.43183E-21
2.58382E-02 2.31021E-21
2.65349E-02 2.19626E-21
2.72407E-02 2.08942E-21
2.79555E-02 1.98914E-21
2.86793E-02 1.89494E-21
2.94120E-02 1.80639E-21
3.01537E-02 1.72307E-21
3.09043E-02 1.64462E-21
3.16639E-02 1.57069E-21
3.24324E-02 1.50097E-21
3.32098E-02 1.43517E-21
3.39961E-02 1.37303E-21
3.47912E-02 1.31431E-21
3.55952E-02 1.25877E-21
3.64081E-02 1.20621E-21
3.72297E-02 1.15643E-21
3.80602E-02 1.10927E-21
3.88995E-02 1.06455E-21
3.97476E-02 1.02212E-21
4.06044E-02 9.81845E-22
4.14700E-02 9.43587E-22
4.23443E-02 9.07226E-22
4.32273E-02 8.72648E-22
4.41190E-02 8.39749E-22
4.50194E-02 8.08429E-22
4.59284E-02 7.78598E-22
4.68461E-02 7.50169E-22
4.87074E-02 6.97208E-22
5.06030E-02 6.48968E-22
5.25328E-02 6.04946E-22
5.44967E-02 5.64700E-22
5.64946E-02 5.27842E-22
5.85262E-02 4.94030E-22
6.05914E-02 4.62961E-22
6.26901E-02 4.34369E-22
6.48222E-02 4.08016E-22
6.69873E-02 3.83691E-22
6.91854E-02 3.61207E-22
7.14163E-02 3.40395E-22
7.36799E-02 3.21106E-22
7.59760E-02 3.03205E-22
7.83043E-02 2.86573E-22
8.06647E-02 2.71101E-22
8.30571E-02 2.56691E-22
8.54812E-02 2.43254E-22
8.79369E-02 2.30713E-22
9.04240E-02 2.18993E-22
9.29422E-02 2.08031E-22
9.54915E-02 1.97767E-22
9.80716E-02 1.88148E-22
1.00682E-01 1.79124E-22
1.03323E-01 1.70650E-22
1.05995E-01 1.62687E-22
1.08696E-01 1.55196E-22
1.11427E-01 1.48144E-22
1.14188E-01 1.41500E-22
1.16978E-01 1.35234E-22
1.19797E-01 1.29322E-22
1.22645E-01 1.23738E-22
1.25522E-01 1.18460E-22
1.28428E-01 1.13469E-22
1.31361E-01 1.08744E-22
1.34323E-01 1.04270E-22
1.37313E-01 1.00029E-22
1.40330E-01 9.60071E-23
1.43375E-01 9.21904E-23
1.46447E-01 8.85660E-23
1.49545E-01 8.51222E-23
1.52671E-01 8.18480E-23
1.55823E-01 7.87333E-23
1.59001E-01 7.57687E-23
1.62205E-01 7.29452E-23
1.65435E-01 7.02549E-23
1.68690E-01 6.76899E-23
1.71970E-01 6.52431E-23
1.75276E-01 6.29080E-23
1.78606E-01 6.06782E-23
1.81961E-01 5.85480E-23
1.85340E-01 5.65120E-23
1.88743E-01 5.45651E-23
1.92169E-01 5.27025E-23
1.95619E-01 5.09199E-23
1.99092E-01 4.92129E-23
2.02589E-01 4.75778E-23
2.06107E-01 4.60108E-23
2.09649E-01 4.45083E-23
2.13212E-01 4.30673E-23
2.16797E-01 4.16846E-23
2.20404E-01 4.03573E-23
2.24032E-01 3.90827E-23
2.27680E-01 3.78583E-23
2.31350E-01 3.66817E-23
2.35040E-01 3.55506E-23
2.38751E-01 3.44628E-23
2.42481E-01 3.34163E-23
2.46231E-01 3.24093E-23
2.50000E-01 3.14398E-23
2.53788E-01 3.05061E-23
2.57595E-01 2.96068E-23
2.61421E-01 2.87401E-23
2.65264E-01 2.79047E-23
2.69126E-01 2.70992E-23
2.73005E-01 2.63223E-23
2.76901E-01 2.55728E-23
2.80814E-01 2.48494E-23
2.84744E-01 2.41511E-23
2.88691E-01 2.34768E-23
2.92653E-01 2.28254E-23
2.96632E-01 2.21961E-23
3.00625E-01 2.15880E-23
3.04634E-01 2.10001E-23
3.08658E-01 2.04316E-23
3.12697E-01 1.98818E-23
3.16749E-01 1.93499E-23
3.20816E-01 1.88352E-23
3.24896E-01 1.83370E-23
3.28990E-01 1.78547E-23
3.33097E-01 1.73876E-23
3.37216E-01 1.69353E-23
3.41348E-01 1.64970E-23
3.45492E-01 1.60723E-23
3.49647E-01 1.56606E-23
3.53814E-01 1.52616E-23
3.57992E-01 1.48746E-23
3.62181E-01 1.44993E-23
3.66381E-01 1.41352E-23
3.70590E-01 1.37820E-23
3.74810E-01 1.34392E-23
3.79039E-01 1.31064E-23
3.83277E-01 1.27834E-23
3.87524E-01 1.24697E-23
3.91780E-01 1.21650E-23
3.96044E-01 1.18690E-23
4.00316E-01 1.15814E-23
4.04596E-01 1.13020E-23
4.08882E-01 1.10304E-23
4.13176E-01 1.07664E-23
4.17476E-01 1.05097E-23
4.21783E-01 1.02601E-23
4.26095E-01 1.00173E-23
4.30413E-01 9.78109E-24
4.34737E-01 9.55129E-24
4.39065E-01 9.32768E-24
4.43398E-01 9.11004E-24
4.47736E-01 8.89820E-24
4.52077E-01 8.69196E-24
4.56422E-01 8.49115E-24
4.60770E-01 8.29559E-24
4.65122E-01 8.10511E-24
4.69476E-01 7.91957E-24
4.73832E-01 7.73879E-24
4.78190E-01 7.56264E-24
4.82550E-01 7.39096E-24
4.86912E-01 7.22363E-24
4.91274E-01 7.06052E-24
4.95637E-01 6.90148E-24
5.00000E-01 6.74642E-24
5.04363E-01 6.59519E-24
5.08726E-01 6.44770E-24
5.13088E-01 6.30383E-24
5.17450E-01 6.16347E-24
5.21810E-01 6.02652E-24
5.26168E-01 5.89288E-24
5.30524E-01 5.76245E-24
5.34878E-01 5.63515E-24
5.39230E-01 5.51087E-24
5.43578E-01 5.38955E-24
5.47923E-01 5.27109E-24
5.52264E-01 5.15541E-24
5.56602E-01 5.04244E-24
5.60935E-01 4.93210E-24
5.65263E-01 4.82432E-24
5.69587E-01 4.71902E-24
5.73905E-01 4.61614E-24
5.78217E-01 4.51562E-24
5.82524E-01 4.41739E-24
5.86824E-01 4.32138E-24
5.91118E-01 4.22753E-24
5.95404E-01 4.13580E-24
5.99684E-01 4.04612E-24
6.03956E-01 3.95845E-24
6.08220E-01 3.87272E-24
6.12476E-01 3.78888E-24
6.16723E-01 3.70690E-24
6.20961E-01 3.62671E-24
6.25190E-01 3.54828E-24
6.29410E-01 3.47156E-24
6.33619E-01 3.39650E-24
6.37819E-01 3.32306E-24
6.42008E-01 3.25121E-24
6.46186E-01 3.18089E-24
6.50353E-01 3.11208E-24
6.54508E-01 3.04474E-24
6.58652E-01 2.97883E-24
6.62784E-01 2.91431E-24
6.66903E-01 2.85115E-24
6.71010E-01 2.78933E-24
6.75104E-01 2.72880E-24
6.79184E-01 2.66953E-24
6.83251E-01 2.61150E-24
6.87303E-01 2.55467E-24
6.91342E-01 2.49901E-24
6.95366E-01 2.44451E-24
6.99375E-01 2.39113E-24
7.03368E-01 2.33884E-24
7.07347E-01 2.28762E-24
7.11309E-01 2.23745E-24
7.15256E-01 2.18830E-24
7.19186E-01 2.14015E-24
7.23099E-01 2.09297E-24
7.26995E-01 2.04674E-24
7.30874E-01 2.00145E-24
7.34736E-01 1.95707E-24
7.38579E-01 1.91357E-24
7.42405E-01 1.87095E-24
7.46212E-01 1.82918E-24
7.50000E-01 1.78824E-24
7.53769E-01 1.74812E-24
7.57519E-01 1.70879E-24
7.61249E-01 1.67024E-24
7.64960E-01 1.63245E-24
7.68650E-01 1.59541E-24
7.72320E-01 1.55910E-24
7.75968E-01 1.52350E-24
7.79596E-01 1.48861E-24
7.83203E-01 1.45440E-24
7.86788E-01 1.42086E-24
7.90351E-01 1.38797E-24
7.93893E-01 1.35573E-24
7.97411E-01 1.32412E-24
8.00908E-01 1.29313E-24
8.04381E-01 1.26274E-24
8.07831E-01 1.23295E-24
8.11257E-01 1.20373E-24
8.14660E-01 1.17508E-24
8.18039E-01 1.14699E-24
8.21394E-01 1.11945E-24
8.24724E-01 1.09244E-24
8.28030E-01 1.06596E-24
8.31310E-01 1.04000E-24
8.34565E-01 1.01454E-24
8.37795E-01 9.89570E-25
8.40999E-01 9.65091E-25
8.44177E-01 9.41089E-25
8.47329E-01 9.17554E-25
8.50455E-01 8.94479E-25
8.53553E-01 8.71855E-25
8.56625E-01 8.49673E-25
8.59670E-01 8.27925E-25
8.62687E-01 8.06603E-25
8.65677E-01 7.85701E-25
8.68639E-01 7.65209E-25
8.71572E-01 7.45121E-25
8.74478E-01 7.25430E-25
8.77355E-01 7.06129E-25
8.80203E-01 6.87210E-25
8.83022E-01 6.68668E-25
8.85812E-01 6.50495E-25
8.88573E-01 6.32686E-25
8.91304E-01 6.15234E-25
8.94005E-01 5.98134E-25
8.96677E-01 5.81379E-25
8.99318E-01 5.64964E-25
9.01928E-01 5.48883E-25
9.04508E-01 5.33131E-25
9.07058E-01 5.17703E-25
9.09576E-01 5.02592E-25
9.12063E-01 4.87795E-25
9.14519E-01 4.73307E-25
9.16943E-01 4.59122E-25
9.19335E-01 4.45236E-25
9.21696E-01 4.31645E-25
9.24024E-01 4.18344E-25
9.26320E-01 4.05328E-25
9.28584E-01 3.92594E-25
9.30815E-01 3.80137E-25
9.33013E-01 3.67953E-25
9.35178E-01 3.56040E-25
9.37310E-01 3.44391E-25
9.39409E-01 3.33005E-25
9.41474E-01 3.21878E-25
9.43505E-01 3.11005E-25
9.45503E-01 3.00384E-25
9.47467E-01 2.90011E-25
9.49397E-01 2.79883E-25
9.51293E-01 2.69996E-25
9.53154E-01 2.60349E-25
9.54981E-01 2.50937E-25
9.56773E-01 2.41758E-25
9.58530E-01 2.32810E-25
9.60252E-01 2.24088E-25
9.61940E-01 2.15592E-25
9.63592E-01 2.07317E-25
9.65209E-01 1.99263E-25
9.66790E-01 1.91425E-25
9.68336E-01 1.83802E-25
9.69846E-01 1.76392E-25
9.71321E-01 1.69192E-25
9.72759E-01 1.62200E-25
9.74162E-01 1.55414E-25
9.75528E-01 1.48833E-25
9.76858E-01 1.42453E-25
9.78152E-01 1.36274E-25
9.79410E-01 1.30293E-25
9.80631E-01 1.24509E-25
9.81815E-01 1.18919E-25
9.82963E-01 1.13523E-25
9.84074E-01 1.08319E-25
9.85148E-01 1.03305E-25
9.86185E-01 9.84796E-26
9.87185E-01 9.38416E-26
9.88148E-01 8.93896E-26
9.89074E-01 8.51223E-26
9.89962E-01 8.10384E-26
9.90814E-01 7.71369E-26
9.91627E-01 7.34165E-26
9.92404E-01 6.98762E-26
9.93143E-01 6.65150E-26
9.93844E-01 6.33319E-26
9.94508E-01 6.03259E-26
9.95134E-01 5.74963E-26
9.95722E-01 5.48422E-26
9.96273E-01 5.23629E-26
9.96786E-01 5.00576E-26
9.97261E-01 4.79257E-26
9.97698E-01 4.59665E-26
9.98097E-01 4.41796E-26
9.98459E-01 4.25644E-26
9.98782E-01 4.11205E-26
9.99067E-01 3.98474E-26
9.99315E-01 3.87448E-26
9.99524E-01 3.78123E-26
9.99695E-01 3.70497E-26
9.99829E-01 3.64568E-26
9.99924E-01 3.60335E-26
9.99981E-01 3.57795E-26
1.00000E+00 3.56949E-26
