 #
 # Subroutine ELSEPA. Elastic scattering of electrons and positrons
 #                    by neutral atoms and positive ions
 #
 # Projectile: electron
 # Kinetic energy = 9.00000E+08 eV = 3.30744E+07 a.u.
 #
 # WARNING: High-energy factorization with free-atom DF screening.
 #          Absorption, polarization and exchange corrections are
 #          switched off.
 #          Phase shifts are calculated for the bare nucleus.
 #          Scattering amplitudes are not evaluated.
 #
 # Element: Eu,  Z =  63,  atomic weight = 1.51964E+02 g/mol
 #
 # Nuclear model: Fermi distribution
 #                Average radius = 5.70993E-13 cm
 #                Skin thickness = 5.46000E-14 cm
 #
 # Number of electrons = 63
 #
 # Total elastic cross section = 7.11092E-18 cm**2 = 2.53936E-01 a0**2
 # 1st transport cross section = 9.42813E-27 cm**2 = 3.36685E-10 a0**2
 # 2nd transport cross section = 2.82810E-26 cm**2 = 1.00993E-09 a0**2
 #
 #
 # Differential cross section:                       MU=(1-COS(THETA))/2
 #
 #  THETA        MU          DCS          DCS        Sherman      error
 #  (deg)                 (cm**2/sr)   (a0**2/sr)    function
 #----------------------------------------------------------------------
0.00000E+00 7.21629E-08
7.61557E-13 5.03970E-08
1.18994E-12 4.26743E-08
1.71346E-12 3.57878E-08
2.33225E-12 2.99893E-08
3.04617E-12 2.52460E-08
3.85530E-12 2.14452E-08
4.75964E-12 1.83993E-08
5.75917E-12 1.59423E-08
6.85391E-12 1.39421E-08
8.04379E-12 1.22872E-08
9.32893E-12 1.08997E-08
1.07092E-11 9.71724E-09
1.21847E-11 8.70029E-09
1.37554E-11 7.81628E-09
1.54213E-11 7.03971E-09
1.71823E-11 6.35620E-09
1.90386E-11 5.74995E-09
2.09900E-11 5.21040E-09
2.30367E-11 4.73035E-09
2.51785E-11 4.30057E-09
2.74156E-11 3.91619E-09
2.97478E-11 3.55419E-09
3.21752E-11 3.22922E-09
3.46979E-11 2.94786E-09
3.73157E-11 2.70310E-09
4.00286E-11 2.48919E-09
4.28368E-11 2.30143E-09
4.57402E-11 2.12065E-09
4.87388E-11 1.94891E-09
5.18325E-11 1.79736E-09
5.50215E-11 1.66312E-09
5.83057E-11 1.54379E-09
6.16850E-11 1.43737E-09
6.51595E-11 1.33689E-09
6.87293E-11 1.24065E-09
7.23943E-11 1.15439E-09
7.61544E-11 1.07685E-09
1.18991E-10 5.71770E-10
1.71347E-10 3.27994E-10
2.33223E-10 1.99051E-10
3.04617E-10 1.27083E-10
3.85531E-10 8.47602E-11
4.75965E-10 5.88724E-11
5.75917E-10 4.23529E-11
6.85389E-10 3.13625E-11
8.04380E-10 2.37690E-11
9.32891E-10 1.83756E-11
1.07092E-09 1.44384E-11
1.21847E-09 1.15042E-11
1.37554E-09 9.27241E-12
1.54213E-09 7.54785E-12
1.71823E-09 6.20272E-12
1.90386E-09 5.14147E-12
2.09900E-09 4.29612E-12
2.30367E-09 3.61671E-12
2.51785E-09 3.06517E-12
2.74156E-09 2.61434E-12
2.97478E-09 2.24217E-12
3.21752E-09 1.93476E-12
3.46978E-09 1.67925E-12
3.73156E-09 1.46347E-12
4.00286E-09 1.28223E-12
4.28368E-09 1.12771E-12
4.57402E-09 9.96024E-13
4.87388E-09 8.83221E-13
5.18326E-09 7.85745E-13
5.50215E-09 7.01711E-13
5.83057E-09 6.28346E-13
6.16850E-09 5.64493E-13
6.51596E-09 5.08568E-13
6.87293E-09 4.59353E-13
7.23942E-09 4.16097E-13
7.61544E-09 3.77656E-13
1.18991E-08 1.60336E-13
1.71347E-08 7.91353E-14
2.33223E-08 4.33800E-14
3.04617E-08 2.57051E-14
3.85531E-08 1.61770E-14
4.75965E-08 1.06808E-14
5.75917E-08 7.33279E-15
6.85389E-08 5.20001E-15
8.04380E-08 3.78952E-15
9.32891E-08 2.82662E-15
1.07092E-07 2.15113E-15
1.21847E-07 1.66595E-15
1.37554E-07 1.31018E-15
1.54213E-07 1.04452E-15
1.71823E-07 8.42897E-16
1.90386E-07 6.87656E-16
2.09900E-07 5.66558E-16
2.30367E-07 4.70974E-16
2.51785E-07 3.94719E-16
2.74156E-07 3.33285E-16
2.97478E-07 2.83347E-16
3.21752E-07 2.42417E-16
3.46978E-07 2.08615E-16
3.73156E-07 1.80503E-16
4.00286E-07 1.56968E-16
4.28368E-07 1.37145E-16
4.57402E-07 1.20354E-16
4.87388E-07 1.06054E-16
5.18325E-07 9.38157E-17
5.50215E-07 8.32922E-17
5.83057E-07 7.42030E-17
6.16850E-07 6.63200E-17
6.51596E-07 5.94562E-17
6.87293E-07 5.34575E-17
7.23942E-07 4.81963E-17
7.61543E-07 4.35666E-17
1.18991E-06 1.78805E-17
1.71347E-06 8.63302E-18
2.33223E-06 4.66347E-18
3.04617E-06 2.73516E-18
3.85531E-06 1.70829E-18
4.75964E-06 1.12121E-18
5.75916E-06 7.66041E-19
6.85388E-06 5.41026E-19
8.04378E-06 3.92899E-19
9.32888E-06 2.92177E-19
1.07092E-05 2.21764E-19
1.21846E-05 1.71345E-19
1.37553E-05 1.34477E-19
1.54212E-05 1.07014E-19
1.71822E-05 8.62196E-20
1.90385E-05 7.02096E-20
2.09899E-05 5.78021E-20
2.30365E-05 4.80131E-20
2.51783E-05 4.02032E-20
2.74153E-05 3.39121E-20
2.97475E-05 2.88019E-20
3.21749E-05 2.46185E-20
3.46974E-05 2.11696E-20
3.73152E-05 1.83065E-20
4.00281E-05 1.59133E-20
4.28362E-05 1.38996E-20
4.57395E-05 1.21946E-20
4.87380E-05 1.07429E-20
5.18317E-05 9.50036E-21
5.50205E-05 8.43202E-21
5.83045E-05 7.50961E-21
6.16838E-05 6.71008E-21
6.51582E-05 6.01442E-21
6.87277E-05 5.40689E-21
7.23925E-05 4.87435E-21
7.61524E-05 4.42648E-21
9.21439E-05 3.01388E-21
1.09658E-04 2.11866E-21
1.28695E-04 1.52972E-21
1.49255E-04 1.12951E-21
1.71338E-04 8.50227E-22
1.94942E-04 6.50655E-22
2.20070E-04 5.05147E-22
2.46720E-04 3.97152E-22
2.74892E-04 3.15722E-22
3.04586E-04 2.53471E-22
3.35803E-04 2.05279E-22
3.68542E-04 1.67555E-22
4.02802E-04 1.37726E-22
4.38585E-04 1.13923E-22
4.75889E-04 9.47736E-23
5.14715E-04 7.92499E-23
5.55063E-04 6.65798E-23
5.96931E-04 5.61732E-23
6.40321E-04 4.75767E-23
6.85233E-04 4.04378E-23
7.31665E-04 3.44806E-23
7.79618E-04 2.94872E-23
8.29092E-04 2.52843E-23
8.80086E-04 2.17334E-23
9.32601E-04 1.87227E-23
9.86636E-04 1.61618E-23
1.04219E-03 1.39769E-23
1.09927E-03 1.21077E-23
1.15786E-03 1.05045E-23
1.21797E-03 9.12611E-24
1.27961E-03 7.93847E-24
1.34276E-03 6.91312E-24
1.40743E-03 6.02624E-24
1.47362E-03 5.25783E-24
1.54133E-03 4.59102E-24
1.61056E-03 4.01156E-24
1.68131E-03 3.50734E-24
1.75357E-03 3.06807E-24
1.82735E-03 2.68499E-24
1.90265E-03 2.35058E-24
1.97947E-03 2.05840E-24
2.05780E-03 1.80293E-24
2.13765E-03 1.57941E-24
2.21902E-03 1.38372E-24
2.30190E-03 1.21232E-24
2.38630E-03 1.06212E-24
2.47222E-03 9.30473E-25
2.55965E-03 8.15044E-25
2.64859E-03 7.13821E-25
2.73905E-03 6.25044E-25
2.83103E-03 5.47181E-25
2.92452E-03 4.78892E-25
3.01952E-03 4.19004E-25
3.11604E-03 3.66493E-25
3.21407E-03 3.20459E-25
3.31362E-03 2.80116E-25
3.41468E-03 2.44770E-25
3.51725E-03 2.13816E-25
3.62133E-03 1.86719E-25
3.72692E-03 1.63010E-25
3.83403E-03 1.42278E-25
3.94265E-03 1.24158E-25
4.05278E-03 1.08332E-25
4.16442E-03 9.45190E-26
4.27757E-03 8.24708E-26
4.39223E-03 7.19699E-26
4.50840E-03 6.28244E-26
4.62608E-03 5.48656E-26
4.74527E-03 4.79448E-26
4.86597E-03 4.19313E-26
4.98817E-03 3.67103E-26
5.11188E-03 3.21807E-26
5.23711E-03 2.82536E-26
5.36383E-03 2.48511E-26
5.49207E-03 2.19047E-26
5.62181E-03 1.93545E-26
5.75306E-03 1.71480E-26
5.88581E-03 1.52390E-26
6.02007E-03 1.35874E-26
6.15583E-03 1.21581E-26
6.29310E-03 1.09204E-26
6.43187E-03 9.84762E-27
6.57214E-03 8.91663E-27
6.71392E-03 8.10726E-27
6.85720E-03 7.40204E-27
7.00198E-03 6.78590E-27
7.14827E-03 6.24578E-27
7.29605E-03 5.77047E-27
7.44534E-03 5.35033E-27
7.59612E-03 4.97709E-27
7.97965E-03 4.20539E-27
8.37255E-03 3.60108E-27
8.77480E-03 3.10869E-27
9.18641E-03 2.69270E-27
9.60736E-03 2.33106E-27
1.00376E-02 2.01053E-27
1.04773E-02 1.72353E-27
1.09262E-02 1.46581E-27
1.13844E-02 1.23503E-27
1.18520E-02 1.02978E-27
1.23288E-02 8.48966E-28
1.28150E-02 6.91494E-28
1.33104E-02 5.56101E-28
1.38150E-02 4.41298E-28
1.43290E-02 3.45388E-28
1.48521E-02 2.66515E-28
1.53845E-02 2.02734E-28
1.59262E-02 1.52078E-28
1.64770E-02 1.12627E-28
1.70371E-02 8.25566E-29
1.76063E-02 6.01807E-29
1.81848E-02 4.39800E-29
1.87724E-02 3.26168E-29
1.93692E-02 2.49412E-29
1.99751E-02 1.99877E-29
2.05901E-02 1.69655E-29
2.12143E-02 1.52439E-29
2.18476E-02 1.43355E-29
2.24900E-02 1.38763E-29
2.31415E-02 1.36069E-29
2.38021E-02 1.33536E-29
2.44717E-02 1.30104E-29
2.51504E-02 1.25237E-29
2.58382E-02 1.18778E-29
2.65349E-02 1.10834E-29
2.72407E-02 1.01679E-29
2.79555E-02 9.16785E-30
2.86793E-02 8.12251E-30
2.94120E-02 7.07013E-30
3.01537E-02 6.04482E-30
3.09043E-02 5.07485E-30
3.16639E-02 4.18182E-30
3.24324E-02 3.38057E-30
3.32098E-02 2.67953E-30
3.39961E-02 2.08144E-30
3.47912E-02 1.58432E-30
3.55952E-02 1.18244E-30
3.64081E-02 8.67336E-31
3.72297E-02 6.28805E-31
3.80602E-02 4.55704E-31
3.88995E-02 3.36688E-31
3.97476E-02 2.60781E-31
4.06044E-02 2.17805E-31
4.14700E-02 1.98678E-31
4.23443E-02 1.95592E-31
4.32273E-02 2.02087E-31
4.41190E-02 2.13038E-31
4.50194E-02 2.24585E-31
4.59284E-02 2.34010E-31
4.68461E-02 2.39589E-31
4.87074E-02 2.36278E-31
5.06030E-02 2.14423E-31
5.25328E-02 1.79503E-31
5.44967E-02 1.38853E-31
5.64946E-02 9.91381E-32
5.85262E-02 6.50532E-32
6.05914E-02 3.89869E-32
6.26901E-02 2.13136E-32
6.48222E-02 1.09929E-32
6.69873E-02 6.23422E-33
6.91854E-02 5.06729E-33
7.14163E-02 5.74182E-33
7.36799E-02 6.94335E-33
7.59760E-02 7.85213E-33
7.83043E-02 8.09198E-33
8.06647E-02 7.61905E-33
8.30571E-02 6.59301E-33
8.54812E-02 5.26076E-33
8.79369E-02 3.86899E-33
9.04240E-02 2.61089E-33
9.29422E-02 1.60390E-33
9.54915E-02 8.90884E-34
9.80716E-02 4.55782E-34
1.00682E-01 2.45240E-34
1.03323E-01 1.89984E-34
1.05995E-01 2.21899E-34
1.08696E-01 2.85129E-34
1.11427E-01 3.41213E-34
1.14188E-01 3.69392E-34
1.16978E-01 3.63684E-34
1.19797E-01 3.28394E-34
1.22645E-01 2.73382E-34
1.25522E-01 2.10048E-34
1.28428E-01 1.48464E-34
1.31361E-01 9.58008E-35
1.34323E-01 5.58475E-35
1.37313E-01 2.93439E-35
1.40330E-01 1.47738E-35
1.43375E-01 9.31461E-36
1.46447E-01 9.71692E-36
1.49545E-01 1.29768E-35
1.52671E-01 1.67491E-35
1.55823E-01 1.95140E-35
1.59001E-01 2.05473E-35
1.62205E-01 1.97661E-35
1.65435E-01 1.75154E-35
1.68690E-01 1.43539E-35
1.71970E-01 1.08742E-35
1.75276E-01 7.57888E-36
1.78606E-01 4.81402E-36
1.81961E-01 2.75303E-36
1.85340E-01 1.41678E-36
1.88743E-01 7.14528E-37
1.92169E-01 4.91567E-37
1.95619E-01 5.73128E-37
1.99092E-01 7.98157E-37
2.02589E-01 1.04042E-36
2.06107E-01 1.21733E-36
2.09649E-01 1.28897E-36
2.13212E-01 1.25040E-36
2.16797E-01 1.12081E-36
2.20404E-01 9.32115E-37
2.24032E-01 7.19126E-37
2.27680E-01 5.12427E-37
2.31350E-01 3.34205E-37
2.35040E-01 1.96870E-37
2.38751E-01 1.00000E-45
2.42481E-01 1.00000E-45
2.46231E-01 1.00000E-45
2.50000E-01 1.00000E-45
2.53788E-01 1.00000E-45
2.57595E-01 1.00000E-45
2.61421E-01 1.00000E-45
2.65264E-01 1.00000E-45
2.69126E-01 1.00000E-45
2.73005E-01 1.00000E-45
2.76901E-01 1.00000E-45
2.80814E-01 1.00000E-45
2.84744E-01 1.00000E-45
2.88691E-01 1.00000E-45
2.92653E-01 1.00000E-45
2.96632E-01 1.00000E-45
3.00625E-01 1.00000E-45
3.04634E-01 1.00000E-45
3.08658E-01 1.00000E-45
3.12697E-01 1.00000E-45
3.16749E-01 1.00000E-45
3.20816E-01 1.00000E-45
3.24896E-01 1.00000E-45
3.28990E-01 1.00000E-45
3.33097E-01 1.00000E-45
3.37216E-01 1.00000E-45
3.41348E-01 1.00000E-45
3.45492E-01 1.00000E-45
3.49647E-01 1.00000E-45
3.53814E-01 1.00000E-45
3.57992E-01 1.00000E-45
3.62181E-01 1.00000E-45
3.66381E-01 1.00000E-45
3.70590E-01 1.00000E-45
3.74810E-01 1.00000E-45
3.79039E-01 1.00000E-45
3.83277E-01 1.00000E-45
3.87524E-01 1.00000E-45
3.91780E-01 1.00000E-45
3.96044E-01 1.00000E-45
4.00316E-01 1.00000E-45
4.04596E-01 1.00000E-45
4.08882E-01 1.00000E-45
4.13176E-01 1.00000E-45
4.17476E-01 1.00000E-45
4.21783E-01 1.00000E-45
4.26095E-01 1.00000E-45
4.30413E-01 1.00000E-45
4.34737E-01 1.00000E-45
4.39065E-01 1.00000E-45
4.43398E-01 1.00000E-45
4.47736E-01 1.00000E-45
4.52077E-01 1.00000E-45
4.56422E-01 1.00000E-45
4.60770E-01 1.00000E-45
4.65122E-01 1.00000E-45
4.69476E-01 1.00000E-45
4.73832E-01 1.00000E-45
4.78190E-01 1.00000E-45
4.82550E-01 1.00000E-45
4.86912E-01 1.00000E-45
4.91274E-01 1.00000E-45
4.95637E-01 1.00000E-45
5.00000E-01 1.00000E-45
5.04363E-01 1.00000E-45
5.08726E-01 1.00000E-45
5.13088E-01 1.00000E-45
5.17450E-01 1.00000E-45
5.21810E-01 1.00000E-45
5.26168E-01 1.00000E-45
5.30524E-01 1.00000E-45
5.34878E-01 1.00000E-45
5.39230E-01 1.00000E-45
5.43578E-01 1.00000E-45
5.47923E-01 1.00000E-45
5.52264E-01 1.00000E-45
5.56602E-01 1.00000E-45
5.60935E-01 1.00000E-45
5.65263E-01 1.00000E-45
5.69587E-01 1.00000E-45
5.73905E-01 1.00000E-45
5.78217E-01 1.00000E-45
5.82524E-01 1.00000E-45
5.86824E-01 1.00000E-45
5.91118E-01 1.00000E-45
5.95404E-01 1.00000E-45
5.99684E-01 1.00000E-45
6.03956E-01 1.00000E-45
6.08220E-01 1.00000E-45
6.12476E-01 1.00000E-45
6.16723E-01 1.00000E-45
6.20961E-01 1.00000E-45
6.25190E-01 1.00000E-45
6.29410E-01 1.00000E-45
6.33619E-01 1.00000E-45
6.37819E-01 1.00000E-45
6.42008E-01 1.00000E-45
6.46186E-01 1.00000E-45
6.50353E-01 1.00000E-45
6.54508E-01 1.00000E-45
6.58652E-01 1.00000E-45
6.62784E-01 1.00000E-45
6.66903E-01 1.00000E-45
6.71010E-01 1.00000E-45
6.75104E-01 1.00000E-45
6.79184E-01 1.00000E-45
6.83251E-01 1.00000E-45
6.87303E-01 1.00000E-45
6.91342E-01 1.00000E-45
6.95366E-01 1.00000E-45
6.99375E-01 1.00000E-45
7.03368E-01 1.00000E-45
7.07347E-01 1.00000E-45
7.11309E-01 1.00000E-45
7.15256E-01 1.00000E-45
7.19186E-01 1.00000E-45
7.23099E-01 1.00000E-45
7.26995E-01 1.00000E-45
7.30874E-01 1.00000E-45
7.34736E-01 1.00000E-45
7.38579E-01 1.00000E-45
7.42405E-01 1.00000E-45
7.46212E-01 1.00000E-45
7.50000E-01 1.00000E-45
7.53769E-01 1.00000E-45
7.57519E-01 1.00000E-45
7.61249E-01 1.00000E-45
7.64960E-01 1.00000E-45
7.68650E-01 1.00000E-45
7.72320E-01 1.00000E-45
7.75968E-01 1.00000E-45
7.79596E-01 1.00000E-45
7.83203E-01 1.00000E-45
7.86788E-01 1.00000E-45
7.90351E-01 1.00000E-45
7.93893E-01 1.00000E-45
7.97411E-01 1.00000E-45
8.00908E-01 1.00000E-45
8.04381E-01 1.00000E-45
8.07831E-01 1.00000E-45
8.11257E-01 1.00000E-45
8.14660E-01 1.00000E-45
8.18039E-01 1.00000E-45
8.21394E-01 1.00000E-45
8.24724E-01 1.00000E-45
8.28030E-01 1.00000E-45
8.31310E-01 1.00000E-45
8.34565E-01 1.00000E-45
8.37795E-01 1.00000E-45
8.40999E-01 1.00000E-45
8.44177E-01 1.00000E-45
8.47329E-01 1.00000E-45
8.50455E-01 1.00000E-45
8.53553E-01 1.00000E-45
8.56625E-01 1.00000E-45
8.59670E-01 1.00000E-45
8.62687E-01 1.00000E-45
8.65677E-01 1.00000E-45
8.68639E-01 1.00000E-45
8.71572E-01 1.00000E-45
8.74478E-01 1.00000E-45
8.77355E-01 1.00000E-45
8.80203E-01 1.00000E-45
8.83022E-01 1.00000E-45
8.85812E-01 1.00000E-45
8.88573E-01 1.00000E-45
8.91304E-01 1.00000E-45
8.94005E-01 1.00000E-45
8.96677E-01 1.00000E-45
8.99318E-01 1.00000E-45
9.01928E-01 1.00000E-45
9.04508E-01 1.00000E-45
9.07058E-01 1.00000E-45
9.09576E-01 1.00000E-45
9.12063E-01 1.00000E-45
9.14519E-01 1.00000E-45
9.16943E-01 1.00000E-45
9.19335E-01 1.00000E-45
9.21696E-01 1.00000E-45
9.24024E-01 1.00000E-45
9.26320E-01 1.00000E-45
9.28584E-01 1.00000E-45
9.30815E-01 1.00000E-45
9.33013E-01 1.00000E-45
9.35178E-01 1.00000E-45
9.37310E-01 1.00000E-45
9.39409E-01 1.00000E-45
9.41474E-01 1.00000E-45
9.43505E-01 1.00000E-45
9.45503E-01 1.00000E-45
9.47467E-01 1.00000E-45
9.49397E-01 1.00000E-45
9.51293E-01 1.00000E-45
9.53154E-01 1.00000E-45
9.54981E-01 1.00000E-45
9.56773E-01 1.00000E-45
9.58530E-01 1.00000E-45
9.60252E-01 1.00000E-45
9.61940E-01 1.00000E-45
9.63592E-01 1.00000E-45
9.65209E-01 1.00000E-45
9.66790E-01 1.00000E-45
9.68336E-01 1.00000E-45
9.69846E-01 1.00000E-45
9.71321E-01 1.00000E-45
9.72759E-01 1.00000E-45
9.74162E-01 1.00000E-45
9.75528E-01 1.00000E-45
9.76858E-01 1.00000E-45
9.78152E-01 1.00000E-45
9.79410E-01 1.00000E-45
9.80631E-01 1.00000E-45
9.81815E-01 1.00000E-45
9.82963E-01 1.00000E-45
9.84074E-01 1.00000E-45
9.85148E-01 1.00000E-45
9.86185E-01 1.00000E-45
9.87185E-01 1.00000E-45
9.88148E-01 1.00000E-45
9.89074E-01 1.00000E-45
9.89962E-01 1.00000E-45
9.90814E-01 1.00000E-45
9.91627E-01 1.00000E-45
9.92404E-01 1.00000E-45
9.93143E-01 1.00000E-45
9.93844E-01 1.00000E-45
9.94508E-01 1.00000E-45
9.95134E-01 1.00000E-45
9.95722E-01 1.00000E-45
9.96273E-01 1.00000E-45
9.96786E-01 1.00000E-45
9.97261E-01 1.00000E-45
9.97698E-01 1.00000E-45
9.98097E-01 1.00000E-45
9.98459E-01 1.00000E-45
9.98782E-01 1.00000E-45
9.99067E-01 1.00000E-45
9.99315E-01 1.00000E-45
9.99524E-01 1.00000E-45
9.99695E-01 1.00000E-45
9.99829E-01 1.00000E-45
9.99924E-01 1.00000E-45
9.99981E-01 1.00000E-45
1.00000E+00 1.00000E-45
