 #
 # Subroutine ELSEPA. Elastic scattering of electrons and positrons
 #                    by neutral atoms and positive ions
 #
 # Projectile: electron
 # Kinetic energy = 5.00000E+06 eV = 1.83747E+05 a.u.
 #
 # WARNING: High-energy factorization with free-atom DF screening.
 #          Absorption, polarization and exchange corrections are
 #          switched off.
 #          Phase shifts are calculated for the bare nucleus.
 #          Scattering amplitudes are not evaluated.
 #
 # Element: Eu,  Z =  63,  atomic weight = 1.51964E+02 g/mol
 #
 # Nuclear model: Fermi distribution
 #                Average radius = 5.70993E-13 cm
 #                Skin thickness = 5.46000E-14 cm
 #
 # Number of electrons = 63
 #
 # Total elastic cross section = 7.28133E-18 cm**2 = 2.60021E-01 a0**2
 # 1st transport cross section = 2.15545E-22 cm**2 = 7.69724E-06 a0**2
 # 2nd transport cross section = 5.92716E-22 cm**2 = 2.11663E-05 a0**2
 #
 #
 # Differential cross section:                       MU=(1-COS(THETA))/2
 #
 #  THETA        MU          DCS          DCS        Sherman      error
 #  (deg)                 (cm**2/sr)   (a0**2/sr)    function
 #----------------------------------------------------------------------
0.00000E+00 2.70269E-12
7.61557E-13 2.70265E-12
1.18994E-12 2.70263E-12
1.71346E-12 2.70260E-12
2.33225E-12 2.70257E-12
3.04617E-12 2.70253E-12
3.85530E-12 2.70248E-12
4.75964E-12 2.70244E-12
5.75917E-12 2.70238E-12
6.85391E-12 2.70232E-12
8.04379E-12 2.70226E-12
9.32893E-12 2.70219E-12
1.07092E-11 2.70212E-12
1.21847E-11 2.70204E-12
1.37554E-11 2.70195E-12
1.54213E-11 2.70186E-12
1.71823E-11 2.70177E-12
1.90386E-11 2.70167E-12
2.09900E-11 2.70156E-12
2.30367E-11 2.70145E-12
2.51785E-11 2.70134E-12
2.74156E-11 2.70122E-12
2.97478E-11 2.70109E-12
3.21752E-11 2.70096E-12
3.46979E-11 2.70083E-12
3.73157E-11 2.70069E-12
4.00286E-11 2.70054E-12
4.28368E-11 2.70039E-12
4.57402E-11 2.70024E-12
4.87388E-11 2.70008E-12
5.18325E-11 2.69991E-12
5.50215E-11 2.69974E-12
5.83057E-11 2.69956E-12
6.16850E-11 2.69938E-12
6.51595E-11 2.69919E-12
6.87293E-11 2.69900E-12
7.23943E-11 2.69881E-12
7.61544E-11 2.69861E-12
1.18991E-10 2.69631E-12
1.71347E-10 2.69351E-12
2.33223E-10 2.69021E-12
3.04617E-10 2.68641E-12
3.85531E-10 2.68211E-12
4.75965E-10 2.67732E-12
5.75917E-10 2.67205E-12
6.85389E-10 2.66629E-12
8.04380E-10 2.66005E-12
9.32891E-10 2.65334E-12
1.07092E-09 2.64616E-12
1.21847E-09 2.63853E-12
1.37554E-09 2.63044E-12
1.54213E-09 2.62191E-12
1.71823E-09 2.61294E-12
1.90386E-09 2.60354E-12
2.09900E-09 2.59371E-12
2.30367E-09 2.58348E-12
2.51785E-09 2.57284E-12
2.74156E-09 2.56180E-12
2.97478E-09 2.55038E-12
3.21752E-09 2.53859E-12
3.46978E-09 2.52642E-12
3.73156E-09 2.51390E-12
4.00286E-09 2.50104E-12
4.28368E-09 2.48783E-12
4.57402E-09 2.47431E-12
4.87388E-09 2.46047E-12
5.18326E-09 2.44632E-12
5.50215E-09 2.43188E-12
5.83057E-09 2.41716E-12
6.16850E-09 2.40217E-12
6.51596E-09 2.38692E-12
6.87293E-09 2.37142E-12
7.23942E-09 2.35569E-12
7.61544E-09 2.33973E-12
1.18991E-08 2.17015E-12
1.71347E-08 1.98988E-12
2.33223E-08 1.80833E-12
3.04617E-08 1.63284E-12
3.85531E-08 1.46846E-12
4.75965E-08 1.31814E-12
5.75917E-08 1.18313E-12
6.85389E-08 1.06340E-12
8.04380E-08 9.58142E-13
9.32891E-08 8.66052E-13
1.07092E-07 7.85644E-13
1.21847E-07 7.15408E-13
1.37554E-07 6.53919E-13
1.54213E-07 5.99890E-13
1.71823E-07 5.52196E-13
1.90386E-07 5.09874E-13
2.09900E-07 4.72112E-13
2.30367E-07 4.38233E-13
2.51785E-07 4.07674E-13
2.74156E-07 3.79972E-13
2.97478E-07 3.54743E-13
3.21752E-07 3.31673E-13
3.46978E-07 3.10498E-13
3.73156E-07 2.91001E-13
4.00286E-07 2.72999E-13
4.28368E-07 2.56339E-13
4.57402E-07 2.40890E-13
4.87388E-07 2.26541E-13
5.18325E-07 2.13195E-13
5.50215E-07 2.00766E-13
5.83057E-07 1.89181E-13
6.16850E-07 1.78372E-13
6.51596E-07 1.68282E-13
6.87293E-07 1.58855E-13
7.23942E-07 1.50045E-13
7.61543E-07 1.41806E-13
1.18991E-06 8.32746E-14
1.71347E-06 5.18394E-14
2.33223E-06 3.39637E-14
3.04617E-06 2.31640E-14
3.85531E-06 1.62895E-14
4.75964E-06 1.17364E-14
5.75916E-06 8.63245E-15
6.85388E-06 6.46981E-15
8.04378E-06 4.93565E-15
9.32888E-06 3.82927E-15
1.07092E-05 3.01853E-15
1.21846E-05 2.41486E-15
1.37553E-05 1.95819E-15
1.54212E-05 1.60733E-15
1.71822E-05 1.33373E-15
1.90385E-05 1.11739E-15
2.09899E-05 9.44122E-16
2.30365E-05 8.03731E-16
2.51783E-05 6.88784E-16
2.74153E-05 5.93794E-16
2.97475E-05 5.14646E-16
3.21749E-05 4.48215E-16
3.46974E-05 3.92096E-16
3.73152E-05 3.44412E-16
4.00281E-05 3.03685E-16
4.28362E-05 2.68734E-16
4.57395E-05 2.38611E-16
4.87380E-05 2.12544E-16
5.18317E-05 1.89904E-16
5.50205E-05 1.70170E-16
5.83045E-05 1.52913E-16
6.16838E-05 1.37773E-16
6.51582E-05 1.24451E-16
6.87277E-05 1.12694E-16
7.23925E-05 1.02289E-16
7.61524E-05 9.30552E-17
9.21439E-05 6.50851E-17
1.09658E-04 4.68958E-17
1.28695E-04 3.46580E-17
1.49255E-04 2.61772E-17
1.71338E-04 2.01470E-17
1.94942E-04 1.57620E-17
2.20070E-04 1.25102E-17
2.46720E-04 1.00567E-17
2.74892E-04 8.17683E-18
3.04586E-04 6.71662E-18
3.35803E-04 5.56833E-18
3.68542E-04 4.65523E-18
4.02802E-04 3.92178E-18
4.38585E-04 3.32717E-18
4.75889E-04 2.84104E-18
5.14715E-04 2.44049E-18
5.55063E-04 2.10807E-18
5.96931E-04 1.83036E-18
6.40321E-04 1.59690E-18
6.85233E-04 1.39951E-18
7.31665E-04 1.23171E-18
7.79618E-04 1.08834E-18
8.29092E-04 9.65251E-19
8.80086E-04 8.59105E-19
9.32601E-04 7.67179E-19
9.86636E-04 6.87249E-19
1.04219E-03 6.17483E-19
1.09927E-03 5.56371E-19
1.15786E-03 5.02656E-19
1.21797E-03 4.55287E-19
1.27961E-03 4.13387E-19
1.34276E-03 3.76213E-19
1.40743E-03 3.43141E-19
1.47362E-03 3.13638E-19
1.54133E-03 2.87251E-19
1.61056E-03 2.63592E-19
1.68131E-03 2.42331E-19
1.75357E-03 2.23180E-19
1.82735E-03 2.05893E-19
1.90265E-03 1.90256E-19
1.97947E-03 1.76082E-19
2.05780E-03 1.63211E-19
2.13765E-03 1.51501E-19
2.21902E-03 1.40828E-19
2.30190E-03 1.31083E-19
2.38630E-03 1.22172E-19
2.47222E-03 1.14010E-19
2.55965E-03 1.06521E-19
2.64859E-03 9.96417E-20
2.73905E-03 9.33118E-20
2.83103E-03 8.74797E-20
2.92452E-03 8.20990E-20
3.01952E-03 7.71284E-20
3.11604E-03 7.25306E-20
3.21407E-03 6.82727E-20
3.31362E-03 6.43248E-20
3.41468E-03 6.06599E-20
3.51725E-03 5.72544E-20
3.62133E-03 5.40860E-20
3.72692E-03 5.11353E-20
3.83403E-03 4.83848E-20
3.94265E-03 4.58178E-20
4.05278E-03 4.34203E-20
4.16442E-03 4.11786E-20
4.27757E-03 3.90809E-20
4.39223E-03 3.71161E-20
4.50840E-03 3.52742E-20
4.62608E-03 3.35461E-20
4.74527E-03 3.19234E-20
4.86597E-03 3.03984E-20
4.98817E-03 2.89641E-20
5.11188E-03 2.76142E-20
5.23711E-03 2.63427E-20
5.36383E-03 2.51442E-20
5.49207E-03 2.40136E-20
5.62181E-03 2.29465E-20
5.75306E-03 2.19385E-20
5.88581E-03 2.09858E-20
6.02007E-03 2.00847E-20
6.15583E-03 1.92320E-20
6.29310E-03 1.84244E-20
6.43187E-03 1.76593E-20
6.57214E-03 1.69338E-20
6.71392E-03 1.62456E-20
6.85720E-03 1.55923E-20
7.00198E-03 1.49719E-20
7.14827E-03 1.43823E-20
7.29605E-03 1.38219E-20
7.44534E-03 1.32887E-20
7.59612E-03 1.27813E-20
7.97965E-03 1.16159E-20
8.37255E-03 1.05817E-20
8.77480E-03 9.66132E-21
9.18641E-03 8.84001E-21
9.60736E-03 8.10515E-21
1.00376E-02 7.44601E-21
1.04773E-02 6.85335E-21
1.09262E-02 6.31925E-21
1.13844E-02 5.83685E-21
1.18520E-02 5.40024E-21
1.23288E-02 5.00427E-21
1.28150E-02 4.64444E-21
1.33104E-02 4.31686E-21
1.38150E-02 4.01808E-21
1.43290E-02 3.74510E-21
1.48521E-02 3.49528E-21
1.53845E-02 3.26628E-21
1.59262E-02 3.05604E-21
1.64770E-02 2.86273E-21
1.70371E-02 2.68472E-21
1.76063E-02 2.52058E-21
1.81848E-02 2.36901E-21
1.87724E-02 2.22888E-21
1.93692E-02 2.09915E-21
1.99751E-02 1.97889E-21
2.05901E-02 1.86730E-21
2.12143E-02 1.76361E-21
2.18476E-02 1.66716E-21
2.24900E-02 1.57735E-21
2.31415E-02 1.49363E-21
2.38021E-02 1.41551E-21
2.44717E-02 1.34254E-21
2.51504E-02 1.27431E-21
2.58382E-02 1.21045E-21
2.65349E-02 1.15064E-21
2.72407E-02 1.09455E-21
2.79555E-02 1.04192E-21
2.86793E-02 9.92487E-22
2.94120E-02 9.46019E-22
3.01537E-02 9.02303E-22
3.09043E-02 8.61143E-22
3.16639E-02 8.22361E-22
3.24324E-02 7.85790E-22
3.32098E-02 7.51280E-22
3.39961E-02 7.18691E-22
3.47912E-02 6.87894E-22
3.55952E-02 6.58771E-22
3.64081E-02 6.31213E-22
3.72297E-02 6.05117E-22
3.80602E-02 5.80392E-22
3.88995E-02 5.56950E-22
3.97476E-02 5.34711E-22
4.06044E-02 5.13600E-22
4.14700E-02 4.93549E-22
4.23443E-02 4.74494E-22
4.32273E-02 4.56375E-22
4.41190E-02 4.39136E-22
4.50194E-02 4.22726E-22
4.59284E-02 4.07097E-22
4.68461E-02 3.92204E-22
4.87074E-02 3.64460E-22
5.06030E-02 3.39193E-22
5.25328E-02 3.16138E-22
5.44967E-02 2.95063E-22
5.64946E-02 2.75764E-22
5.85262E-02 2.58062E-22
6.05914E-02 2.41798E-22
6.26901E-02 2.26832E-22
6.48222E-02 2.13039E-22
6.69873E-02 2.00308E-22
6.91854E-02 1.88542E-22
7.14163E-02 1.77653E-22
7.36799E-02 1.67562E-22
7.59760E-02 1.58197E-22
7.83043E-02 1.49497E-22
8.06647E-02 1.41404E-22
8.30571E-02 1.33868E-22
8.54812E-02 1.26841E-22
8.79369E-02 1.20283E-22
9.04240E-02 1.14156E-22
9.29422E-02 1.08425E-22
9.54915E-02 1.03059E-22
9.80716E-02 9.80308E-23
1.00682E-01 9.33141E-23
1.03323E-01 8.88857E-23
1.05995E-01 8.47243E-23
1.08696E-01 8.08103E-23
1.11427E-01 7.71259E-23
1.14188E-01 7.36547E-23
1.16978E-01 7.03817E-23
1.19797E-01 6.72933E-23
1.22645E-01 6.43769E-23
1.25522E-01 6.16209E-23
1.28428E-01 5.90145E-23
1.31361E-01 5.65478E-23
1.34323E-01 5.42117E-23
1.37313E-01 5.19978E-23
1.40330E-01 4.98985E-23
1.43375E-01 4.79064E-23
1.46447E-01 4.60150E-23
1.49545E-01 4.42180E-23
1.52671E-01 4.25097E-23
1.55823E-01 4.08848E-23
1.59001E-01 3.93382E-23
1.62205E-01 3.78655E-23
1.65435E-01 3.64623E-23
1.68690E-01 3.51247E-23
1.71970E-01 3.38489E-23
1.75276E-01 3.26315E-23
1.78606E-01 3.14690E-23
1.81961E-01 3.03586E-23
1.85340E-01 2.92975E-23
1.88743E-01 2.82829E-23
1.92169E-01 2.73124E-23
1.95619E-01 2.63836E-23
1.99092E-01 2.54943E-23
2.02589E-01 2.46426E-23
2.06107E-01 2.38264E-23
2.09649E-01 2.30439E-23
2.13212E-01 2.22936E-23
2.16797E-01 2.15737E-23
2.20404E-01 2.08827E-23
2.24032E-01 2.02193E-23
2.27680E-01 1.95821E-23
2.31350E-01 1.89698E-23
2.35040E-01 1.83812E-23
2.38751E-01 1.78153E-23
2.42481E-01 1.72709E-23
2.46231E-01 1.67471E-23
2.50000E-01 1.62429E-23
2.53788E-01 1.57575E-23
2.57595E-01 1.52899E-23
2.61421E-01 1.48393E-23
2.65264E-01 1.44051E-23
2.69126E-01 1.39865E-23
2.73005E-01 1.35828E-23
2.76901E-01 1.31934E-23
2.80814E-01 1.28176E-23
2.84744E-01 1.24549E-23
2.88691E-01 1.21046E-23
2.92653E-01 1.17664E-23
2.96632E-01 1.14397E-23
3.00625E-01 1.11240E-23
3.04634E-01 1.08188E-23
3.08658E-01 1.05238E-23
3.12697E-01 1.02385E-23
3.16749E-01 9.96254E-24
3.20816E-01 9.69554E-24
3.24896E-01 9.43715E-24
3.28990E-01 9.18704E-24
3.33097E-01 8.94487E-24
3.37216E-01 8.71033E-24
3.41348E-01 8.48314E-24
3.45492E-01 8.26302E-24
3.49647E-01 8.04971E-24
3.53814E-01 7.84295E-24
3.57992E-01 7.64250E-24
3.62181E-01 7.44810E-24
3.66381E-01 7.25955E-24
3.70590E-01 7.07664E-24
3.74810E-01 6.89915E-24
3.79039E-01 6.72691E-24
3.83277E-01 6.55971E-24
3.87524E-01 6.39738E-24
3.91780E-01 6.23974E-24
3.96044E-01 6.08663E-24
4.00316E-01 5.93790E-24
4.04596E-01 5.79339E-24
4.08882E-01 5.65296E-24
4.13176E-01 5.51647E-24
4.17476E-01 5.38379E-24
4.21783E-01 5.25478E-24
4.26095E-01 5.12932E-24
4.30413E-01 5.00730E-24
4.34737E-01 4.88860E-24
4.39065E-01 4.77312E-24
4.43398E-01 4.66074E-24
4.47736E-01 4.55137E-24
4.52077E-01 4.44491E-24
4.56422E-01 4.34127E-24
4.60770E-01 4.24035E-24
4.65122E-01 4.14208E-24
4.69476E-01 4.04636E-24
4.73832E-01 3.95313E-24
4.78190E-01 3.86229E-24
4.82550E-01 3.77378E-24
4.86912E-01 3.68753E-24
4.91274E-01 3.60346E-24
4.95637E-01 3.52151E-24
5.00000E-01 3.44161E-24
5.04363E-01 3.36371E-24
5.08726E-01 3.28775E-24
5.13088E-01 3.21366E-24
5.17450E-01 3.14139E-24
5.21810E-01 3.07089E-24
5.26168E-01 3.00211E-24
5.30524E-01 2.93500E-24
5.34878E-01 2.86950E-24
5.39230E-01 2.80558E-24
5.43578E-01 2.74318E-24
5.47923E-01 2.68226E-24
5.52264E-01 2.62279E-24
5.56602E-01 2.56472E-24
5.60935E-01 2.50801E-24
5.65263E-01 2.45262E-24
5.69587E-01 2.39853E-24
5.73905E-01 2.34568E-24
5.78217E-01 2.29406E-24
5.82524E-01 2.24361E-24
5.86824E-01 2.19432E-24
5.91118E-01 2.14615E-24
5.95404E-01 2.09908E-24
5.99684E-01 2.05306E-24
6.03956E-01 2.00808E-24
6.08220E-01 1.96411E-24
6.12476E-01 1.92112E-24
6.16723E-01 1.87908E-24
6.20961E-01 1.83797E-24
6.25190E-01 1.79777E-24
6.29410E-01 1.75845E-24
6.33619E-01 1.72000E-24
6.37819E-01 1.68238E-24
6.42008E-01 1.64557E-24
6.46186E-01 1.60957E-24
6.50353E-01 1.57434E-24
6.54508E-01 1.53986E-24
6.58652E-01 1.50613E-24
6.62784E-01 1.47311E-24
6.66903E-01 1.44080E-24
6.71010E-01 1.40917E-24
6.75104E-01 1.37822E-24
6.79184E-01 1.34791E-24
6.83251E-01 1.31824E-24
6.87303E-01 1.28919E-24
6.91342E-01 1.26075E-24
6.95366E-01 1.23290E-24
6.99375E-01 1.20562E-24
7.03368E-01 1.17892E-24
7.07347E-01 1.15276E-24
7.11309E-01 1.12714E-24
7.15256E-01 1.10205E-24
7.19186E-01 1.07747E-24
7.23099E-01 1.05339E-24
7.26995E-01 1.02981E-24
7.30874E-01 1.00670E-24
7.34736E-01 9.84062E-25
7.38579E-01 9.61881E-25
7.42405E-01 9.40148E-25
7.46212E-01 9.18853E-25
7.50000E-01 8.97986E-25
7.53769E-01 8.77538E-25
7.57519E-01 8.57499E-25
7.61249E-01 8.37860E-25
7.64960E-01 8.18614E-25
7.68650E-01 7.99750E-25
7.72320E-01 7.81262E-25
7.75968E-01 7.63140E-25
7.79596E-01 7.45378E-25
7.83203E-01 7.27968E-25
7.86788E-01 7.10902E-25
7.90351E-01 6.94173E-25
7.93893E-01 6.77773E-25
7.97411E-01 6.61696E-25
8.00908E-01 6.45935E-25
8.04381E-01 6.30485E-25
8.07831E-01 6.15338E-25
8.11257E-01 6.00488E-25
8.14660E-01 5.85930E-25
8.18039E-01 5.71658E-25
8.21394E-01 5.57666E-25
8.24724E-01 5.43948E-25
8.28030E-01 5.30499E-25
8.31310E-01 5.17315E-25
8.34565E-01 5.04388E-25
8.37795E-01 4.91716E-25
8.40999E-01 4.79292E-25
8.44177E-01 4.67112E-25
8.47329E-01 4.55171E-25
8.50455E-01 4.43466E-25
8.53553E-01 4.31990E-25
8.56625E-01 4.20741E-25
8.59670E-01 4.09714E-25
8.62687E-01 3.98904E-25
8.65677E-01 3.88309E-25
8.68639E-01 3.77923E-25
8.71572E-01 3.67744E-25
8.74478E-01 3.57767E-25
8.77355E-01 3.47989E-25
8.80203E-01 3.38406E-25
8.83022E-01 3.29015E-25
8.85812E-01 3.19813E-25
8.88573E-01 3.10796E-25
8.91304E-01 3.01962E-25
8.94005E-01 2.93306E-25
8.96677E-01 2.84826E-25
8.99318E-01 2.76520E-25
9.01928E-01 2.68384E-25
9.04508E-01 2.60415E-25
9.07058E-01 2.52611E-25
9.09576E-01 2.44969E-25
9.12063E-01 2.37486E-25
9.14519E-01 2.30160E-25
9.16943E-01 2.22989E-25
9.19335E-01 2.15970E-25
9.21696E-01 2.09100E-25
9.24024E-01 2.02378E-25
9.26320E-01 1.95801E-25
9.28584E-01 1.89367E-25
9.30815E-01 1.83074E-25
9.33013E-01 1.76920E-25
9.35178E-01 1.70903E-25
9.37310E-01 1.65020E-25
9.39409E-01 1.59271E-25
9.41474E-01 1.53652E-25
9.43505E-01 1.48163E-25
9.45503E-01 1.42802E-25
9.47467E-01 1.37566E-25
9.49397E-01 1.32454E-25
9.51293E-01 1.27465E-25
9.53154E-01 1.22597E-25
9.54981E-01 1.17849E-25
9.56773E-01 1.13218E-25
9.58530E-01 1.08704E-25
9.60252E-01 1.04305E-25
9.61940E-01 1.00020E-25
9.63592E-01 9.58475E-26
9.65209E-01 9.17858E-26
9.66790E-01 8.78340E-26
9.68336E-01 8.39908E-26
9.69846E-01 8.02551E-26
9.71321E-01 7.66258E-26
9.72759E-01 7.31016E-26
9.74162E-01 6.96816E-26
9.75528E-01 6.63646E-26
9.76858E-01 6.31498E-26
9.78152E-01 6.00361E-26
9.79410E-01 5.70226E-26
9.80631E-01 5.41084E-26
9.81815E-01 5.12925E-26
9.82963E-01 4.85742E-26
9.84074E-01 4.59527E-26
9.85148E-01 4.34272E-26
9.86185E-01 4.09968E-26
9.87185E-01 3.86609E-26
9.88148E-01 3.64189E-26
9.89074E-01 3.42699E-26
9.89962E-01 3.22135E-26
9.90814E-01 3.02489E-26
9.91627E-01 2.83757E-26
9.92404E-01 2.65932E-26
9.93143E-01 2.49009E-26
9.93844E-01 2.32984E-26
9.94508E-01 2.17851E-26
9.95134E-01 2.03607E-26
9.95722E-01 1.90246E-26
9.96273E-01 1.77766E-26
9.96786E-01 1.66162E-26
9.97261E-01 1.55431E-26
9.97698E-01 1.45570E-26
9.98097E-01 1.36576E-26
9.98459E-01 1.28446E-26
9.98782E-01 1.21179E-26
9.99067E-01 1.14771E-26
9.99315E-01 1.09222E-26
9.99524E-01 1.04529E-26
9.99695E-01 1.00691E-26
9.99829E-01 9.77075E-27
9.99924E-01 9.55768E-27
9.99981E-01 9.42987E-27
1.00000E+00 9.38727E-27
