 #
 # Subroutine ELSEPA. Elastic scattering of electrons and positrons
 #                    by neutral atoms and positive ions
 #
 # Projectile: electron
 # Kinetic energy = 4.50000E+06 eV = 1.65372E+05 a.u.
 #
 # WARNING: High-energy factorization with free-atom DF screening.
 #          Absorption, polarization and exchange corrections are
 #          switched off.
 #          Phase shifts are calculated for the bare nucleus.
 #          Scattering amplitudes are not evaluated.
 #
 # Element: Eu,  Z =  63,  atomic weight = 1.51964E+02 g/mol
 #
 # Nuclear model: Fermi distribution
 #                Average radius = 5.70993E-13 cm
 #                Skin thickness = 5.46000E-14 cm
 #
 # Number of electrons = 63
 #
 # Total elastic cross section = 7.28174E-18 cm**2 = 2.60036E-01 a0**2
 # 1st transport cross section = 2.57808E-22 cm**2 = 9.20650E-06 a0**2
 # 2nd transport cross section = 7.07563E-22 cm**2 = 2.52675E-05 a0**2
 #
 #
 # Differential cross section:                       MU=(1-COS(THETA))/2
 #
 #  THETA        MU          DCS          DCS        Sherman      error
 #  (deg)                 (cm**2/sr)   (a0**2/sr)    function
 #----------------------------------------------------------------------
0.00000E+00 2.23452E-12
7.61557E-13 2.23449E-12
1.18994E-12 2.23448E-12
1.71346E-12 2.23446E-12
2.33225E-12 2.23444E-12
3.04617E-12 2.23441E-12
3.85530E-12 2.23438E-12
4.75964E-12 2.23435E-12
5.75917E-12 2.23431E-12
6.85391E-12 2.23427E-12
8.04379E-12 2.23423E-12
9.32893E-12 2.23418E-12
1.07092E-11 2.23413E-12
1.21847E-11 2.23407E-12
1.37554E-11 2.23402E-12
1.54213E-11 2.23396E-12
1.71823E-11 2.23389E-12
1.90386E-11 2.23382E-12
2.09900E-11 2.23375E-12
2.30367E-11 2.23368E-12
2.51785E-11 2.23360E-12
2.74156E-11 2.23352E-12
2.97478E-11 2.23343E-12
3.21752E-11 2.23334E-12
3.46979E-11 2.23325E-12
3.73157E-11 2.23315E-12
4.00286E-11 2.23306E-12
4.28368E-11 2.23295E-12
4.57402E-11 2.23285E-12
4.87388E-11 2.23274E-12
5.18325E-11 2.23262E-12
5.50215E-11 2.23251E-12
5.83057E-11 2.23239E-12
6.16850E-11 2.23226E-12
6.51595E-11 2.23214E-12
6.87293E-11 2.23201E-12
7.23943E-11 2.23187E-12
7.61544E-11 2.23173E-12
1.18991E-10 2.23017E-12
1.71347E-10 2.22826E-12
2.33223E-10 2.22600E-12
3.04617E-10 2.22341E-12
3.85531E-10 2.22047E-12
4.75965E-10 2.21719E-12
5.75917E-10 2.21358E-12
6.85389E-10 2.20964E-12
8.04380E-10 2.20536E-12
9.32891E-10 2.20076E-12
1.07092E-09 2.19584E-12
1.21847E-09 2.19060E-12
1.37554E-09 2.18504E-12
1.54213E-09 2.17917E-12
1.71823E-09 2.17299E-12
1.90386E-09 2.16651E-12
2.09900E-09 2.15973E-12
2.30367E-09 2.15266E-12
2.51785E-09 2.14530E-12
2.74156E-09 2.13766E-12
2.97478E-09 2.12975E-12
3.21752E-09 2.12156E-12
3.46978E-09 2.11310E-12
3.73156E-09 2.10439E-12
4.00286E-09 2.09542E-12
4.28368E-09 2.08620E-12
4.57402E-09 2.07674E-12
4.87388E-09 2.06705E-12
5.18326E-09 2.05713E-12
5.50215E-09 2.04699E-12
5.83057E-09 2.03663E-12
6.16850E-09 2.02606E-12
6.51596E-09 2.01529E-12
6.87293E-09 2.00433E-12
7.23942E-09 1.99317E-12
7.61544E-09 1.98184E-12
1.18991E-08 1.86044E-12
1.71347E-08 1.72816E-12
2.33223E-08 1.59159E-12
3.04617E-08 1.45606E-12
3.85531E-08 1.32569E-12
4.75965E-08 1.20332E-12
5.75917E-08 1.09068E-12
6.85389E-08 9.88821E-13
8.04380E-08 8.97362E-13
9.32891E-08 8.15851E-13
1.07092E-07 7.43552E-13
1.21847E-07 6.79582E-13
1.37554E-07 6.23016E-13
1.54213E-07 5.72948E-13
1.71823E-07 5.28533E-13
1.90386E-07 4.89010E-13
2.09900E-07 4.53706E-13
2.30367E-07 4.22035E-13
2.51785E-07 3.93482E-13
2.74156E-07 3.67614E-13
2.97478E-07 3.44079E-13
3.21752E-07 3.22580E-13
3.46978E-07 3.02866E-13
3.73156E-07 2.84725E-13
4.00286E-07 2.67979E-13
4.28368E-07 2.52476E-13
4.57402E-07 2.38088E-13
4.87388E-07 2.24705E-13
5.18325E-07 2.12225E-13
5.50215E-07 2.00550E-13
5.83057E-07 1.89638E-13
6.16850E-07 1.79427E-13
6.51596E-07 1.69861E-13
6.87293E-07 1.60892E-13
7.23942E-07 1.52477E-13
7.61543E-07 1.44576E-13
1.18991E-06 8.61052E-14
1.71347E-06 5.47825E-14
2.33223E-06 3.64335E-14
3.04617E-06 2.51703E-14
3.85531E-06 1.79273E-14
4.75964E-06 1.30781E-14
5.75916E-06 9.72615E-15
6.85388E-06 7.34591E-15
8.04378E-06 5.63823E-15
9.32888E-06 4.39313E-15
1.07092E-05 3.47204E-15
1.21846E-05 2.78122E-15
1.37553E-05 2.25613E-15
1.54212E-05 1.85172E-15
1.71822E-05 1.53620E-15
1.90385E-05 1.28636E-15
2.09899E-05 1.08772E-15
2.30365E-05 9.27178E-16
2.51783E-05 7.94893E-16
2.74153E-05 6.85719E-16
2.97475E-05 5.94936E-16
3.21749E-05 5.18902E-16
3.46974E-05 4.54774E-16
3.73152E-05 4.00317E-16
4.00281E-05 3.53769E-16
4.28362E-05 3.13741E-16
4.57395E-05 2.79139E-16
4.87380E-05 2.49094E-16
5.18317E-05 2.22908E-16
5.50205E-05 2.00007E-16
5.83045E-05 1.79945E-16
6.16838E-05 1.62321E-16
6.51582E-05 1.46794E-16
6.87277E-05 1.33073E-16
7.23925E-05 1.20912E-16
7.61524E-05 1.10099E-16
9.21439E-05 7.71945E-17
1.09658E-04 5.56900E-17
1.28695E-04 4.12033E-17
1.49255E-04 3.11463E-17
1.71338E-04 2.39924E-17
1.94942E-04 1.87861E-17
2.20070E-04 1.49229E-17
2.46720E-04 1.20066E-17
2.74892E-04 9.77055E-18
3.04586E-04 8.03256E-18
3.35803E-04 6.66483E-18
3.68542E-04 5.57627E-18
4.02802E-04 4.70092E-18
4.38585E-04 3.99081E-18
4.75889E-04 3.40989E-18
5.14715E-04 2.93091E-18
5.55063E-04 2.53314E-18
5.96931E-04 2.20059E-18
6.40321E-04 1.92087E-18
6.85233E-04 1.68420E-18
7.31665E-04 1.48289E-18
7.79618E-04 1.31078E-18
8.29092E-04 1.16293E-18
8.80086E-04 1.03535E-18
9.32601E-04 9.24815E-19
9.86636E-04 8.28665E-19
1.04219E-03 7.44712E-19
1.09927E-03 6.71146E-19
1.15786E-03 6.06463E-19
1.21797E-03 5.49407E-19
1.27961E-03 4.98923E-19
1.34276E-03 4.54123E-19
1.40743E-03 4.14257E-19
1.47362E-03 3.78684E-19
1.54133E-03 3.46860E-19
1.61056E-03 3.18324E-19
1.68131E-03 2.92674E-19
1.75357E-03 2.69568E-19
1.82735E-03 2.48708E-19
1.90265E-03 2.29836E-19
1.97947E-03 2.12730E-19
2.05780E-03 1.97194E-19
2.13765E-03 1.83057E-19
2.21902E-03 1.70172E-19
2.30190E-03 1.58407E-19
2.38630E-03 1.47646E-19
2.47222E-03 1.37789E-19
2.55965E-03 1.28746E-19
2.64859E-03 1.20437E-19
2.73905E-03 1.12792E-19
2.83103E-03 1.05748E-19
2.92452E-03 9.92487E-20
3.01952E-03 9.32443E-20
3.11604E-03 8.76902E-20
3.21407E-03 8.25464E-20
3.31362E-03 7.77767E-20
3.41468E-03 7.33489E-20
3.51725E-03 6.92339E-20
3.62133E-03 6.54056E-20
3.72692E-03 6.18402E-20
3.83403E-03 5.85163E-20
3.94265E-03 5.54145E-20
4.05278E-03 5.25170E-20
4.16442E-03 4.98079E-20
4.27757E-03 4.72726E-20
4.39223E-03 4.48979E-20
4.50840E-03 4.26716E-20
4.62608E-03 4.05828E-20
4.74527E-03 3.86212E-20
4.86597E-03 3.67777E-20
4.98817E-03 3.50439E-20
5.11188E-03 3.34119E-20
5.23711E-03 3.18747E-20
5.36383E-03 3.04257E-20
5.49207E-03 2.90588E-20
5.62181E-03 2.77686E-20
5.75306E-03 2.65498E-20
5.88581E-03 2.53978E-20
6.02007E-03 2.43081E-20
6.15583E-03 2.32769E-20
6.29310E-03 2.23003E-20
6.43187E-03 2.13749E-20
6.57214E-03 2.04975E-20
6.71392E-03 1.96651E-20
6.85720E-03 1.88750E-20
7.00198E-03 1.81246E-20
7.14827E-03 1.74115E-20
7.29605E-03 1.67335E-20
7.44534E-03 1.60885E-20
7.59612E-03 1.54747E-20
7.97965E-03 1.40647E-20
8.37255E-03 1.28135E-20
8.77480E-03 1.16998E-20
9.18641E-03 1.07060E-20
9.60736E-03 9.81663E-21
1.00376E-02 9.01887E-21
1.04773E-02 8.30153E-21
1.09262E-02 7.65502E-21
1.13844E-02 7.07106E-21
1.18520E-02 6.54249E-21
1.23288E-02 6.06308E-21
1.28150E-02 5.62742E-21
1.33104E-02 5.23076E-21
1.38150E-02 4.86896E-21
1.43290E-02 4.53839E-21
1.48521E-02 4.23583E-21
1.53845E-02 3.95848E-21
1.59262E-02 3.70384E-21
1.64770E-02 3.46969E-21
1.70371E-02 3.25407E-21
1.76063E-02 3.05523E-21
1.81848E-02 2.87163E-21
1.87724E-02 2.70186E-21
1.93692E-02 2.54468E-21
1.99751E-02 2.39899E-21
2.05901E-02 2.26377E-21
2.12143E-02 2.13814E-21
2.18476E-02 2.02127E-21
2.24900E-02 1.91244E-21
2.31415E-02 1.81099E-21
2.38021E-02 1.71632E-21
2.44717E-02 1.62789E-21
2.51504E-02 1.54520E-21
2.58382E-02 1.46781E-21
2.65349E-02 1.39532E-21
2.72407E-02 1.32734E-21
2.79555E-02 1.26355E-21
2.86793E-02 1.20363E-21
2.94120E-02 1.14731E-21
3.01537E-02 1.09432E-21
3.09043E-02 1.04442E-21
3.16639E-02 9.97410E-22
3.24324E-02 9.53078E-22
3.32098E-02 9.11243E-22
3.39961E-02 8.71735E-22
3.47912E-02 8.34400E-22
3.55952E-02 7.99093E-22
3.64081E-02 7.65682E-22
3.72297E-02 7.34045E-22
3.80602E-02 7.04068E-22
3.88995E-02 6.75646E-22
3.97476E-02 6.48682E-22
4.06044E-02 6.23086E-22
4.14700E-02 5.98775E-22
4.23443E-02 5.75670E-22
4.32273E-02 5.53699E-22
4.41190E-02 5.32796E-22
4.50194E-02 5.12897E-22
4.59284E-02 4.93945E-22
4.68461E-02 4.75885E-22
4.87074E-02 4.42242E-22
5.06030E-02 4.11601E-22
5.25328E-02 3.83642E-22
5.44967E-02 3.58083E-22
5.64946E-02 3.34678E-22
5.85262E-02 3.13208E-22
6.05914E-02 2.93481E-22
6.26901E-02 2.75328E-22
6.48222E-02 2.58598E-22
6.69873E-02 2.43157E-22
6.91854E-02 2.28885E-22
7.14163E-02 2.15676E-22
7.36799E-02 2.03435E-22
7.59760E-02 1.92075E-22
7.83043E-02 1.81520E-22
8.06647E-02 1.71702E-22
8.30571E-02 1.62559E-22
8.54812E-02 1.54034E-22
8.79369E-02 1.46078E-22
9.04240E-02 1.38643E-22
9.29422E-02 1.31690E-22
9.54915E-02 1.25179E-22
9.80716E-02 1.19078E-22
1.00682E-01 1.13355E-22
1.03323E-01 1.07981E-22
1.05995E-01 1.02931E-22
1.08696E-01 9.81813E-23
1.11427E-01 9.37100E-23
1.14188E-01 8.94973E-23
1.16978E-01 8.55252E-23
1.19797E-01 8.17769E-23
1.22645E-01 7.82371E-23
1.25522E-01 7.48920E-23
1.28428E-01 7.17283E-23
1.31361E-01 6.87342E-23
1.34323E-01 6.58985E-23
1.37313E-01 6.32112E-23
1.40330E-01 6.06626E-23
1.43375E-01 5.82442E-23
1.46447E-01 5.59480E-23
1.49545E-01 5.37663E-23
1.52671E-01 5.16922E-23
1.55823E-01 4.97193E-23
1.59001E-01 4.78416E-23
1.62205E-01 4.60533E-23
1.65435E-01 4.43495E-23
1.68690E-01 4.27251E-23
1.71970E-01 4.11758E-23
1.75276E-01 3.96973E-23
1.78606E-01 3.82856E-23
1.81961E-01 3.69371E-23
1.85340E-01 3.56482E-23
1.88743E-01 3.44159E-23
1.92169E-01 3.32370E-23
1.95619E-01 3.21088E-23
1.99092E-01 3.10286E-23
2.02589E-01 2.99939E-23
2.06107E-01 2.90023E-23
2.09649E-01 2.80518E-23
2.13212E-01 2.71401E-23
2.16797E-01 2.62654E-23
2.20404E-01 2.54259E-23
2.24032E-01 2.46197E-23
2.27680E-01 2.38454E-23
2.31350E-01 2.31013E-23
2.35040E-01 2.23861E-23
2.38751E-01 2.16983E-23
2.42481E-01 2.10367E-23
2.46231E-01 2.04001E-23
2.50000E-01 1.97872E-23
2.53788E-01 1.91971E-23
2.57595E-01 1.86287E-23
2.61421E-01 1.80810E-23
2.65264E-01 1.75532E-23
2.69126E-01 1.70443E-23
2.73005E-01 1.65534E-23
2.76901E-01 1.60799E-23
2.80814E-01 1.56230E-23
2.84744E-01 1.51819E-23
2.88691E-01 1.47560E-23
2.92653E-01 1.43447E-23
2.96632E-01 1.39474E-23
3.00625E-01 1.35634E-23
3.04634E-01 1.31922E-23
3.08658E-01 1.28334E-23
3.12697E-01 1.24863E-23
3.16749E-01 1.21506E-23
3.20816E-01 1.18258E-23
3.24896E-01 1.15114E-23
3.28990E-01 1.12071E-23
3.33097E-01 1.09125E-23
3.37216E-01 1.06271E-23
3.41348E-01 1.03506E-23
3.45492E-01 1.00828E-23
3.49647E-01 9.82316E-24
3.53814E-01 9.57151E-24
3.57992E-01 9.32753E-24
3.62181E-01 9.09092E-24
3.66381E-01 8.86142E-24
3.70590E-01 8.63876E-24
3.74810E-01 8.42269E-24
3.79039E-01 8.21298E-24
3.83277E-01 8.00941E-24
3.87524E-01 7.81175E-24
3.91780E-01 7.61980E-24
3.96044E-01 7.43337E-24
4.00316E-01 7.25225E-24
4.04596E-01 7.07626E-24
4.08882E-01 6.90522E-24
4.13176E-01 6.73896E-24
4.17476E-01 6.57734E-24
4.21783E-01 6.42018E-24
4.26095E-01 6.26735E-24
4.30413E-01 6.11870E-24
4.34737E-01 5.97409E-24
4.39065E-01 5.83338E-24
4.43398E-01 5.69644E-24
4.47736E-01 5.56316E-24
4.52077E-01 5.43343E-24
4.56422E-01 5.30712E-24
4.60770E-01 5.18412E-24
4.65122E-01 5.06434E-24
4.69476E-01 4.94767E-24
4.73832E-01 4.83401E-24
4.78190E-01 4.72327E-24
4.82550E-01 4.61536E-24
4.86912E-01 4.51020E-24
4.91274E-01 4.40769E-24
4.95637E-01 4.30776E-24
5.00000E-01 4.21034E-24
5.04363E-01 4.11534E-24
5.08726E-01 4.02269E-24
5.13088E-01 3.93232E-24
5.17450E-01 3.84417E-24
5.21810E-01 3.75818E-24
5.26168E-01 3.67427E-24
5.30524E-01 3.59239E-24
5.34878E-01 3.51248E-24
5.39230E-01 3.43448E-24
5.43578E-01 3.35834E-24
5.47923E-01 3.28401E-24
5.52264E-01 3.21143E-24
5.56602E-01 3.14055E-24
5.60935E-01 3.07134E-24
5.65263E-01 3.00373E-24
5.69587E-01 2.93770E-24
5.73905E-01 2.87319E-24
5.78217E-01 2.81016E-24
5.82524E-01 2.74857E-24
5.86824E-01 2.68839E-24
5.91118E-01 2.62957E-24
5.95404E-01 2.57209E-24
5.99684E-01 2.51589E-24
6.03956E-01 2.46096E-24
6.08220E-01 2.40725E-24
6.12476E-01 2.35474E-24
6.16723E-01 2.30339E-24
6.20961E-01 2.25317E-24
6.25190E-01 2.20405E-24
6.29410E-01 2.15602E-24
6.33619E-01 2.10903E-24
6.37819E-01 2.06306E-24
6.42008E-01 2.01808E-24
6.46186E-01 1.97408E-24
6.50353E-01 1.93102E-24
6.54508E-01 1.88889E-24
6.58652E-01 1.84765E-24
6.62784E-01 1.80730E-24
6.66903E-01 1.76780E-24
6.71010E-01 1.72913E-24
6.75104E-01 1.69128E-24
6.79184E-01 1.65422E-24
6.83251E-01 1.61794E-24
6.87303E-01 1.58242E-24
6.91342E-01 1.54763E-24
6.95366E-01 1.51357E-24
6.99375E-01 1.48022E-24
7.03368E-01 1.44755E-24
7.07347E-01 1.41555E-24
7.11309E-01 1.38421E-24
7.15256E-01 1.35351E-24
7.19186E-01 1.32344E-24
7.23099E-01 1.29398E-24
7.26995E-01 1.26512E-24
7.30874E-01 1.23684E-24
7.34736E-01 1.20914E-24
7.38579E-01 1.18199E-24
7.42405E-01 1.15539E-24
7.46212E-01 1.12932E-24
7.50000E-01 1.10378E-24
7.53769E-01 1.07875E-24
7.57519E-01 1.05422E-24
7.61249E-01 1.03017E-24
7.64960E-01 1.00661E-24
7.68650E-01 9.83507E-25
7.72320E-01 9.60867E-25
7.75968E-01 9.38675E-25
7.79596E-01 9.16921E-25
7.83203E-01 8.95597E-25
7.86788E-01 8.74694E-25
7.90351E-01 8.54201E-25
7.93893E-01 8.34112E-25
7.97411E-01 8.14418E-25
8.00908E-01 7.95110E-25
8.04381E-01 7.76181E-25
8.07831E-01 7.57622E-25
8.11257E-01 7.39428E-25
8.14660E-01 7.21589E-25
8.18039E-01 7.04100E-25
8.21394E-01 6.86952E-25
8.24724E-01 6.70140E-25
8.28030E-01 6.53657E-25
8.31310E-01 6.37496E-25
8.34565E-01 6.21651E-25
8.37795E-01 6.06117E-25
8.40999E-01 5.90886E-25
8.44177E-01 5.75953E-25
8.47329E-01 5.61313E-25
8.50455E-01 5.46961E-25
8.53553E-01 5.32890E-25
8.56625E-01 5.19095E-25
8.59670E-01 5.05572E-25
8.62687E-01 4.92315E-25
8.65677E-01 4.79320E-25
8.68639E-01 4.66582E-25
8.71572E-01 4.54096E-25
8.74478E-01 4.41857E-25
8.77355E-01 4.29862E-25
8.80203E-01 4.18106E-25
8.83022E-01 4.06585E-25
8.85812E-01 3.95295E-25
8.88573E-01 3.84231E-25
8.91304E-01 3.73391E-25
8.94005E-01 3.62769E-25
8.96677E-01 3.52363E-25
8.99318E-01 3.42169E-25
9.01928E-01 3.32184E-25
9.04508E-01 3.22403E-25
9.07058E-01 3.12824E-25
9.09576E-01 3.03444E-25
9.12063E-01 2.94259E-25
9.14519E-01 2.85266E-25
9.16943E-01 2.76462E-25
9.19335E-01 2.67845E-25
9.21696E-01 2.59411E-25
9.24024E-01 2.51157E-25
9.26320E-01 2.43081E-25
9.28584E-01 2.35181E-25
9.30815E-01 2.27454E-25
9.33013E-01 2.19896E-25
9.35178E-01 2.12506E-25
9.37310E-01 2.05282E-25
9.39409E-01 1.98221E-25
9.41474E-01 1.91320E-25
9.43505E-01 1.84578E-25
9.45503E-01 1.77992E-25
9.47467E-01 1.71561E-25
9.49397E-01 1.65282E-25
9.51293E-01 1.59153E-25
9.53154E-01 1.53173E-25
9.54981E-01 1.47339E-25
9.56773E-01 1.41650E-25
9.58530E-01 1.36104E-25
9.60252E-01 1.30699E-25
9.61940E-01 1.25434E-25
9.63592E-01 1.20306E-25
9.65209E-01 1.15315E-25
9.66790E-01 1.10459E-25
9.68336E-01 1.05736E-25
9.69846E-01 1.01145E-25
9.71321E-01 9.66851E-26
9.72759E-01 9.23539E-26
9.74162E-01 8.81506E-26
9.75528E-01 8.40738E-26
9.76858E-01 8.01225E-26
9.78152E-01 7.62954E-26
9.79410E-01 7.25913E-26
9.80631E-01 6.90091E-26
9.81815E-01 6.55479E-26
9.82963E-01 6.22065E-26
9.84074E-01 5.89839E-26
9.85148E-01 5.58792E-26
9.86185E-01 5.28916E-26
9.87185E-01 5.00200E-26
9.88148E-01 4.72636E-26
9.89074E-01 4.46218E-26
9.89962E-01 4.20935E-26
9.90814E-01 3.96782E-26
9.91627E-01 3.73752E-26
9.92404E-01 3.51836E-26
9.93143E-01 3.31030E-26
9.93844E-01 3.11327E-26
9.94508E-01 2.92721E-26
9.95134E-01 2.75206E-26
9.95722E-01 2.58779E-26
9.96273E-01 2.43433E-26
9.96786E-01 2.29165E-26
9.97261E-01 2.15970E-26
9.97698E-01 2.03845E-26
9.98097E-01 1.92786E-26
9.98459E-01 1.82790E-26
9.98782E-01 1.73854E-26
9.99067E-01 1.65975E-26
9.99315E-01 1.59151E-26
9.99524E-01 1.53380E-26
9.99695E-01 1.48661E-26
9.99829E-01 1.44992E-26
9.99924E-01 1.42372E-26
9.99981E-01 1.40800E-26
1.00000E+00 1.40277E-26
