 #
 # Subroutine ELSEPA. Elastic scattering of electrons and positrons
 #                    by neutral atoms and positive ions
 #
 # Projectile: electron
 # Kinetic energy = 7.00000E+06 eV = 2.57245E+05 a.u.
 #
 # WARNING: High-energy factorization with free-atom DF screening.
 #          Absorption, polarization and exchange corrections are
 #          switched off.
 #          Phase shifts are calculated for the bare nucleus.
 #          Scattering amplitudes are not evaluated.
 #
 # Element: Eu,  Z =  63,  atomic weight = 1.51964E+02 g/mol
 #
 # Nuclear model: Fermi distribution
 #                Average radius = 5.70993E-13 cm
 #                Skin thickness = 5.46000E-14 cm
 #
 # Number of electrons = 63
 #
 # Total elastic cross section = 7.24011E-18 cm**2 = 2.58549E-01 a0**2
 # 1st transport cross section = 1.20323E-22 cm**2 = 4.29680E-06 a0**2
 # 2nd transport cross section = 3.32942E-22 cm**2 = 1.18896E-05 a0**2
 #
 #
 # Differential cross section:                       MU=(1-COS(THETA))/2
 #
 #  THETA        MU          DCS          DCS        Sherman      error
 #  (deg)                 (cm**2/sr)   (a0**2/sr)    function
 #----------------------------------------------------------------------
0.00000E+00 5.02032E-12
7.61557E-13 5.02017E-12
1.18994E-12 5.02009E-12
1.71346E-12 5.02000E-12
2.33225E-12 5.01988E-12
3.04617E-12 5.01975E-12
3.85530E-12 5.01960E-12
4.75964E-12 5.01943E-12
5.75917E-12 5.01924E-12
6.85391E-12 5.01904E-12
8.04379E-12 5.01882E-12
9.32893E-12 5.01858E-12
1.07092E-11 5.01832E-12
1.21847E-11 5.01805E-12
1.37554E-11 5.01775E-12
1.54213E-11 5.01744E-12
1.71823E-11 5.01712E-12
1.90386E-11 5.01677E-12
2.09900E-11 5.01641E-12
2.30367E-11 5.01603E-12
2.51785E-11 5.01563E-12
2.74156E-11 5.01521E-12
2.97478E-11 5.01478E-12
3.21752E-11 5.01433E-12
3.46979E-11 5.01386E-12
3.73157E-11 5.01337E-12
4.00286E-11 5.01287E-12
4.28368E-11 5.01235E-12
4.57402E-11 5.01181E-12
4.87388E-11 5.01125E-12
5.18325E-11 5.01068E-12
5.50215E-11 5.01009E-12
5.83057E-11 5.00948E-12
6.16850E-11 5.00885E-12
6.51595E-11 5.00820E-12
6.87293E-11 5.00754E-12
7.23943E-11 5.00686E-12
7.61544E-11 5.00617E-12
1.18991E-10 4.99824E-12
1.71347E-10 4.98858E-12
2.33223E-10 4.97721E-12
3.04617E-10 4.96413E-12
3.85531E-10 4.94939E-12
4.75965E-10 4.93299E-12
5.75917E-10 4.91498E-12
6.85389E-10 4.89537E-12
8.04380E-10 4.87421E-12
9.32891E-10 4.85152E-12
1.07092E-09 4.82735E-12
1.21847E-09 4.80173E-12
1.37554E-09 4.77470E-12
1.54213E-09 4.74632E-12
1.71823E-09 4.71661E-12
1.90386E-09 4.68563E-12
2.09900E-09 4.65344E-12
2.30367E-09 4.62006E-12
2.51785E-09 4.58556E-12
2.74156E-09 4.54999E-12
2.97478E-09 4.51339E-12
3.21752E-09 4.47583E-12
3.46978E-09 4.43734E-12
3.73156E-09 4.39800E-12
4.00286E-09 4.35784E-12
4.28368E-09 4.31721E-12
4.57402E-09 4.27590E-12
4.87388E-09 4.23382E-12
5.18326E-09 4.19102E-12
5.50215E-09 4.14753E-12
5.83057E-09 4.10341E-12
6.16850E-09 4.05870E-12
6.51596E-09 4.01386E-12
6.87293E-09 3.96920E-12
7.23942E-09 3.92409E-12
7.61544E-09 3.87856E-12
1.18991E-08 3.41711E-12
1.71347E-08 2.97277E-12
2.33223E-08 2.56920E-12
3.04617E-08 2.21568E-12
3.85531E-08 1.91638E-12
4.75965E-08 1.66540E-12
5.75917E-08 1.45622E-12
6.85389E-08 1.28299E-12
8.04380E-08 1.13793E-12
9.32891E-08 1.01580E-12
1.07092E-07 9.12034E-13
1.21847E-07 8.22927E-13
1.37554E-07 7.45589E-13
1.54213E-07 6.77857E-13
1.71823E-07 6.18168E-13
1.90386E-07 5.64943E-13
2.09900E-07 5.17408E-13
2.30367E-07 4.74764E-13
2.51785E-07 4.36151E-13
2.74156E-07 4.01311E-13
2.97478E-07 3.69708E-13
3.21752E-07 3.40941E-13
3.46978E-07 3.14831E-13
3.73156E-07 2.90996E-13
4.00286E-07 2.69261E-13
4.28368E-07 2.48260E-13
4.57402E-07 2.29114E-13
4.87388E-07 2.12145E-13
5.18325E-07 1.97056E-13
5.50215E-07 1.83595E-13
5.83057E-07 1.71548E-13
6.16850E-07 1.60734E-13
6.51596E-07 1.50345E-13
6.87293E-07 1.40021E-13
7.23942E-07 1.30728E-13
7.61543E-07 1.22341E-13
1.18991E-06 6.73919E-14
1.71347E-06 3.99916E-14
2.33223E-06 2.50341E-14
3.04617E-06 1.63787E-14
3.85531E-06 1.10708E-14
4.75964E-06 7.73608E-15
5.75916E-06 5.57451E-15
6.85388E-06 4.12468E-15
8.04378E-06 3.12804E-15
9.32888E-06 2.42233E-15
1.07092E-05 1.90894E-15
1.21846E-05 1.52640E-15
1.37553E-05 1.23637E-15
1.54212E-05 1.01270E-15
1.71822E-05 8.37636E-16
1.90385E-05 6.97963E-16
2.09899E-05 5.86467E-16
2.30365E-05 4.96070E-16
2.51783E-05 4.22051E-16
2.74153E-05 3.61206E-16
2.97475E-05 3.10829E-16
3.21749E-05 2.68853E-16
3.46974E-05 2.33718E-16
3.73152E-05 2.04110E-16
4.00281E-05 1.79044E-16
4.28362E-05 1.57642E-16
4.57395E-05 1.39390E-16
4.87380E-05 1.23783E-16
5.18317E-05 1.10222E-16
5.50205E-05 9.84817E-17
5.83045E-05 8.83094E-17
6.16838E-05 7.93708E-17
6.51582E-05 7.15554E-17
6.87277E-05 6.47096E-17
7.23925E-05 5.86360E-17
7.61524E-05 5.32750E-17
9.21439E-05 3.71108E-17
1.09658E-04 2.66384E-17
1.28695E-04 1.96243E-17
1.49255E-04 1.47750E-17
1.71338E-04 1.13345E-17
1.94942E-04 8.84025E-18
2.20070E-04 6.99495E-18
2.46720E-04 5.60653E-18
2.74892E-04 4.54606E-18
3.04586E-04 3.72438E-18
3.35803E-04 3.08017E-18
3.68542E-04 2.56944E-18
4.02802E-04 2.16015E-18
4.38585E-04 1.82928E-18
4.75889E-04 1.55943E-18
5.14715E-04 1.33756E-18
5.55063E-04 1.15384E-18
5.96931E-04 1.00065E-18
6.40321E-04 8.72090E-19
6.85233E-04 7.63583E-19
7.31665E-04 6.71460E-19
7.79618E-04 5.92860E-19
8.29092E-04 5.25462E-19
8.80086E-04 4.67397E-19
9.32601E-04 4.17162E-19
9.86636E-04 3.73519E-19
1.04219E-03 3.35453E-19
1.09927E-03 3.02134E-19
1.15786E-03 2.72863E-19
1.21797E-03 2.47066E-19
1.27961E-03 2.24259E-19
1.34276E-03 2.04032E-19
1.40743E-03 1.86044E-19
1.47362E-03 1.70004E-19
1.54133E-03 1.55662E-19
1.61056E-03 1.42808E-19
1.68131E-03 1.31259E-19
1.75357E-03 1.20860E-19
1.82735E-03 1.11475E-19
1.90265E-03 1.02987E-19
1.97947E-03 9.52953E-20
2.05780E-03 8.83123E-20
2.13765E-03 8.19598E-20
2.21902E-03 7.61715E-20
2.30190E-03 7.08877E-20
2.38630E-03 6.60564E-20
2.47222E-03 6.16320E-20
2.55965E-03 5.75737E-20
2.64859E-03 5.38458E-20
2.73905E-03 5.04165E-20
2.83103E-03 4.72573E-20
2.92452E-03 4.43431E-20
3.01952E-03 4.16515E-20
3.11604E-03 3.91621E-20
3.21407E-03 3.68572E-20
3.31362E-03 3.47203E-20
3.41468E-03 3.27370E-20
3.51725E-03 3.08943E-20
3.62133E-03 2.91802E-20
3.72692E-03 2.75842E-20
3.83403E-03 2.60965E-20
3.94265E-03 2.47085E-20
4.05278E-03 2.34121E-20
4.16442E-03 2.22002E-20
4.27757E-03 2.10665E-20
4.39223E-03 2.00045E-20
4.50840E-03 1.90093E-20
4.62608E-03 1.80756E-20
4.74527E-03 1.71990E-20
4.86597E-03 1.63753E-20
4.98817E-03 1.56007E-20
5.11188E-03 1.48718E-20
5.23711E-03 1.41853E-20
5.36383E-03 1.35383E-20
5.49207E-03 1.29281E-20
5.62181E-03 1.23522E-20
5.75306E-03 1.18083E-20
5.88581E-03 1.12942E-20
6.02007E-03 1.08081E-20
6.15583E-03 1.03481E-20
6.29310E-03 9.91259E-21
6.43187E-03 9.49994E-21
6.57214E-03 9.10876E-21
6.71392E-03 8.73769E-21
6.85720E-03 8.38554E-21
7.00198E-03 8.05111E-21
7.14827E-03 7.73338E-21
7.29605E-03 7.43132E-21
7.44534E-03 7.14403E-21
7.59612E-03 6.87064E-21
7.97965E-03 6.24284E-21
8.37255E-03 5.68588E-21
8.77480E-03 5.19034E-21
9.18641E-03 4.74823E-21
9.60736E-03 4.35275E-21
1.00376E-02 3.99810E-21
1.04773E-02 3.67928E-21
1.09262E-02 3.39202E-21
1.13844E-02 3.13262E-21
1.18520E-02 2.89788E-21
1.23288E-02 2.68503E-21
1.28150E-02 2.49164E-21
1.33104E-02 2.31560E-21
1.38150E-02 2.15507E-21
1.43290E-02 2.00843E-21
1.48521E-02 1.87424E-21
1.53845E-02 1.75125E-21
1.59262E-02 1.63835E-21
1.64770E-02 1.53456E-21
1.70371E-02 1.43900E-21
1.76063E-02 1.35088E-21
1.81848E-02 1.26953E-21
1.87724E-02 1.19433E-21
1.93692E-02 1.12471E-21
1.99751E-02 1.06018E-21
2.05901E-02 1.00030E-21
2.12143E-02 9.44678E-22
2.18476E-02 8.92940E-22
2.24900E-02 8.44767E-22
2.31415E-02 7.99865E-22
2.38021E-02 7.57968E-22
2.44717E-02 7.18835E-22
2.51504E-02 6.82248E-22
2.58382E-02 6.48009E-22
2.65349E-02 6.15938E-22
2.72407E-02 5.85870E-22
2.79555E-02 5.57655E-22
2.86793E-02 5.31156E-22
2.94120E-02 5.06249E-22
3.01537E-02 4.82818E-22
3.09043E-02 4.60759E-22
3.16639E-02 4.39974E-22
3.24324E-02 4.20377E-22
3.32098E-02 4.01884E-22
3.39961E-02 3.84421E-22
3.47912E-02 3.67920E-22
3.55952E-02 3.52316E-22
3.64081E-02 3.37551E-22
3.72297E-02 3.23572E-22
3.80602E-02 3.10326E-22
3.88995E-02 2.97769E-22
3.97476E-02 2.85857E-22
4.06044E-02 2.74550E-22
4.14700E-02 2.63811E-22
4.23443E-02 2.53605E-22
4.32273E-02 2.43901E-22
4.41190E-02 2.34669E-22
4.50194E-02 2.25881E-22
4.59284E-02 2.17512E-22
4.68461E-02 2.09538E-22
4.87074E-02 1.94684E-22
5.06030E-02 1.81156E-22
5.25328E-02 1.68814E-22
5.44967E-02 1.57533E-22
5.64946E-02 1.47204E-22
5.85262E-02 1.37730E-22
6.05914E-02 1.29026E-22
6.26901E-02 1.21017E-22
6.48222E-02 1.13638E-22
6.69873E-02 1.06827E-22
6.91854E-02 1.00533E-22
7.14163E-02 9.47081E-23
7.36799E-02 8.93104E-23
7.59760E-02 8.43023E-23
7.83043E-02 7.96499E-23
8.06647E-02 7.53227E-23
8.30571E-02 7.12933E-23
8.54812E-02 6.75369E-23
8.79369E-02 6.40313E-23
9.04240E-02 6.07563E-23
9.29422E-02 5.76936E-23
9.54915E-02 5.48264E-23
9.80716E-02 5.21397E-23
1.00682E-01 4.96198E-23
1.03323E-01 4.72542E-23
1.05995E-01 4.50315E-23
1.08696E-01 4.29411E-23
1.11427E-01 4.09735E-23
1.14188E-01 3.91201E-23
1.16978E-01 3.73728E-23
1.19797E-01 3.57242E-23
1.22645E-01 3.41676E-23
1.25522E-01 3.26967E-23
1.28428E-01 3.13059E-23
1.31361E-01 2.99898E-23
1.34323E-01 2.87437E-23
1.37313E-01 2.75628E-23
1.40330E-01 2.64432E-23
1.43375E-01 2.53810E-23
1.46447E-01 2.43725E-23
1.49545E-01 2.34146E-23
1.52671E-01 2.25040E-23
1.55823E-01 2.16380E-23
1.59001E-01 2.08140E-23
1.62205E-01 2.00294E-23
1.65435E-01 1.92820E-23
1.68690E-01 1.85696E-23
1.71970E-01 1.78902E-23
1.75276E-01 1.72420E-23
1.78606E-01 1.66232E-23
1.81961E-01 1.60322E-23
1.85340E-01 1.54675E-23
1.88743E-01 1.49276E-23
1.92169E-01 1.44114E-23
1.95619E-01 1.39173E-23
1.99092E-01 1.34444E-23
2.02589E-01 1.29916E-23
2.06107E-01 1.25577E-23
2.09649E-01 1.21418E-23
2.13212E-01 1.17431E-23
2.16797E-01 1.13606E-23
2.20404E-01 1.09936E-23
2.24032E-01 1.06412E-23
2.27680E-01 1.03028E-23
2.31350E-01 9.97777E-24
2.35040E-01 9.66537E-24
2.38751E-01 9.36504E-24
2.42481E-01 9.07621E-24
2.46231E-01 8.79834E-24
2.50000E-01 8.53094E-24
2.53788E-01 8.27351E-24
2.57595E-01 8.02562E-24
2.61421E-01 7.78682E-24
2.65264E-01 7.55672E-24
2.69126E-01 7.33493E-24
2.73005E-01 7.12109E-24
2.76901E-01 6.91485E-24
2.80814E-01 6.71587E-24
2.84744E-01 6.52386E-24
2.88691E-01 6.33852E-24
2.92653E-01 6.15956E-24
2.96632E-01 5.98671E-24
3.00625E-01 5.81973E-24
3.04634E-01 5.65838E-24
3.08658E-01 5.50242E-24
3.12697E-01 5.35163E-24
3.16749E-01 5.20581E-24
3.20816E-01 5.06475E-24
3.24896E-01 4.92828E-24
3.28990E-01 4.79621E-24
3.33097E-01 4.66836E-24
3.37216E-01 4.54458E-24
3.41348E-01 4.42470E-24
3.45492E-01 4.30859E-24
3.49647E-01 4.19609E-24
3.53814E-01 4.08706E-24
3.57992E-01 3.98139E-24
3.62181E-01 3.87894E-24
3.66381E-01 3.77960E-24
3.70590E-01 3.68326E-24
3.74810E-01 3.58979E-24
3.79039E-01 3.49910E-24
3.83277E-01 3.41110E-24
3.87524E-01 3.32568E-24
3.91780E-01 3.24275E-24
3.96044E-01 3.16222E-24
4.00316E-01 3.08402E-24
4.04596E-01 3.00806E-24
4.08882E-01 2.93426E-24
4.13176E-01 2.86254E-24
4.17476E-01 2.79285E-24
4.21783E-01 2.72511E-24
4.26095E-01 2.65925E-24
4.30413E-01 2.59520E-24
4.34737E-01 2.53291E-24
4.39065E-01 2.47232E-24
4.43398E-01 2.41338E-24
4.47736E-01 2.35603E-24
4.52077E-01 2.30022E-24
4.56422E-01 2.24591E-24
4.60770E-01 2.19304E-24
4.65122E-01 2.14156E-24
4.69476E-01 2.09144E-24
4.73832E-01 2.04263E-24
4.78190E-01 1.99510E-24
4.82550E-01 1.94879E-24
4.86912E-01 1.90367E-24
4.91274E-01 1.85971E-24
4.95637E-01 1.81687E-24
5.00000E-01 1.77512E-24
5.04363E-01 1.73442E-24
5.08726E-01 1.69474E-24
5.13088E-01 1.65605E-24
5.17450E-01 1.61833E-24
5.21810E-01 1.58154E-24
5.26168E-01 1.54565E-24
5.30524E-01 1.51064E-24
5.34878E-01 1.47649E-24
5.39230E-01 1.44317E-24
5.43578E-01 1.41065E-24
5.47923E-01 1.37892E-24
5.52264E-01 1.34794E-24
5.56602E-01 1.31770E-24
5.60935E-01 1.28819E-24
5.65263E-01 1.25936E-24
5.69587E-01 1.23122E-24
5.73905E-01 1.20374E-24
5.78217E-01 1.17690E-24
5.82524E-01 1.15068E-24
5.86824E-01 1.12506E-24
5.91118E-01 1.10004E-24
5.95404E-01 1.07560E-24
5.99684E-01 1.05171E-24
6.03956E-01 1.02836E-24
6.08220E-01 1.00554E-24
6.12476E-01 9.83244E-25
6.16723E-01 9.61445E-25
6.20961E-01 9.40135E-25
6.25190E-01 9.19300E-25
6.29410E-01 8.98929E-25
6.33619E-01 8.79010E-25
6.37819E-01 8.59530E-25
6.42008E-01 8.40479E-25
6.46186E-01 8.21846E-25
6.50353E-01 8.03620E-25
6.54508E-01 7.85791E-25
6.58652E-01 7.68349E-25
6.62784E-01 7.51284E-25
6.66903E-01 7.34587E-25
6.71010E-01 7.18249E-25
6.75104E-01 7.02261E-25
6.79184E-01 6.86614E-25
6.83251E-01 6.71300E-25
6.87303E-01 6.56312E-25
6.91342E-01 6.41640E-25
6.95366E-01 6.27279E-25
6.99375E-01 6.13219E-25
7.03368E-01 5.99454E-25
7.07347E-01 5.85978E-25
7.11309E-01 5.72782E-25
7.15256E-01 5.59861E-25
7.19186E-01 5.47209E-25
7.23099E-01 5.34818E-25
7.26995E-01 5.22683E-25
7.30874E-01 5.10799E-25
7.34736E-01 4.99158E-25
7.38579E-01 4.87757E-25
7.42405E-01 4.76589E-25
7.46212E-01 4.65648E-25
7.50000E-01 4.54931E-25
7.53769E-01 4.44432E-25
7.57519E-01 4.34146E-25
7.61249E-01 4.24068E-25
7.64960E-01 4.14195E-25
7.68650E-01 4.04520E-25
7.72320E-01 3.95041E-25
7.75968E-01 3.85752E-25
7.79596E-01 3.76650E-25
7.83203E-01 3.67731E-25
7.86788E-01 3.58990E-25
7.90351E-01 3.50425E-25
7.93893E-01 3.42030E-25
7.97411E-01 3.33804E-25
8.00908E-01 3.25741E-25
8.04381E-01 3.17840E-25
8.07831E-01 3.10095E-25
8.11257E-01 3.02505E-25
8.14660E-01 2.95066E-25
8.18039E-01 2.87775E-25
8.21394E-01 2.80629E-25
8.24724E-01 2.73625E-25
8.28030E-01 2.66760E-25
8.31310E-01 2.60031E-25
8.34565E-01 2.53436E-25
8.37795E-01 2.46973E-25
8.40999E-01 2.40637E-25
8.44177E-01 2.34428E-25
8.47329E-01 2.28342E-25
8.50455E-01 2.22378E-25
8.53553E-01 2.16532E-25
8.56625E-01 2.10803E-25
8.59670E-01 2.05189E-25
8.62687E-01 1.99686E-25
8.65677E-01 1.94294E-25
8.68639E-01 1.89010E-25
8.71572E-01 1.83832E-25
8.74478E-01 1.78758E-25
8.77355E-01 1.73787E-25
8.80203E-01 1.68916E-25
8.83022E-01 1.64144E-25
8.85812E-01 1.59469E-25
8.88573E-01 1.54889E-25
8.91304E-01 1.50402E-25
8.94005E-01 1.46007E-25
8.96677E-01 1.41703E-25
8.99318E-01 1.37488E-25
9.01928E-01 1.33360E-25
9.04508E-01 1.29317E-25
9.07058E-01 1.25360E-25
9.09576E-01 1.21485E-25
9.12063E-01 1.17691E-25
9.14519E-01 1.13978E-25
9.16943E-01 1.10345E-25
9.19335E-01 1.06788E-25
9.21696E-01 1.03309E-25
9.24024E-01 9.99046E-26
9.26320E-01 9.65746E-26
9.28584E-01 9.33176E-26
9.30815E-01 9.01325E-26
9.33013E-01 8.70183E-26
9.35178E-01 8.39740E-26
9.37310E-01 8.09984E-26
9.39409E-01 7.80906E-26
9.41474E-01 7.52496E-26
9.43505E-01 7.24745E-26
9.45503E-01 6.97644E-26
9.47467E-01 6.71184E-26
9.49397E-01 6.45355E-26
9.51293E-01 6.20150E-26
9.53154E-01 5.95560E-26
9.54981E-01 5.71578E-26
9.56773E-01 5.48195E-26
9.58530E-01 5.25404E-26
9.60252E-01 5.03197E-26
9.61940E-01 4.81568E-26
9.63592E-01 4.60509E-26
9.65209E-01 4.40014E-26
9.66790E-01 4.20077E-26
9.68336E-01 4.00690E-26
9.69846E-01 3.81847E-26
9.71321E-01 3.63544E-26
9.72759E-01 3.45773E-26
9.74162E-01 3.28529E-26
9.75528E-01 3.11808E-26
9.76858E-01 2.95603E-26
9.78152E-01 2.79910E-26
9.79410E-01 2.64723E-26
9.80631E-01 2.50039E-26
9.81815E-01 2.35851E-26
9.82963E-01 2.22157E-26
9.84074E-01 2.08951E-26
9.85148E-01 1.96231E-26
9.86185E-01 1.83990E-26
9.87185E-01 1.72227E-26
9.88148E-01 1.60937E-26
9.89074E-01 1.50117E-26
9.89962E-01 1.39764E-26
9.90814E-01 1.29874E-26
9.91627E-01 1.20444E-26
9.92404E-01 1.11472E-26
9.93143E-01 1.02955E-26
9.93844E-01 9.48893E-27
9.94508E-01 8.72737E-27
9.95134E-01 8.01056E-27
9.95722E-01 7.33826E-27
9.96273E-01 6.71029E-27
9.96786E-01 6.12644E-27
9.97261E-01 5.58655E-27
9.97698E-01 5.09044E-27
9.98097E-01 4.63797E-27
9.98459E-01 4.22901E-27
9.98782E-01 3.86342E-27
9.99067E-01 3.54110E-27
9.99315E-01 3.26196E-27
9.99524E-01 3.02590E-27
9.99695E-01 2.83286E-27
9.99829E-01 2.68277E-27
9.99924E-01 2.57560E-27
9.99981E-01 2.51131E-27
1.00000E+00 2.48989E-27
