 #
 # Subroutine ELSEPA. Elastic scattering of electrons and positrons
 #                    by neutral atoms and positive ions
 #
 # Projectile: electron
 # Kinetic energy = 2.50000E+07 eV = 9.18733E+05 a.u.
 #
 # WARNING: High-energy factorization with free-atom DF screening.
 #          Absorption, polarization and exchange corrections are
 #          switched off.
 #          Phase shifts are calculated for the bare nucleus.
 #          Scattering amplitudes are not evaluated.
 #
 # Element: Eu,  Z =  63,  atomic weight = 1.51964E+02 g/mol
 #
 # Nuclear model: Fermi distribution
 #                Average radius = 5.70993E-13 cm
 #                Skin thickness = 5.46000E-14 cm
 #
 # Number of electrons = 63
 #
 # Total elastic cross section = 7.20648E-18 cm**2 = 2.57348E-01 a0**2
 # 1st transport cross section = 1.16557E-23 cm**2 = 4.16232E-07 a0**2
 # 2nd transport cross section = 3.33306E-23 cm**2 = 1.19026E-06 a0**2
 #
 #
 # Differential cross section:                       MU=(1-COS(THETA))/2
 #
 #  THETA        MU          DCS          DCS        Sherman      error
 #  (deg)                 (cm**2/sr)   (a0**2/sr)    function
 #----------------------------------------------------------------------
0.00000E+00 5.79149E-11
7.61557E-13 5.78959E-11
1.18994E-12 5.78852E-11
1.71346E-12 5.78721E-11
2.33225E-12 5.78567E-11
3.04617E-12 5.78390E-11
3.85530E-12 5.78189E-11
4.75964E-12 5.77964E-11
5.75917E-12 5.77716E-11
6.85391E-12 5.77445E-11
8.04379E-12 5.77150E-11
9.32893E-12 5.76832E-11
1.07092E-11 5.76491E-11
1.21847E-11 5.76126E-11
1.37554E-11 5.75739E-11
1.54213E-11 5.75329E-11
1.71823E-11 5.74895E-11
1.90386E-11 5.74439E-11
2.09900E-11 5.73960E-11
2.30367E-11 5.73459E-11
2.51785E-11 5.72935E-11
2.74156E-11 5.72389E-11
2.97478E-11 5.71820E-11
3.21752E-11 5.71229E-11
3.46979E-11 5.70616E-11
3.73157E-11 5.69981E-11
4.00286E-11 5.69324E-11
4.28368E-11 5.68645E-11
4.57402E-11 5.67945E-11
4.87388E-11 5.67223E-11
5.18325E-11 5.66481E-11
5.50215E-11 5.65716E-11
5.83057E-11 5.64931E-11
6.16850E-11 5.64125E-11
6.51595E-11 5.63299E-11
6.87293E-11 5.62452E-11
7.23943E-11 5.61584E-11
7.61544E-11 5.60696E-11
1.18991E-10 5.50744E-11
1.71347E-10 5.38975E-11
2.33223E-10 5.25600E-11
3.04617E-10 5.10846E-11
3.85531E-10 4.95012E-11
4.75965E-10 4.78257E-11
5.75917E-10 4.60759E-11
6.85389E-10 4.42945E-11
8.04380E-10 4.24725E-11
9.32891E-10 4.06696E-11
1.07092E-09 3.88545E-11
1.21847E-09 3.70944E-11
1.37554E-09 3.53507E-11
1.54213E-09 3.36763E-11
1.71823E-09 3.20451E-11
1.90386E-09 3.04876E-11
2.09900E-09 2.89924E-11
2.30367E-09 2.75686E-11
2.51785E-09 2.62191E-11
2.74156E-09 2.49346E-11
2.97478E-09 2.37301E-11
3.21752E-09 2.25825E-11
3.46978E-09 2.15154E-11
3.73156E-09 2.04969E-11
4.00286E-09 1.95557E-11
4.28368E-09 1.86587E-11
4.57402E-09 1.78268E-11
4.87388E-09 1.70383E-11
5.18326E-09 1.63027E-11
5.50215E-09 1.56089E-11
5.83057E-09 1.49581E-11
6.16850E-09 1.43460E-11
6.51596E-09 1.37691E-11
6.87293E-09 1.32269E-11
7.23942E-09 1.27142E-11
7.61544E-09 1.22318E-11
1.18991E-08 8.58396E-12
1.71347E-08 6.27744E-12
2.33223E-08 4.69511E-12
3.04617E-08 3.56527E-12
3.85531E-08 2.71993E-12
4.75965E-08 2.11166E-12
5.75917E-08 1.67957E-12
6.85389E-08 1.33619E-12
8.04380E-08 1.08794E-12
9.32891E-08 8.85291E-13
1.07092E-07 7.34783E-13
1.21847E-07 6.09634E-13
1.37554E-07 5.13211E-13
1.54213E-07 4.32834E-13
1.71823E-07 3.68491E-13
1.90386E-07 3.14789E-13
2.09900E-07 2.70483E-13
2.30367E-07 2.33500E-13
2.51785E-07 2.02290E-13
2.74156E-07 1.76210E-13
2.97478E-07 1.53849E-13
3.21752E-07 1.35101E-13
3.46978E-07 1.18853E-13
3.73156E-07 1.05154E-13
4.00286E-07 9.31920E-14
4.28368E-07 8.30071E-14
4.57402E-07 7.41095E-14
4.87388E-07 6.64369E-14
5.18325E-07 5.97225E-14
5.50215E-07 5.38686E-14
5.83057E-07 4.87265E-14
6.16850E-07 4.42014E-14
6.51596E-07 4.02080E-14
6.87293E-07 3.66639E-14
7.23942E-07 3.35214E-14
7.61543E-07 3.07099E-14
1.18991E-06 1.41786E-14
1.71347E-06 7.45836E-15
2.33223E-06 4.26520E-15
3.04617E-06 2.60448E-15
3.85531E-06 1.67496E-15
4.75964E-06 1.12662E-15
5.75916E-06 7.85831E-16
6.85388E-06 5.65060E-16
8.04378E-06 4.16735E-16
9.32888E-06 3.14120E-16
1.07092E-05 2.41279E-16
1.21846E-05 1.88399E-16
1.37553E-05 1.49246E-16
1.54212E-05 1.19752E-16
1.71822E-05 9.71826E-17
1.90385E-05 7.96425E-17
2.09899E-05 6.59413E-17
2.30365E-05 5.50524E-17
2.51783E-05 4.63074E-17
2.74153E-05 3.92210E-17
2.97475E-05 3.34330E-17
3.21749E-05 2.86717E-17
3.46974E-05 2.47296E-17
3.73152E-05 2.14443E-17
4.00281E-05 1.86885E-17
4.28362E-05 1.63621E-17
4.57395E-05 1.43865E-17
4.87380E-05 1.26994E-17
5.18317E-05 1.12518E-17
5.50205E-05 1.00042E-17
5.83045E-05 8.92478E-18
6.16838E-05 7.98721E-18
6.51582E-05 7.16990E-18
6.87277E-05 6.45478E-18
7.23925E-05 5.82688E-18
7.61524E-05 5.27398E-18
9.21439E-05 3.62160E-18
1.09658E-04 2.56894E-18
1.28695E-04 1.87293E-18
1.49255E-04 1.39756E-18
1.71338E-04 1.06408E-18
1.94942E-04 8.24452E-19
2.20070E-04 6.48702E-19
2.46720E-04 5.17428E-19
2.74892E-04 4.17766E-19
3.04586E-04 3.41011E-19
3.35803E-04 2.81115E-19
3.68542E-04 2.33825E-19
4.02802E-04 1.96084E-19
4.38585E-04 1.65668E-19
4.75889E-04 1.40935E-19
5.14715E-04 1.20657E-19
5.55063E-04 1.03903E-19
5.96931E-04 8.99633E-20
6.40321E-04 7.82889E-20
6.85233E-04 6.84515E-20
7.31665E-04 6.01147E-20
7.79618E-04 5.30120E-20
8.29092E-04 4.69302E-20
8.80086E-04 4.16981E-20
9.32601E-04 3.71771E-20
9.86636E-04 3.32540E-20
1.04219E-03 2.98365E-20
1.09927E-03 2.68481E-20
1.15786E-03 2.42257E-20
1.21797E-03 2.19169E-20
1.27961E-03 1.98775E-20
1.34276E-03 1.80707E-20
1.40743E-03 1.64653E-20
1.47362E-03 1.50350E-20
1.54133E-03 1.37572E-20
1.61056E-03 1.26129E-20
1.68131E-03 1.15856E-20
1.75357E-03 1.06612E-20
1.82735E-03 9.82758E-21
1.90265E-03 9.07424E-21
1.97947E-03 8.39204E-21
2.05780E-03 7.77308E-21
2.13765E-03 7.21041E-21
2.21902E-03 6.69799E-21
2.30190E-03 6.23053E-21
2.38630E-03 5.80335E-21
2.47222E-03 5.41237E-21
2.55965E-03 5.05394E-21
2.64859E-03 4.72487E-21
2.73905E-03 4.42231E-21
2.83103E-03 4.14372E-21
2.92452E-03 3.88686E-21
3.01952E-03 3.64971E-21
3.11604E-03 3.43049E-21
3.21407E-03 3.22760E-21
3.31362E-03 3.03958E-21
3.41468E-03 2.86515E-21
3.51725E-03 2.70314E-21
3.62133E-03 2.55249E-21
3.72692E-03 2.41227E-21
3.83403E-03 2.28161E-21
3.94265E-03 2.15975E-21
4.05278E-03 2.04598E-21
4.16442E-03 1.93966E-21
4.27757E-03 1.84020E-21
4.39223E-03 1.74709E-21
4.50840E-03 1.65984E-21
4.62608E-03 1.57801E-21
4.74527E-03 1.50121E-21
4.86597E-03 1.42906E-21
4.98817E-03 1.36123E-21
5.11188E-03 1.29741E-21
5.23711E-03 1.23732E-21
5.36383E-03 1.18069E-21
5.49207E-03 1.12730E-21
5.62181E-03 1.07692E-21
5.75306E-03 1.02935E-21
5.88581E-03 9.84400E-22
6.02007E-03 9.41900E-22
6.15583E-03 9.01690E-22
6.29310E-03 8.63622E-22
6.43187E-03 8.27562E-22
6.57214E-03 7.93383E-22
6.71392E-03 7.60967E-22
6.85720E-03 7.30207E-22
7.00198E-03 7.01001E-22
7.14827E-03 6.73255E-22
7.29605E-03 6.46882E-22
7.44534E-03 6.21800E-22
7.59612E-03 5.97936E-22
7.97965E-03 5.43146E-22
8.37255E-03 4.94550E-22
8.77480E-03 4.51324E-22
9.18641E-03 4.12768E-22
9.60736E-03 3.78285E-22
1.00376E-02 3.47367E-22
1.04773E-02 3.19578E-22
1.09262E-02 2.94544E-22
1.13844E-02 2.71941E-22
1.18520E-02 2.51490E-22
1.23288E-02 2.32947E-22
1.28150E-02 2.16102E-22
1.33104E-02 2.00771E-22
1.38150E-02 1.86791E-22
1.43290E-02 1.74022E-22
1.48521E-02 1.62338E-22
1.53845E-02 1.51632E-22
1.59262E-02 1.41803E-22
1.64770E-02 1.32769E-22
1.70371E-02 1.24451E-22
1.76063E-02 1.16783E-22
1.81848E-02 1.09704E-22
1.87724E-02 1.03160E-22
1.93692E-02 9.71032E-23
1.99751E-02 9.14897E-23
2.05901E-02 8.62814E-23
2.12143E-02 8.14430E-23
2.18476E-02 7.69435E-23
2.24900E-02 7.27543E-23
2.31415E-02 6.88500E-23
2.38021E-02 6.52075E-23
2.44717E-02 6.18057E-23
2.51504E-02 5.86256E-23
2.58382E-02 5.56501E-23
2.65349E-02 5.28632E-23
2.72407E-02 5.02508E-23
2.79555E-02 4.77998E-23
2.86793E-02 4.54983E-23
2.94120E-02 4.33353E-23
3.01537E-02 4.13008E-23
3.09043E-02 3.93858E-23
3.16639E-02 3.75818E-23
3.24324E-02 3.58811E-23
3.32098E-02 3.42767E-23
3.39961E-02 3.27619E-23
3.47912E-02 3.13309E-23
3.55952E-02 2.99780E-23
3.64081E-02 2.86982E-23
3.72297E-02 2.74865E-23
3.80602E-02 2.63387E-23
3.88995E-02 2.52508E-23
3.97476E-02 2.42191E-23
4.06044E-02 2.32400E-23
4.14700E-02 2.23103E-23
4.23443E-02 2.14272E-23
4.32273E-02 2.05876E-23
4.41190E-02 1.97892E-23
4.50194E-02 1.90294E-23
4.59284E-02 1.83061E-23
4.68461E-02 1.76170E-23
4.87074E-02 1.63342E-23
5.06030E-02 1.51669E-23
5.25328E-02 1.41026E-23
5.44967E-02 1.31306E-23
5.64946E-02 1.22413E-23
5.85262E-02 1.14264E-23
6.05914E-02 1.06785E-23
6.26901E-02 9.99088E-24
6.48222E-02 9.35790E-24
6.69873E-02 8.77433E-24
6.91854E-02 8.23560E-24
7.14163E-02 7.73758E-24
7.36799E-02 7.27662E-24
7.59760E-02 6.84943E-24
7.83043E-02 6.45306E-24
8.06647E-02 6.08486E-24
8.30571E-02 5.74244E-24
8.54812E-02 5.42366E-24
8.79369E-02 5.12656E-24
9.04240E-02 4.84939E-24
9.29422E-02 4.59056E-24
9.54915E-02 4.34863E-24
9.80716E-02 4.12227E-24
1.00682E-01 3.91029E-24
1.03323E-01 3.71161E-24
1.05995E-01 3.52524E-24
1.08696E-01 3.35026E-24
1.11427E-01 3.18584E-24
1.14188E-01 3.03124E-24
1.16978E-01 2.88574E-24
1.19797E-01 2.74872E-24
1.22645E-01 2.61958E-24
1.25522E-01 2.49779E-24
1.28428E-01 2.38285E-24
1.31361E-01 2.27430E-24
1.34323E-01 2.17172E-24
1.37313E-01 2.07473E-24
1.40330E-01 1.98295E-24
1.43375E-01 1.89606E-24
1.46447E-01 1.81375E-24
1.49545E-01 1.73573E-24
1.52671E-01 1.66174E-24
1.55823E-01 1.59153E-24
1.59001E-01 1.52487E-24
1.62205E-01 1.46155E-24
1.65435E-01 1.40137E-24
1.68690E-01 1.34415E-24
1.71970E-01 1.28972E-24
1.75276E-01 1.23791E-24
1.78606E-01 1.18858E-24
1.81961E-01 1.14158E-24
1.85340E-01 1.09679E-24
1.88743E-01 1.05409E-24
1.92169E-01 1.01335E-24
1.95619E-01 9.74476E-25
1.99092E-01 9.37364E-25
2.02589E-01 9.01921E-25
2.06107E-01 8.68058E-25
2.09649E-01 8.35693E-25
2.13212E-01 8.04747E-25
2.16797E-01 7.75148E-25
2.20404E-01 7.46826E-25
2.24032E-01 7.19718E-25
2.27680E-01 6.93762E-25
2.31350E-01 6.68902E-25
2.35040E-01 6.45082E-25
2.38751E-01 6.22252E-25
2.42481E-01 6.00364E-25
2.46231E-01 5.79372E-25
2.50000E-01 5.59235E-25
2.53788E-01 5.39910E-25
2.57595E-01 5.21360E-25
2.61421E-01 5.03549E-25
2.65264E-01 4.86442E-25
2.69126E-01 4.70007E-25
2.73005E-01 4.54214E-25
2.76901E-01 4.39033E-25
2.80814E-01 4.24436E-25
2.84744E-01 4.10398E-25
2.88691E-01 3.96894E-25
2.92653E-01 3.83900E-25
2.96632E-01 3.71394E-25
3.00625E-01 3.59355E-25
3.04634E-01 3.47762E-25
3.08658E-01 3.36597E-25
3.12697E-01 3.25841E-25
3.16749E-01 3.15476E-25
3.20816E-01 3.05487E-25
3.24896E-01 2.95858E-25
3.28990E-01 2.86574E-25
3.33097E-01 2.77621E-25
3.37216E-01 2.68984E-25
3.41348E-01 2.60652E-25
3.45492E-01 2.52611E-25
3.49647E-01 2.44851E-25
3.53814E-01 2.37359E-25
3.57992E-01 2.30126E-25
3.62181E-01 2.23141E-25
3.66381E-01 2.16394E-25
3.70590E-01 2.09876E-25
3.74810E-01 2.03579E-25
3.79039E-01 1.97493E-25
3.83277E-01 1.91610E-25
3.87524E-01 1.85923E-25
3.91780E-01 1.80425E-25
3.96044E-01 1.75107E-25
4.00316E-01 1.69964E-25
4.04596E-01 1.64989E-25
4.08882E-01 1.60176E-25
4.13176E-01 1.55518E-25
4.17476E-01 1.51011E-25
4.21783E-01 1.46648E-25
4.26095E-01 1.42424E-25
4.30413E-01 1.38334E-25
4.34737E-01 1.34374E-25
4.39065E-01 1.30538E-25
4.43398E-01 1.26823E-25
4.47736E-01 1.23224E-25
4.52077E-01 1.19736E-25
4.56422E-01 1.16357E-25
4.60770E-01 1.13082E-25
4.65122E-01 1.09908E-25
4.69476E-01 1.06830E-25
4.73832E-01 1.03847E-25
4.78190E-01 1.00954E-25
4.82550E-01 9.81486E-26
4.86912E-01 9.54276E-26
4.91274E-01 9.27883E-26
4.95637E-01 9.02279E-26
5.00000E-01 8.77438E-26
5.04363E-01 8.53334E-26
5.08726E-01 8.29942E-26
5.13088E-01 8.07239E-26
5.17450E-01 7.85203E-26
5.21810E-01 7.63811E-26
5.26168E-01 7.43042E-26
5.30524E-01 7.22877E-26
5.34878E-01 7.03295E-26
5.39230E-01 6.84277E-26
5.43578E-01 6.65806E-26
5.47923E-01 6.47865E-26
5.52264E-01 6.30435E-26
5.56602E-01 6.13502E-26
5.60935E-01 5.97048E-26
5.65263E-01 5.81060E-26
5.69587E-01 5.65522E-26
5.73905E-01 5.50421E-26
5.78217E-01 5.35742E-26
5.82524E-01 5.21473E-26
5.86824E-01 5.07602E-26
5.91118E-01 4.94114E-26
5.95404E-01 4.81000E-26
5.99684E-01 4.68248E-26
6.03956E-01 4.55846E-26
6.08220E-01 4.43784E-26
6.12476E-01 4.32052E-26
6.16723E-01 4.20639E-26
6.20961E-01 4.09536E-26
6.25190E-01 3.98735E-26
6.29410E-01 3.88225E-26
6.33619E-01 3.77998E-26
6.37819E-01 3.68046E-26
6.42008E-01 3.58361E-26
6.46186E-01 3.48934E-26
6.50353E-01 3.39759E-26
6.54508E-01 3.30828E-26
6.58652E-01 3.22133E-26
6.62784E-01 3.13668E-26
6.66903E-01 3.05427E-26
6.71010E-01 2.97403E-26
6.75104E-01 2.89589E-26
6.79184E-01 2.81979E-26
6.83251E-01 2.74568E-26
6.87303E-01 2.67351E-26
6.91342E-01 2.60321E-26
6.95366E-01 2.53473E-26
6.99375E-01 2.46802E-26
7.03368E-01 2.40303E-26
7.07347E-01 2.33972E-26
7.11309E-01 2.27804E-26
7.15256E-01 2.21793E-26
7.19186E-01 2.15936E-26
7.23099E-01 2.10229E-26
7.26995E-01 2.04667E-26
7.30874E-01 1.99246E-26
7.34736E-01 1.93963E-26
7.38579E-01 1.88814E-26
7.42405E-01 1.83795E-26
7.46212E-01 1.78902E-26
7.50000E-01 1.74132E-26
7.53769E-01 1.69482E-26
7.57519E-01 1.64949E-26
7.61249E-01 1.60529E-26
7.64960E-01 1.56219E-26
7.68650E-01 1.52017E-26
7.72320E-01 1.47920E-26
7.75968E-01 1.43924E-26
7.79596E-01 1.40028E-26
7.83203E-01 1.36228E-26
7.86788E-01 1.32522E-26
7.90351E-01 1.28907E-26
7.93893E-01 1.25382E-26
7.97411E-01 1.21943E-26
8.00908E-01 1.18589E-26
8.04381E-01 1.15318E-26
8.07831E-01 1.12127E-26
8.11257E-01 1.09013E-26
8.14660E-01 1.05977E-26
8.18039E-01 1.03014E-26
8.21394E-01 1.00124E-26
8.24724E-01 9.73038E-27
8.28030E-01 9.45528E-27
8.31310E-01 9.18688E-27
8.34565E-01 8.92501E-27
8.37795E-01 8.66952E-27
8.40999E-01 8.42023E-27
8.44177E-01 8.17700E-27
8.47329E-01 7.93968E-27
8.50455E-01 7.70812E-27
8.53553E-01 7.48219E-27
8.56625E-01 7.26173E-27
8.59670E-01 7.04663E-27
8.62687E-01 6.83674E-27
8.65677E-01 6.63195E-27
8.68639E-01 6.43213E-27
8.71572E-01 6.23716E-27
8.74478E-01 6.04693E-27
8.77355E-01 5.86132E-27
8.80203E-01 5.68022E-27
8.83022E-01 5.50353E-27
8.85812E-01 5.33115E-27
8.88573E-01 5.16297E-27
8.91304E-01 4.99890E-27
8.94005E-01 4.83884E-27
8.96677E-01 4.68269E-27
8.99318E-01 4.53038E-27
9.01928E-01 4.38181E-27
9.04508E-01 4.23689E-27
9.07058E-01 4.09555E-27
9.09576E-01 3.95771E-27
9.12063E-01 3.82328E-27
9.14519E-01 3.69219E-27
9.16943E-01 3.56437E-27
9.19335E-01 3.43975E-27
9.21696E-01 3.31826E-27
9.24024E-01 3.19982E-27
9.26320E-01 3.08438E-27
9.28584E-01 2.97187E-27
9.30815E-01 2.86223E-27
9.33013E-01 2.75540E-27
9.35178E-01 2.65131E-27
9.37310E-01 2.54992E-27
9.39409E-01 2.45117E-27
9.41474E-01 2.35501E-27
9.43505E-01 2.26137E-27
9.45503E-01 2.17022E-27
9.47467E-01 2.08151E-27
9.49397E-01 1.99518E-27
9.51293E-01 1.91119E-27
9.53154E-01 1.82949E-27
9.54981E-01 1.75005E-27
9.56773E-01 1.67282E-27
9.58530E-01 1.59776E-27
9.60252E-01 1.52482E-27
9.61940E-01 1.45398E-27
9.63592E-01 1.38519E-27
9.65209E-01 1.31842E-27
9.66790E-01 1.25364E-27
9.68336E-01 1.19080E-27
9.69846E-01 1.12988E-27
9.71321E-01 1.07085E-27
9.72759E-01 1.01367E-27
9.74162E-01 9.58319E-28
9.75528E-01 9.04763E-28
9.76858E-01 8.52977E-28
9.78152E-01 8.02934E-28
9.79410E-01 7.54608E-28
9.80631E-01 7.07975E-28
9.81815E-01 6.63011E-28
9.82963E-01 6.19693E-28
9.84074E-01 5.77999E-28
9.85148E-01 5.37908E-28
9.86185E-01 4.99400E-28
9.87185E-01 4.62455E-28
9.88148E-01 4.27055E-28
9.89074E-01 3.93181E-28
9.89962E-01 3.60817E-28
9.90814E-01 3.29947E-28
9.91627E-01 3.00554E-28
9.92404E-01 2.72625E-28
9.93143E-01 2.46145E-28
9.93844E-01 2.21101E-28
9.94508E-01 1.97480E-28
9.95134E-01 1.75272E-28
9.95722E-01 1.54464E-28
9.96273E-01 1.35046E-28
9.96786E-01 1.17009E-28
9.97261E-01 1.00344E-28
9.97698E-01 8.50421E-29
9.98097E-01 7.10961E-29
9.98459E-01 5.84990E-29
9.98782E-01 4.72447E-29
9.99067E-01 3.73274E-29
9.99315E-01 2.87423E-29
9.99524E-01 2.14852E-29
9.99695E-01 1.55524E-29
9.99829E-01 1.09411E-29
9.99924E-01 7.64893E-30
9.99981E-01 5.67428E-30
1.00000E+00 5.01617E-30
