 #
 # Subroutine ELSEPA. Elastic scattering of electrons and positrons
 #                    by neutral atoms and positive ions
 #
 # Projectile: electron
 # Kinetic energy = 5.00000E+08 eV = 1.83747E+07 a.u.
 #
 # WARNING: High-energy factorization with free-atom DF screening.
 #          Absorption, polarization and exchange corrections are
 #          switched off.
 #          Phase shifts are calculated for the bare nucleus.
 #          Scattering amplitudes are not evaluated.
 #
 # Element: Eu,  Z =  63,  atomic weight = 1.51964E+02 g/mol
 #
 # Nuclear model: Fermi distribution
 #                Average radius = 5.70993E-13 cm
 #                Skin thickness = 5.46000E-14 cm
 #
 # Number of electrons = 63
 #
 # Total elastic cross section = 7.18632E-18 cm**2 = 2.56628E-01 a0**2
 # 1st transport cross section = 3.05833E-26 cm**2 = 1.09215E-09 a0**2
 # 2nd transport cross section = 9.17148E-26 cm**2 = 3.27519E-09 a0**2
 #
 #
 # Differential cross section:                       MU=(1-COS(THETA))/2
 #
 #  THETA        MU          DCS          DCS        Sherman      error
 #  (deg)                 (cm**2/sr)   (a0**2/sr)    function
 #----------------------------------------------------------------------
0.00000E+00 2.22927E-08
7.61557E-13 1.97519E-08
1.18994E-12 1.85330E-08
1.71346E-12 1.72063E-08
2.33225E-12 1.58379E-08
3.04617E-12 1.44815E-08
3.85530E-12 1.31781E-08
4.75964E-12 1.19560E-08
5.75917E-12 1.08319E-08
6.85391E-12 9.81527E-09
8.04379E-12 8.90459E-09
9.32893E-12 8.09359E-09
1.07092E-11 7.37477E-09
1.21847E-11 6.73912E-09
1.37554E-11 6.17727E-09
1.54213E-11 5.68013E-09
1.71823E-11 5.23923E-09
1.90386E-11 4.84693E-09
2.09900E-11 4.49652E-09
2.30367E-11 4.18217E-09
2.51785E-11 3.89887E-09
2.74156E-11 3.64220E-09
2.97478E-11 3.40864E-09
3.21752E-11 3.19527E-09
3.46979E-11 2.99959E-09
3.73157E-11 2.81951E-09
4.00286E-11 2.65327E-09
4.28368E-11 2.49937E-09
4.57402E-11 2.35653E-09
4.87388E-11 2.22368E-09
5.18325E-11 2.09987E-09
5.50215E-11 1.98431E-09
5.83057E-11 1.87605E-09
6.16850E-11 1.77471E-09
6.51595E-11 1.67979E-09
6.87293E-11 1.59082E-09
7.23943E-11 1.50734E-09
7.61544E-11 1.42898E-09
1.18991E-10 8.50057E-10
1.71347E-10 5.40229E-10
2.33223E-10 3.58990E-10
3.04617E-10 2.47832E-10
3.85531E-10 1.76391E-10
4.75965E-10 1.28590E-10
5.75917E-10 9.55868E-11
6.85389E-10 7.21952E-11
8.04380E-10 5.53788E-11
9.32891E-10 4.31284E-11
1.07092E-09 3.40728E-11
1.21847E-09 2.72855E-11
1.37554E-09 2.21289E-11
1.54213E-09 1.81587E-11
1.71823E-09 1.50619E-11
1.90386E-09 1.26156E-11
2.09900E-09 1.06605E-11
2.30367E-09 9.08195E-12
2.51785E-09 7.78500E-12
2.74156E-09 6.71528E-12
2.97478E-09 5.82642E-12
3.21752E-09 5.08185E-12
3.46978E-09 4.45337E-12
3.73156E-09 3.91914E-12
4.00286E-09 3.46218E-12
4.28368E-09 3.06916E-12
4.57402E-09 2.72957E-12
4.87388E-09 2.43497E-12
5.18326E-09 2.17850E-12
5.50215E-09 1.95453E-12
5.83057E-09 1.75820E-12
6.16850E-09 1.58573E-12
6.51596E-09 1.43375E-12
6.87293E-09 1.29943E-12
7.23942E-09 1.18036E-12
7.61544E-09 1.07450E-12
1.18991E-08 4.65129E-13
1.71347E-08 2.33265E-13
2.33223E-08 1.29728E-13
3.04617E-08 7.78021E-14
3.85531E-08 4.94484E-14
4.75965E-08 3.29039E-14
5.75917E-08 2.27256E-14
6.85389E-08 1.61886E-14
8.04380E-08 1.18386E-14
9.32891E-08 8.85462E-15
1.07092E-07 6.75304E-15
1.21847E-07 5.23911E-15
1.37554E-07 4.12649E-15
1.54213E-07 3.29410E-15
1.71823E-07 2.66137E-15
1.90386E-07 2.17357E-15
2.09900E-07 1.79262E-15
2.30367E-07 1.49162E-15
2.51785E-07 1.25125E-15
2.74156E-07 1.05743E-15
2.97478E-07 8.99744E-16
3.21752E-07 7.70393E-16
3.46978E-07 6.63483E-16
3.73156E-07 5.74499E-16
4.00286E-07 4.99947E-16
4.28368E-07 4.37107E-16
4.57402E-07 3.83839E-16
4.87388E-07 3.38444E-16
5.18325E-07 2.99565E-16
5.50215E-07 2.66112E-16
5.83057E-07 2.37201E-16
6.16850E-07 2.12111E-16
6.51596E-07 1.90251E-16
6.87293E-07 1.71136E-16
7.23942E-07 1.54362E-16
7.61543E-07 1.39592E-16
1.18991E-06 5.74772E-17
1.71347E-06 2.78069E-17
2.33223E-06 1.50405E-17
3.04617E-06 8.82903E-18
3.85531E-06 5.51765E-18
4.75964E-06 3.62300E-18
5.75916E-06 2.47613E-18
6.85388E-06 1.74922E-18
8.04378E-06 1.27054E-18
9.32888E-06 9.44973E-19
1.07092E-05 7.17326E-19
1.21846E-05 5.54291E-19
1.37553E-05 4.35060E-19
1.54212E-05 3.46236E-19
1.71822E-05 2.78971E-19
1.90385E-05 2.27180E-19
2.09899E-05 1.87039E-19
2.30365E-05 1.55368E-19
2.51783E-05 1.30098E-19
2.74153E-05 1.09742E-19
2.97475E-05 9.32057E-20
3.21749E-05 7.96699E-20
3.46974E-05 6.85105E-20
3.73152E-05 5.92460E-20
4.00281E-05 5.15018E-20
4.28362E-05 4.49854E-20
4.57395E-05 3.94681E-20
4.87380E-05 3.47700E-20
5.18317E-05 3.07489E-20
5.50205E-05 2.72915E-20
5.83045E-05 2.43063E-20
6.16838E-05 2.17187E-20
6.51582E-05 1.94673E-20
6.87277E-05 1.75010E-20
7.23925E-05 1.57774E-20
7.61524E-05 1.43941E-20
9.21439E-05 9.84473E-21
1.09658E-04 6.95798E-21
1.28695E-04 5.05570E-21
1.49255E-04 3.76022E-21
1.71338E-04 2.85377E-21
1.94942E-04 2.20393E-21
2.20070E-04 1.72832E-21
2.46720E-04 1.37378E-21
2.74892E-04 1.10512E-21
3.04586E-04 8.98594E-22
3.35803E-04 7.37717E-22
3.68542E-04 6.10931E-22
4.02802E-04 5.09933E-22
4.38585E-04 4.28693E-22
4.75889E-04 3.62764E-22
5.14715E-04 3.08820E-22
5.55063E-04 2.64352E-22
5.96931E-04 2.27440E-22
6.40321E-04 1.96603E-22
6.85233E-04 1.70688E-22
7.31665E-04 1.48788E-22
7.79618E-04 1.30186E-22
8.29092E-04 1.14309E-22
8.80086E-04 1.00696E-22
9.32601E-04 8.89761E-23
9.86636E-04 7.88450E-23
1.04219E-03 7.00549E-23
1.09927E-03 6.24016E-23
1.15786E-03 5.57160E-23
1.21797E-03 4.98576E-23
1.27961E-03 4.47087E-23
1.34276E-03 4.01708E-23
1.40743E-03 3.61610E-23
1.47362E-03 3.26087E-23
1.54133E-03 2.94545E-23
1.61056E-03 2.66472E-23
1.68131E-03 2.41435E-23
1.75357E-03 2.19059E-23
1.82735E-03 1.99022E-23
1.90265E-03 1.81048E-23
1.97947E-03 1.64895E-23
2.05780E-03 1.50354E-23
2.13765E-03 1.37244E-23
2.21902E-03 1.25406E-23
2.30190E-03 1.14701E-23
2.38630E-03 1.05006E-23
2.47222E-03 9.62160E-24
2.55965E-03 8.82350E-24
2.64859E-03 8.09801E-24
2.73905E-03 7.43777E-24
2.83103E-03 6.83624E-24
2.92452E-03 6.28761E-24
3.01952E-03 5.78674E-24
3.11604E-03 5.32902E-24
3.21407E-03 4.91034E-24
3.31362E-03 4.52704E-24
3.41468E-03 4.17582E-24
3.51725E-03 3.85375E-24
3.62133E-03 3.55817E-24
3.72692E-03 3.28671E-24
3.83403E-03 3.03722E-24
3.94265E-03 2.80777E-24
4.05278E-03 2.59661E-24
4.16442E-03 2.40216E-24
4.27757E-03 2.22300E-24
4.39223E-03 2.05783E-24
4.50840E-03 1.90548E-24
4.62608E-03 1.76488E-24
4.74527E-03 1.63506E-24
4.86597E-03 1.51515E-24
4.98817E-03 1.40433E-24
5.11188E-03 1.30187E-24
5.23711E-03 1.20711E-24
5.36383E-03 1.11943E-24
5.49207E-03 1.03828E-24
5.62181E-03 9.63149E-25
5.75306E-03 8.93563E-25
5.88581E-03 8.29096E-25
6.02007E-03 7.69355E-25
6.15583E-03 7.13980E-25
6.29310E-03 6.62638E-25
6.43187E-03 6.15026E-25
6.57214E-03 5.70863E-25
6.71392E-03 5.29891E-25
6.85720E-03 4.91874E-25
7.00198E-03 4.56592E-25
7.14827E-03 4.23844E-25
7.29605E-03 3.93444E-25
7.44534E-03 3.65220E-25
7.59612E-03 3.39014E-25
7.97965E-03 2.81392E-25
8.37255E-03 2.33493E-25
8.77480E-03 1.93669E-25
9.18641E-03 1.60557E-25
9.60736E-03 1.33030E-25
1.00376E-02 1.10154E-25
1.04773E-02 9.11537E-26
1.09262E-02 7.53821E-26
1.13844E-02 6.23017E-26
1.18520E-02 5.14637E-26
1.23288E-02 4.24936E-26
1.28150E-02 3.50785E-26
1.33104E-02 2.89572E-26
1.38150E-02 2.39111E-26
1.43290E-02 1.97575E-26
1.48521E-02 1.63438E-26
1.53845E-02 1.35427E-26
1.59262E-02 1.12476E-26
1.64770E-02 9.36983E-27
1.70371E-02 7.83547E-27
1.76063E-02 6.58301E-27
1.81848E-02 5.56136E-27
1.87724E-02 4.72816E-27
1.93692E-02 4.04839E-27
1.99751E-02 3.49313E-27
2.05901E-02 3.03859E-27
2.12143E-02 2.66525E-27
2.18476E-02 2.35716E-27
2.24900E-02 2.10131E-27
2.31415E-02 1.88717E-27
2.38021E-02 1.70625E-27
2.44717E-02 1.55171E-27
2.51504E-02 1.41811E-27
2.58382E-02 1.30113E-27
2.65349E-02 1.19739E-27
2.72407E-02 1.10422E-27
2.79555E-02 1.01959E-27
2.86793E-02 9.41914E-28
2.94120E-02 8.70018E-28
3.01537E-02 8.03011E-28
3.09043E-02 7.40239E-28
3.16639E-02 6.81227E-28
3.24324E-02 6.25634E-28
3.32098E-02 5.73219E-28
3.39961E-02 5.23811E-28
3.47912E-02 4.77289E-28
3.55952E-02 4.33566E-28
3.64081E-02 3.92571E-28
3.72297E-02 3.54245E-28
3.80602E-02 3.18531E-28
3.88995E-02 2.85369E-28
3.97476E-02 2.54693E-28
4.06044E-02 2.26431E-28
4.14700E-02 2.00503E-28
4.23443E-02 1.76818E-28
4.32273E-02 1.55281E-28
4.41190E-02 1.35788E-28
4.50194E-02 1.18229E-28
4.59284E-02 1.02491E-28
4.68461E-02 8.84570E-29
4.87074E-02 6.50309E-29
5.06030E-02 4.70102E-29
5.25328E-02 3.34875E-29
5.44967E-02 2.36179E-29
5.64946E-02 1.66390E-29
5.85262E-02 1.18834E-29
6.05914E-02 8.78362E-30
6.26901E-02 6.87083E-30
6.48222E-02 5.76928E-30
6.69873E-02 5.18752E-30
6.91854E-02 4.90789E-30
7.14163E-02 4.77507E-30
7.36799E-02 4.68475E-30
7.59760E-02 4.57282E-30
7.83043E-02 4.40563E-30
8.06647E-02 4.17153E-30
8.30571E-02 3.87368E-30
8.54812E-02 3.52434E-30
8.79369E-02 3.14042E-30
9.04240E-02 2.74014E-30
9.29422E-02 2.34077E-30
9.54915E-02 1.95719E-30
9.80716E-02 1.60112E-30
1.00682E-01 1.28083E-30
1.03323E-01 1.00125E-30
1.05995E-01 7.64377E-31
1.08696E-01 5.69681E-31
1.11427E-01 4.14725E-31
1.14188E-01 2.95701E-31
1.16978E-01 2.07950E-31
1.19797E-01 1.46417E-31
1.22645E-01 1.06020E-31
1.25522E-01 8.19352E-32
1.28428E-01 6.97979E-32
1.31361E-01 6.58287E-32
1.34323E-01 6.68935E-32
1.37313E-01 7.05115E-32
1.40330E-01 7.48232E-32
1.43375E-01 7.85300E-32
1.46447E-01 8.08162E-32
1.49545E-01 8.12632E-32
1.52671E-01 7.97616E-32
1.55823E-01 7.64290E-32
1.59001E-01 7.15345E-32
1.62205E-01 6.54354E-32
1.65435E-01 5.85245E-32
1.68690E-01 5.11901E-32
1.71970E-01 4.37867E-32
1.75276E-01 3.66162E-32
1.78606E-01 2.99179E-32
1.81961E-01 2.38648E-32
1.85340E-01 1.85662E-32
1.88743E-01 1.40738E-32
1.92169E-01 1.03899E-32
1.95619E-01 7.47759E-33
1.99092E-01 5.27064E-33
2.02589E-01 3.68330E-33
2.06107E-01 2.61904E-33
2.09649E-01 1.97806E-33
2.13212E-01 1.66330E-33
2.16797E-01 1.58501E-33
2.20404E-01 1.66387E-33
2.24032E-01 1.83282E-33
2.27680E-01 2.03785E-33
2.31350E-01 2.23776E-33
2.35040E-01 2.40344E-33
2.38751E-01 2.51644E-33
2.42481E-01 2.56747E-33
2.46231E-01 2.55459E-33
2.50000E-01 2.48147E-33
2.53788E-01 2.35576E-33
2.57595E-01 2.18761E-33
2.61421E-01 1.98836E-33
2.65264E-01 1.76952E-33
2.69126E-01 1.54198E-33
2.73005E-01 1.31542E-33
2.76901E-01 1.09796E-33
2.80814E-01 8.95957E-34
2.84744E-01 7.13995E-34
2.88691E-01 5.54941E-34
2.92653E-01 4.20124E-34
2.96632E-01 3.09549E-34
3.00625E-01 2.22152E-34
3.04634E-01 1.56052E-34
3.08658E-01 1.08809E-34
3.12697E-01 7.76486E-35
3.16749E-01 5.96671E-35
3.20816E-01 5.19956E-35
3.24896E-01 5.19327E-35
3.28990E-01 5.70395E-35
3.33097E-01 6.52025E-35
3.37216E-01 7.46666E-35
3.41348E-01 8.40433E-35
3.45492E-01 9.22987E-35
3.49647E-01 9.87264E-35
3.53814E-01 1.02910E-34
3.57992E-01 1.04680E-34
3.62181E-01 1.04063E-34
3.66381E-01 1.01240E-34
3.70590E-01 9.64988E-35
3.74810E-01 9.01948E-35
3.79039E-01 8.27165E-35
3.83277E-01 7.44563E-35
3.87524E-01 6.57879E-35
3.91780E-01 5.70493E-35
3.96044E-01 4.85316E-35
4.00316E-01 4.04726E-35
4.04596E-01 3.30542E-35
4.08882E-01 2.64035E-35
4.13176E-01 2.05968E-35
4.17476E-01 1.56644E-35
4.21783E-01 1.15981E-35
4.26095E-01 8.35773E-36
4.30413E-01 5.87915E-36
4.34737E-01 4.08107E-36
4.39065E-01 2.87166E-36
4.43398E-01 2.15443E-36
4.47736E-01 1.83304E-36
4.52077E-01 1.81531E-36
4.56422E-01 2.01622E-36
4.60770E-01 2.35998E-36
4.65122E-01 2.78142E-36
4.69476E-01 3.22651E-36
4.73832E-01 3.65239E-36
4.78190E-01 4.02692E-36
4.82550E-01 4.32777E-36
4.86912E-01 4.54141E-36
4.91274E-01 4.66183E-36
4.95637E-01 4.68922E-36
5.00000E-01 4.62869E-36
5.04363E-01 4.48901E-36
5.08726E-01 4.28143E-36
5.13088E-01 4.01871E-36
5.17450E-01 3.71416E-36
5.21810E-01 3.38099E-36
5.26168E-01 3.03171E-36
5.30524E-01 2.67768E-36
5.34878E-01 2.32884E-36
5.39230E-01 1.99355E-36
5.43578E-01 1.67848E-36
5.47923E-01 1.38866E-36
5.52264E-01 1.12754E-36
5.56602E-01 8.97124E-37
5.60935E-01 6.98159E-37
5.65263E-01 5.30289E-37
5.69587E-01 3.92269E-37
5.73905E-01 2.82157E-37
5.78217E-01 1.97494E-37
5.82524E-01 1.35485E-37
5.86824E-01 9.31441E-38
5.91118E-01 6.74281E-38
5.95404E-01 5.53489E-38
5.99684E-01 5.40610E-38
6.03956E-01 6.09259E-38
6.08220E-01 7.35630E-38
6.12476E-01 8.98761E-38
6.16723E-01 1.08075E-37
6.20961E-01 1.26668E-37
6.25190E-01 1.44462E-37
6.29410E-01 1.60543E-37
6.33619E-01 1.74246E-37
6.37819E-01 1.85139E-37
6.42008E-01 1.92984E-37
6.46186E-01 1.97717E-37
6.50353E-01 1.99399E-37
6.54508E-01 1.98213E-37
6.58652E-01 1.94411E-37
6.62784E-01 1.88308E-37
6.66903E-01 1.80251E-37
6.71010E-01 1.70601E-37
6.75104E-01 1.59723E-37
6.79184E-01 1.47966E-37
6.83251E-01 1.35662E-37
6.87303E-01 1.23109E-37
6.91342E-01 1.10576E-37
6.95366E-01 9.82932E-38
6.99375E-01 8.64535E-38
7.03368E-01 7.52139E-38
7.07347E-01 6.46954E-38
7.11309E-01 5.49855E-38
7.15256E-01 4.61406E-38
7.19186E-01 3.81908E-38
7.23099E-01 3.11423E-38
7.26995E-01 2.49802E-38
7.30874E-01 1.96740E-38
7.34736E-01 1.00000E-45
7.38579E-01 1.00000E-45
7.42405E-01 1.00000E-45
7.46212E-01 1.00000E-45
7.50000E-01 1.00000E-45
7.53769E-01 1.00000E-45
7.57519E-01 1.00000E-45
7.61249E-01 1.00000E-45
7.64960E-01 1.00000E-45
7.68650E-01 1.00000E-45
7.72320E-01 1.00000E-45
7.75968E-01 1.00000E-45
7.79596E-01 1.00000E-45
7.83203E-01 1.00000E-45
7.86788E-01 1.00000E-45
7.90351E-01 1.00000E-45
7.93893E-01 1.00000E-45
7.97411E-01 1.00000E-45
8.00908E-01 1.00000E-45
8.04381E-01 1.00000E-45
8.07831E-01 1.00000E-45
8.11257E-01 1.00000E-45
8.14660E-01 1.00000E-45
8.18039E-01 1.00000E-45
8.21394E-01 1.00000E-45
8.24724E-01 1.00000E-45
8.28030E-01 1.00000E-45
8.31310E-01 1.00000E-45
8.34565E-01 1.00000E-45
8.37795E-01 1.00000E-45
8.40999E-01 1.00000E-45
8.44177E-01 1.00000E-45
8.47329E-01 1.00000E-45
8.50455E-01 1.00000E-45
8.53553E-01 1.00000E-45
8.56625E-01 1.00000E-45
8.59670E-01 1.00000E-45
8.62687E-01 1.00000E-45
8.65677E-01 1.00000E-45
8.68639E-01 1.00000E-45
8.71572E-01 1.00000E-45
8.74478E-01 1.00000E-45
8.77355E-01 1.00000E-45
8.80203E-01 1.00000E-45
8.83022E-01 1.00000E-45
8.85812E-01 1.00000E-45
8.88573E-01 1.00000E-45
8.91304E-01 1.00000E-45
8.94005E-01 1.00000E-45
8.96677E-01 1.00000E-45
8.99318E-01 1.00000E-45
9.01928E-01 1.00000E-45
9.04508E-01 1.00000E-45
9.07058E-01 1.00000E-45
9.09576E-01 1.00000E-45
9.12063E-01 1.00000E-45
9.14519E-01 1.00000E-45
9.16943E-01 1.00000E-45
9.19335E-01 1.00000E-45
9.21696E-01 1.00000E-45
9.24024E-01 1.00000E-45
9.26320E-01 1.00000E-45
9.28584E-01 1.00000E-45
9.30815E-01 1.00000E-45
9.33013E-01 1.00000E-45
9.35178E-01 1.00000E-45
9.37310E-01 1.00000E-45
9.39409E-01 1.00000E-45
9.41474E-01 1.00000E-45
9.43505E-01 1.00000E-45
9.45503E-01 1.00000E-45
9.47467E-01 1.00000E-45
9.49397E-01 1.00000E-45
9.51293E-01 1.00000E-45
9.53154E-01 1.00000E-45
9.54981E-01 1.00000E-45
9.56773E-01 1.00000E-45
9.58530E-01 1.00000E-45
9.60252E-01 1.00000E-45
9.61940E-01 1.00000E-45
9.63592E-01 1.00000E-45
9.65209E-01 1.00000E-45
9.66790E-01 1.00000E-45
9.68336E-01 1.00000E-45
9.69846E-01 1.00000E-45
9.71321E-01 1.00000E-45
9.72759E-01 1.00000E-45
9.74162E-01 1.00000E-45
9.75528E-01 1.00000E-45
9.76858E-01 1.00000E-45
9.78152E-01 1.00000E-45
9.79410E-01 1.00000E-45
9.80631E-01 1.00000E-45
9.81815E-01 1.00000E-45
9.82963E-01 1.00000E-45
9.84074E-01 1.00000E-45
9.85148E-01 1.00000E-45
9.86185E-01 1.00000E-45
9.87185E-01 1.00000E-45
9.88148E-01 1.00000E-45
9.89074E-01 1.00000E-45
9.89962E-01 1.00000E-45
9.90814E-01 1.00000E-45
9.91627E-01 1.00000E-45
9.92404E-01 1.00000E-45
9.93143E-01 1.00000E-45
9.93844E-01 1.00000E-45
9.94508E-01 1.00000E-45
9.95134E-01 1.00000E-45
9.95722E-01 1.00000E-45
9.96273E-01 1.00000E-45
9.96786E-01 1.00000E-45
9.97261E-01 1.00000E-45
9.97698E-01 1.00000E-45
9.98097E-01 1.00000E-45
9.98459E-01 1.00000E-45
9.98782E-01 1.00000E-45
9.99067E-01 1.00000E-45
9.99315E-01 1.00000E-45
9.99524E-01 1.00000E-45
9.99695E-01 1.00000E-45
9.99829E-01 1.00000E-45
9.99924E-01 1.00000E-45
9.99981E-01 1.00000E-45
1.00000E+00 1.00000E-45
