 #
 # Subroutine ELSEPA. Elastic scattering of electrons and positrons
 #                    by neutral atoms and positive ions
 #
 # Projectile: electron
 # Kinetic energy = 2.50000E+08 eV = 9.18733E+06 a.u.
 #
 # WARNING: High-energy factorization with free-atom DF screening.
 #          Absorption, polarization and exchange corrections are
 #          switched off.
 #          Phase shifts are calculated for the bare nucleus.
 #          Scattering amplitudes are not evaluated.
 #
 # Element: Eu,  Z =  63,  atomic weight = 1.51964E+02 g/mol
 #
 # Nuclear model: Fermi distribution
 #                Average radius = 5.70993E-13 cm
 #                Skin thickness = 5.46000E-14 cm
 #
 # Number of electrons = 63
 #
 # Total elastic cross section = 7.20201E-18 cm**2 = 2.57188E-01 a0**2
 # 1st transport cross section = 1.22486E-25 cm**2 = 4.37404E-09 a0**2
 # 2nd transport cross section = 3.66916E-25 cm**2 = 1.31028E-08 a0**2
 #
 #
 # Differential cross section:                       MU=(1-COS(THETA))/2
 #
 #  THETA        MU          DCS          DCS        Sherman      error
 #  (deg)                 (cm**2/sr)   (a0**2/sr)    function
 #----------------------------------------------------------------------
0.00000E+00 5.58456E-09
7.61557E-13 5.41271E-09
1.18994E-12 5.31991E-09
1.71346E-12 5.21005E-09
2.33225E-12 5.08501E-09
3.04617E-12 4.94690E-09
3.85530E-12 4.79822E-09
4.75964E-12 4.64109E-09
5.75917E-12 4.47591E-09
6.85391E-12 4.30829E-09
8.04379E-12 4.13609E-09
9.32893E-12 3.96513E-09
1.07092E-11 3.79338E-09
1.21847E-11 3.62506E-09
1.37554E-11 3.45944E-09
1.54213E-11 3.29837E-09
1.71823E-11 3.14283E-09
1.90386E-11 2.99215E-09
2.09900E-11 2.84905E-09
2.30367E-11 2.71057E-09
2.51785E-11 2.58094E-09
2.74156E-11 2.45584E-09
2.97478E-11 2.33932E-09
3.21752E-11 2.22780E-09
3.46979E-11 2.12354E-09
3.73157E-11 2.02478E-09
4.00286E-11 1.93201E-09
4.28368E-11 1.84486E-09
4.57402E-11 1.76259E-09
4.87388E-11 1.68578E-09
5.18325E-11 1.61294E-09
5.50215E-11 1.54519E-09
5.83057E-11 1.48078E-09
6.16850E-11 1.42080E-09
6.51595E-11 1.36388E-09
6.87293E-11 1.31048E-09
7.23943E-11 1.25998E-09
7.61544E-11 1.21233E-09
1.18991E-10 8.52489E-10
1.71347E-10 6.24984E-10
2.33223E-10 4.69051E-10
3.04617E-10 3.57204E-10
3.85531E-10 2.74062E-10
4.75965E-10 2.12436E-10
5.75917E-10 1.69919E-10
6.85389E-10 1.34976E-10
8.04380E-10 1.09970E-10
9.32891E-10 8.96791E-11
1.07092E-09 7.43221E-11
1.21847E-09 6.19025E-11
1.37554E-09 5.20439E-11
1.54213E-09 4.40526E-11
1.71823E-09 3.74623E-11
1.90386E-09 3.21105E-11
2.09900E-09 2.75653E-11
2.30367E-09 2.38664E-11
2.51785E-09 2.06604E-11
2.74156E-09 1.80275E-11
2.97478E-09 1.57406E-11
3.21752E-09 1.38269E-11
3.46978E-09 1.21757E-11
3.73156E-09 1.07674E-11
4.00286E-09 9.55476E-12
4.28368E-09 8.50618E-12
4.57402E-09 7.60175E-12
4.87388E-09 6.81155E-12
5.18326E-09 6.12719E-12
5.50215E-09 5.52418E-12
5.83057E-09 4.99890E-12
6.16850E-09 4.53307E-12
6.51596E-09 4.12394E-12
6.87293E-09 3.76000E-12
7.23942E-09 3.43737E-12
7.61544E-09 3.14932E-12
1.18991E-08 1.45450E-12
1.71347E-08 7.66106E-13
2.33223E-08 4.38844E-13
3.04617E-08 2.68177E-13
3.85531E-08 1.72578E-13
4.75965E-08 1.16082E-13
5.75917E-08 8.09680E-14
6.85389E-08 5.82165E-14
8.04380E-08 4.29433E-14
9.32891E-08 3.23765E-14
1.07092E-07 2.48683E-14
1.21847E-07 1.94169E-14
1.37554E-07 1.53810E-14
1.54213E-07 1.23408E-14
1.71823E-07 1.00152E-14
1.90386E-07 8.21181E-15
2.09900E-07 6.79597E-15
2.30367E-07 5.67157E-15
2.51785E-07 4.76990E-15
2.74156E-07 4.04017E-15
2.97478E-07 3.44456E-15
3.21752E-07 2.95459E-15
3.46978E-07 2.54859E-15
3.73156E-07 2.20989E-15
4.00286E-07 1.92552E-15
4.28368E-07 1.68540E-15
4.57402E-07 1.48154E-15
4.87388E-07 1.30758E-15
5.18325E-07 1.15840E-15
5.50215E-07 1.02990E-15
5.83057E-07 9.18735E-16
6.16850E-07 8.22162E-16
6.51596E-07 7.37950E-16
6.87293E-07 6.64253E-16
7.23942E-07 5.99533E-16
7.61543E-07 5.42511E-16
1.18991E-06 2.24589E-16
1.71347E-06 1.09117E-16
2.33223E-06 5.92187E-17
3.04617E-06 3.48530E-17
3.85531E-06 2.18250E-17
4.75964E-06 1.43532E-17
5.75916E-06 9.82170E-18
6.85388E-06 6.94516E-18
8.04378E-06 5.04852E-18
9.32888E-06 3.75723E-18
1.07092E-05 2.85357E-18
1.21846E-05 2.20595E-18
1.37553E-05 1.73205E-18
1.54212E-05 1.37884E-18
1.71822E-05 1.11125E-18
1.90385E-05 9.05139E-19
2.09899E-05 7.45348E-19
2.30365E-05 6.19239E-19
2.51783E-05 5.18596E-19
2.74153E-05 4.37506E-19
2.97475E-05 3.71621E-19
3.21749E-05 3.17683E-19
3.46974E-05 2.73208E-19
3.73152E-05 2.36281E-19
4.00281E-05 2.05409E-19
4.28362E-05 1.79431E-19
4.57395E-05 1.57433E-19
4.87380E-05 1.38699E-19
5.18317E-05 1.22665E-19
5.50205E-05 1.08876E-19
5.83045E-05 9.69706E-20
6.16838E-05 8.66503E-20
6.51582E-05 7.76701E-20
6.87277E-05 6.98269E-20
7.23925E-05 6.29517E-20
7.61524E-05 5.71466E-20
9.21439E-05 3.90930E-20
1.09658E-04 2.76432E-20
1.28695E-04 2.01009E-20
1.49255E-04 1.49658E-20
1.71338E-04 1.13732E-20
1.94942E-04 8.79774E-21
2.20070E-04 6.91263E-21
2.46720E-04 5.50706E-21
2.74892E-04 4.44155E-21
3.04586E-04 3.62201E-21
3.35803E-04 2.98319E-21
3.68542E-04 2.47932E-21
4.02802E-04 2.07749E-21
4.38585E-04 1.75385E-21
4.75889E-04 1.49084E-21
5.14715E-04 1.27531E-21
5.55063E-04 1.09733E-21
5.96931E-04 9.49296E-22
6.40321E-04 8.25364E-22
6.85233E-04 7.20969E-22
7.31665E-04 6.32524E-22
7.79618E-04 5.57192E-22
8.29092E-04 4.92706E-22
8.80086E-04 4.37243E-22
9.32601E-04 3.89330E-22
9.86636E-04 3.47765E-22
1.04219E-03 3.11567E-22
1.09927E-03 2.79924E-22
1.15786E-03 2.52166E-22
1.21797E-03 2.27735E-22
1.27961E-03 2.06164E-22
1.34276E-03 1.87060E-22
1.40743E-03 1.70094E-22
1.47362E-03 1.54984E-22
1.54133E-03 1.41494E-22
1.61056E-03 1.29419E-22
1.68131E-03 1.18585E-22
1.75357E-03 1.08844E-22
1.82735E-03 1.00065E-22
1.90265E-03 9.21368E-23
1.97947E-03 8.49635E-23
2.05780E-03 7.84606E-23
2.13765E-03 7.25545E-23
2.21902E-03 6.71812E-23
2.30190E-03 6.22842E-23
2.38630E-03 5.78140E-23
2.47222E-03 5.37272E-23
2.55965E-03 4.99852E-23
2.64859E-03 4.65539E-23
2.73905E-03 4.34031E-23
2.83103E-03 4.05061E-23
2.92452E-03 3.78388E-23
3.01952E-03 3.53800E-23
3.11604E-03 3.31106E-23
3.21407E-03 3.10136E-23
3.31362E-03 2.90736E-23
3.41468E-03 2.72770E-23
3.51725E-03 2.56114E-23
3.62133E-03 2.40656E-23
3.72692E-03 2.26296E-23
3.83403E-03 2.12943E-23
3.94265E-03 2.00514E-23
4.05278E-03 1.88936E-23
4.16442E-03 1.78140E-23
4.27757E-03 1.68065E-23
4.39223E-03 1.58655E-23
4.50840E-03 1.49859E-23
4.62608E-03 1.41631E-23
4.74527E-03 1.33928E-23
4.86597E-03 1.26711E-23
4.98817E-03 1.19944E-23
5.11188E-03 1.13596E-23
5.23711E-03 1.07636E-23
5.36383E-03 1.02036E-23
5.49207E-03 9.67723E-24
5.62181E-03 9.18208E-24
5.75306E-03 8.71602E-24
5.88581E-03 8.27708E-24
6.02007E-03 7.86345E-24
6.15583E-03 7.47345E-24
6.29310E-03 7.10553E-24
6.43187E-03 6.75825E-24
6.57214E-03 6.43028E-24
6.71392E-03 6.12039E-24
6.85720E-03 5.82745E-24
7.00198E-03 5.55038E-24
7.14827E-03 5.28821E-24
7.29605E-03 5.04001E-24
7.44534E-03 4.80495E-24
7.59612E-03 4.58223E-24
7.97965E-03 4.07468E-24
8.37255E-03 3.62954E-24
8.77480E-03 3.23819E-24
9.18641E-03 2.89335E-24
9.60736E-03 2.58884E-24
1.00376E-02 2.31941E-24
1.04773E-02 2.08055E-24
1.09262E-02 1.86843E-24
1.13844E-02 1.67972E-24
1.18520E-02 1.51158E-24
1.23288E-02 1.36153E-24
1.28150E-02 1.22744E-24
1.33104E-02 1.10745E-24
1.38150E-02 9.99949E-25
1.43290E-02 9.03510E-25
1.48521E-02 8.16903E-25
1.53845E-02 7.39041E-25
1.59262E-02 6.68972E-25
1.64770E-02 6.05856E-25
1.70371E-02 5.48953E-25
1.76063E-02 4.97610E-25
1.81848E-02 4.51245E-25
1.87724E-02 4.09347E-25
1.93692E-02 3.71459E-25
1.99751E-02 3.37175E-25
2.05901E-02 3.06135E-25
2.12143E-02 2.78015E-25
2.18476E-02 2.52529E-25
2.24900E-02 2.29418E-25
2.31415E-02 2.08452E-25
2.38021E-02 1.89424E-25
2.44717E-02 1.72150E-25
2.51504E-02 1.56462E-25
2.58382E-02 1.42210E-25
2.65349E-02 1.29260E-25
2.72407E-02 1.17490E-25
2.79555E-02 1.06790E-25
2.86793E-02 9.70615E-26
2.94120E-02 8.82151E-26
3.01537E-02 8.01697E-26
3.09043E-02 7.28522E-26
3.16639E-02 6.61964E-26
3.24324E-02 6.01423E-26
3.32098E-02 5.46353E-26
3.39961E-02 4.96262E-26
3.47912E-02 4.50702E-26
3.55952E-02 4.09265E-26
3.64081E-02 3.71581E-26
3.72297E-02 3.37315E-26
3.80602E-02 3.06160E-26
3.88995E-02 2.77839E-26
3.97476E-02 2.52098E-26
4.06044E-02 2.28708E-26
4.14700E-02 2.07457E-26
4.23443E-02 1.88155E-26
4.32273E-02 1.70628E-26
4.41190E-02 1.54716E-26
4.50194E-02 1.40275E-26
4.59284E-02 1.27174E-26
4.68461E-02 1.15291E-26
4.87074E-02 9.47522E-27
5.06030E-02 7.78918E-27
5.25328E-02 6.40719E-27
5.44967E-02 5.27619E-27
5.64946E-02 4.35206E-27
5.85262E-02 3.59814E-27
6.05914E-02 2.98399E-27
6.26901E-02 2.48438E-27
6.48222E-02 2.07840E-27
6.69873E-02 1.74876E-27
6.91854E-02 1.48118E-27
7.14163E-02 1.26392E-27
7.36799E-02 1.08732E-27
7.59760E-02 9.43458E-28
7.83043E-02 8.25874E-28
8.06647E-02 7.29306E-28
8.30571E-02 6.49490E-28
8.54812E-02 5.82980E-28
8.79369E-02 5.27011E-28
9.04240E-02 4.79373E-28
9.29422E-02 4.38310E-28
9.54915E-02 4.02438E-28
9.80716E-02 3.70673E-28
1.00682E-01 3.42173E-28
1.03323E-01 3.16292E-28
1.05995E-01 2.92536E-28
1.08696E-01 2.70535E-28
1.11427E-01 2.50014E-28
1.14188E-01 2.30773E-28
1.16978E-01 2.12665E-28
1.19797E-01 1.95588E-28
1.22645E-01 1.79470E-28
1.25522E-01 1.64260E-28
1.28428E-01 1.49924E-28
1.31361E-01 1.36435E-28
1.34323E-01 1.23774E-28
1.37313E-01 1.11924E-28
1.40330E-01 1.00868E-28
1.43375E-01 9.05892E-29
1.46447E-01 8.10672E-29
1.49545E-01 7.22807E-29
1.52671E-01 6.42056E-29
1.55823E-01 5.68149E-29
1.59001E-01 5.00795E-29
1.62205E-01 4.39682E-29
1.65435E-01 3.84481E-29
1.68690E-01 3.34848E-29
1.71970E-01 2.90434E-29
1.75276E-01 2.50884E-29
1.78606E-01 2.15842E-29
1.81961E-01 1.84957E-29
1.85340E-01 1.57882E-29
1.88743E-01 1.34282E-29
1.92169E-01 1.13832E-29
1.95619E-01 9.62219E-30
1.99092E-01 8.11580E-30
2.02589E-01 6.83619E-30
2.06107E-01 5.75739E-30
2.09649E-01 4.85519E-30
2.13212E-01 4.10726E-30
2.16797E-01 3.49311E-30
2.20404E-01 2.99404E-30
2.24032E-01 2.59312E-30
2.27680E-01 2.27515E-30
2.31350E-01 2.02653E-30
2.35040E-01 1.83519E-30
2.38751E-01 1.69054E-30
2.42481E-01 1.58331E-30
2.46231E-01 1.50549E-30
2.50000E-01 1.45021E-30
2.53788E-01 1.41164E-30
2.57595E-01 1.38491E-30
2.61421E-01 1.36596E-30
2.65264E-01 1.35153E-30
2.69126E-01 1.33898E-30
2.73005E-01 1.32628E-30
2.76901E-01 1.31190E-30
2.80814E-01 1.29473E-30
2.84744E-01 1.27404E-30
2.88691E-01 1.24941E-30
2.92653E-01 1.22065E-30
2.96632E-01 1.18779E-30
3.00625E-01 1.15103E-30
3.04634E-01 1.11067E-30
3.08658E-01 1.06713E-30
3.12697E-01 1.02087E-30
3.16749E-01 9.72384E-31
3.20816E-01 9.22202E-31
3.24896E-01 8.70843E-31
3.28990E-01 8.18817E-31
3.33097E-01 7.66608E-31
3.37216E-01 7.14669E-31
3.41348E-01 6.63416E-31
3.45492E-01 6.13222E-31
3.49647E-01 5.64416E-31
3.53814E-01 5.17281E-31
3.57992E-01 4.72055E-31
3.62181E-01 4.28929E-31
3.66381E-01 3.88056E-31
3.70590E-01 3.49545E-31
3.74810E-01 3.13468E-31
3.79039E-01 2.79864E-31
3.83277E-01 2.48739E-31
3.87524E-01 2.20074E-31
3.91780E-01 1.93824E-31
3.96044E-01 1.69923E-31
4.00316E-01 1.48289E-31
4.04596E-01 1.28824E-31
4.08882E-01 1.11420E-31
4.13176E-01 9.59600E-32
4.17476E-01 8.23206E-32
4.21783E-01 7.03746E-32
4.26095E-01 5.99933E-32
4.30413E-01 5.10477E-32
4.34737E-01 4.34106E-32
4.39065E-01 3.69575E-32
4.43398E-01 3.15681E-32
4.47736E-01 2.71270E-32
4.52077E-01 2.35245E-32
4.56422E-01 2.06571E-32
4.60770E-01 1.84281E-32
4.65122E-01 1.67475E-32
4.69476E-01 1.55325E-32
4.73832E-01 1.47073E-32
4.78190E-01 1.42031E-32
4.82550E-01 1.39580E-32
4.86912E-01 1.39168E-32
4.91274E-01 1.40304E-32
4.95637E-01 1.42561E-32
5.00000E-01 1.45565E-32
5.04363E-01 1.48999E-32
5.08726E-01 1.52592E-32
5.13088E-01 1.56120E-32
5.17450E-01 1.59401E-32
5.21810E-01 1.62290E-32
5.26168E-01 1.64674E-32
5.30524E-01 1.66470E-32
5.34878E-01 1.67625E-32
5.39230E-01 1.68103E-32
5.43578E-01 1.67893E-32
5.47923E-01 1.66997E-32
5.52264E-01 1.65433E-32
5.56602E-01 1.63230E-32
5.60935E-01 1.60426E-32
5.65263E-01 1.57065E-32
5.69587E-01 1.53199E-32
5.73905E-01 1.48880E-32
5.78217E-01 1.44165E-32
5.82524E-01 1.39111E-32
5.86824E-01 1.33775E-32
5.91118E-01 1.28211E-32
5.95404E-01 1.22475E-32
5.99684E-01 1.16618E-32
6.03956E-01 1.10687E-32
6.08220E-01 1.04729E-32
6.12476E-01 9.87848E-33
6.16723E-01 9.28928E-33
6.20961E-01 8.70871E-33
6.25190E-01 8.13983E-33
6.29410E-01 7.58528E-33
6.33619E-01 7.04737E-33
6.37819E-01 6.52805E-33
6.42008E-01 6.02890E-33
6.46186E-01 5.55121E-33
6.50353E-01 5.09595E-33
6.54508E-01 4.66382E-33
6.58652E-01 4.25525E-33
6.62784E-01 3.87046E-33
6.66903E-01 3.50944E-33
6.71010E-01 3.17199E-33
6.75104E-01 2.85776E-33
6.79184E-01 2.56623E-33
6.83251E-01 2.29680E-33
6.87303E-01 2.04871E-33
6.91342E-01 1.82117E-33
6.95366E-01 1.61329E-33
6.99375E-01 1.42412E-33
7.03368E-01 1.25269E-33
7.07347E-01 1.09802E-33
7.11309E-01 9.59068E-34
7.15256E-01 8.34835E-34
7.19186E-01 7.24309E-34
7.23099E-01 6.26494E-34
7.26995E-01 5.40418E-34
7.30874E-01 4.65134E-34
7.34736E-01 3.99728E-34
7.38579E-01 3.43324E-34
7.42405E-01 2.95085E-34
7.46212E-01 2.54213E-34
7.50000E-01 2.19958E-34
7.53769E-01 1.91610E-34
7.57519E-01 1.68508E-34
7.61249E-01 1.50033E-34
7.64960E-01 1.35614E-34
7.68650E-01 1.24720E-34
7.72320E-01 1.16865E-34
7.75968E-01 1.11606E-34
7.79596E-01 1.08537E-34
7.83203E-01 1.07292E-34
7.86788E-01 1.07540E-34
7.90351E-01 1.08986E-34
7.93893E-01 1.11367E-34
7.97411E-01 1.14449E-34
8.00908E-01 1.18027E-34
8.04381E-01 1.21924E-34
8.07831E-01 1.25985E-34
8.11257E-01 1.30077E-34
8.14660E-01 1.34091E-34
8.18039E-01 1.37931E-34
8.21394E-01 1.41523E-34
8.24724E-01 1.44806E-34
8.28030E-01 1.47731E-34
8.31310E-01 1.50263E-34
8.34565E-01 1.52377E-34
8.37795E-01 1.54058E-34
8.40999E-01 1.55298E-34
8.44177E-01 1.56096E-34
8.47329E-01 1.56458E-34
8.50455E-01 1.56395E-34
8.53553E-01 1.55921E-34
8.56625E-01 1.55055E-34
8.59670E-01 1.53816E-34
8.62687E-01 1.52228E-34
8.65677E-01 1.50315E-34
8.68639E-01 1.48103E-34
8.71572E-01 1.45617E-34
8.74478E-01 1.42884E-34
8.77355E-01 1.39931E-34
8.80203E-01 1.36782E-34
8.83022E-01 1.33463E-34
8.85812E-01 1.29999E-34
8.88573E-01 1.26413E-34
8.91304E-01 1.22727E-34
8.94005E-01 1.18963E-34
8.96677E-01 1.15141E-34
8.99318E-01 1.11279E-34
9.01928E-01 1.07396E-34
9.04508E-01 1.03506E-34
9.07058E-01 9.96260E-35
9.09576E-01 9.57683E-35
9.12063E-01 9.19456E-35
9.14519E-01 8.81689E-35
9.16943E-01 8.44481E-35
9.19335E-01 8.07919E-35
9.21696E-01 7.72081E-35
9.24024E-01 7.37031E-35
9.26320E-01 7.02829E-35
9.28584E-01 6.69520E-35
9.30815E-01 6.37143E-35
9.33013E-01 6.05729E-35
9.35178E-01 5.75305E-35
9.37310E-01 5.45886E-35
9.39409E-01 5.17483E-35
9.41474E-01 4.90101E-35
9.43505E-01 4.63744E-35
9.45503E-01 4.38404E-35
9.47467E-01 4.14075E-35
9.49397E-01 3.90747E-35
9.51293E-01 3.68402E-35
9.53154E-01 3.47026E-35
9.54981E-01 3.26598E-35
9.56773E-01 3.07096E-35
9.58530E-01 2.88497E-35
9.60252E-01 2.70778E-35
9.61940E-01 2.53910E-35
9.63592E-01 2.37869E-35
9.65209E-01 2.22627E-35
9.66790E-01 2.08157E-35
9.68336E-01 1.94430E-35
9.69846E-01 1.81419E-35
9.71321E-01 1.69096E-35
9.72759E-01 1.57433E-35
9.74162E-01 1.46404E-35
9.75528E-01 1.35981E-35
9.76858E-01 1.26138E-35
9.78152E-01 1.16850E-35
9.79410E-01 1.08092E-35
9.80631E-01 9.98388E-36
9.81815E-01 9.20674E-36
9.82963E-01 8.47555E-36
9.84074E-01 7.78806E-36
9.85148E-01 7.14216E-36
9.86185E-01 6.53593E-36
9.87185E-01 5.96736E-36
9.88148E-01 5.43457E-36
9.89074E-01 4.93587E-36
9.89962E-01 4.46950E-36
9.90814E-01 4.03396E-36
9.91627E-01 3.62771E-36
9.92404E-01 3.24929E-36
9.93143E-01 2.89740E-36
9.93844E-01 2.57075E-36
9.94508E-01 2.26816E-36
9.95134E-01 1.98852E-36
9.95722E-01 1.73080E-36
9.96273E-01 1.49404E-36
9.96786E-01 1.27735E-36
9.97261E-01 1.07988E-36
9.97698E-01 9.00915E-37
9.98097E-01 7.39768E-37
9.98459E-01 5.95805E-37
9.98782E-01 4.68450E-37
9.99067E-01 3.57223E-37
9.99315E-01 2.61706E-37
9.99524E-01 1.81518E-37
9.99695E-01 1.16337E-37
9.99829E-01 6.58981E-38
9.99924E-01 3.00168E-38
9.99981E-01 8.55119E-39
1.00000E+00 1.41000E-39
