 #
 # Subroutine ELSEPA. Elastic scattering of electrons and positrons
 #                    by neutral atoms and positive ions
 #
 # Projectile: electron
 # Kinetic energy = 4.50000E+08 eV = 1.65372E+07 a.u.
 #
 # WARNING: High-energy factorization with free-atom DF screening.
 #          Absorption, polarization and exchange corrections are
 #          switched off.
 #          Phase shifts are calculated for the bare nucleus.
 #          Scattering amplitudes are not evaluated.
 #
 # Element: Eu,  Z =  63,  atomic weight = 1.51964E+02 g/mol
 #
 # Nuclear model: Fermi distribution
 #                Average radius = 5.70993E-13 cm
 #                Skin thickness = 5.46000E-14 cm
 #
 # Number of electrons = 63
 #
 # Total elastic cross section = 7.19340E-18 cm**2 = 2.56881E-01 a0**2
 # 1st transport cross section = 3.77657E-26 cm**2 = 1.34864E-09 a0**2
 # 2nd transport cross section = 1.13244E-25 cm**2 = 4.04401E-09 a0**2
 #
 #
 # Differential cross section:                       MU=(1-COS(THETA))/2
 #
 #  THETA        MU          DCS          DCS        Sherman      error
 #  (deg)                 (cm**2/sr)   (a0**2/sr)    function
 #----------------------------------------------------------------------
0.00000E+00 1.80612E-08
7.61557E-13 1.63622E-08
1.18994E-12 1.55220E-08
1.71346E-12 1.45891E-08
2.33225E-12 1.36072E-08
3.04617E-12 1.26091E-08
3.85530E-12 1.16243E-08
4.75964E-12 1.06756E-08
5.75917E-12 9.77948E-09
6.85391E-12 8.95159E-09
8.04379E-12 8.19205E-09
9.32893E-12 7.50066E-09
1.07092E-11 6.87579E-09
1.21847E-11 6.31391E-09
1.37554E-11 5.81115E-09
1.54213E-11 5.36300E-09
1.71823E-11 4.96137E-09
1.90386E-11 4.60118E-09
2.09900E-11 4.27774E-09
2.30367E-11 3.98668E-09
2.51785E-11 3.72426E-09
2.74156E-11 3.48642E-09
2.97478E-11 3.27001E-09
3.21752E-11 3.07250E-09
3.46979E-11 2.89165E-09
3.73157E-11 2.72550E-09
4.00286E-11 2.57188E-09
4.28368E-11 2.42975E-09
4.57402E-11 2.29794E-09
4.87388E-11 2.17539E-09
5.18325E-11 2.06121E-09
5.50215E-11 1.95432E-09
5.83057E-11 1.85404E-09
6.16850E-11 1.76008E-09
6.51595E-11 1.67192E-09
6.87293E-11 1.58911E-09
7.23943E-11 1.51123E-09
7.61544E-11 1.43752E-09
1.18991E-10 8.88321E-10
1.71347E-10 5.75265E-10
2.33223E-10 3.85831E-10
3.04617E-10 2.69104E-10
3.85531E-10 1.93645E-10
4.75965E-10 1.42861E-10
5.75917E-10 1.07504E-10
6.85389E-10 8.19497E-11
8.04380E-10 6.33970E-11
9.32891E-10 4.97264E-11
1.07092E-09 3.94981E-11
1.21847E-09 3.17451E-11
1.37554E-09 2.57939E-11
1.54213E-09 2.11732E-11
1.71823E-09 1.75618E-11
1.90386E-09 1.47062E-11
2.09900E-09 1.24234E-11
2.30367E-09 1.05796E-11
2.51785E-09 9.07316E-12
2.74156E-09 7.83442E-12
2.97478E-09 6.80254E-12
3.21752E-09 5.93743E-12
3.46978E-09 5.20855E-12
3.73156E-09 4.59023E-12
4.00286E-09 4.06105E-12
4.28368E-09 3.60664E-12
4.57402E-09 3.21423E-12
4.87388E-09 2.87361E-12
5.18326E-09 2.57657E-12
5.50215E-09 2.31613E-12
5.83057E-09 2.08705E-12
6.16850E-09 1.88530E-12
6.51596E-09 1.70710E-12
6.87293E-09 1.54928E-12
7.23942E-09 1.40914E-12
7.61544E-09 1.28421E-12
1.18991E-08 5.60006E-13
1.71347E-08 2.81656E-13
2.33223E-08 1.56935E-13
3.04617E-08 9.43231E-14
3.85531E-08 6.00705E-14
4.75965E-08 4.00455E-14
5.75917E-08 2.77043E-14
6.85389E-08 1.97648E-14
8.04380E-08 1.44717E-14
9.32891E-08 1.08347E-14
1.07092E-07 8.26997E-15
1.21847E-07 6.42021E-15
1.37554E-07 5.05937E-15
1.54213E-07 4.04048E-15
1.71823E-07 3.26553E-15
1.90386E-07 2.66773E-15
2.09900E-07 2.20068E-15
2.30367E-07 1.83153E-15
2.51785E-07 1.53667E-15
2.74156E-07 1.29884E-15
2.97478E-07 1.10532E-15
3.21752E-07 9.46553E-16
3.46978E-07 8.15307E-16
3.73156E-07 7.06050E-16
4.00286E-07 6.14504E-16
4.28368E-07 5.37331E-16
4.57402E-07 4.71905E-16
4.87388E-07 4.16144E-16
5.18325E-07 3.68382E-16
5.50215E-07 3.27280E-16
5.83057E-07 2.91755E-16
6.16850E-07 2.60922E-16
6.51596E-07 2.34057E-16
6.87293E-07 2.10561E-16
7.23942E-07 1.89941E-16
7.61543E-07 1.71784E-16
1.18991E-06 7.07890E-17
1.71347E-06 3.42662E-17
2.33223E-06 1.85415E-17
3.04617E-06 1.08872E-17
3.85531E-06 6.80521E-18
4.75964E-06 4.46909E-18
5.75916E-06 3.05471E-18
6.85388E-06 2.15814E-18
8.04378E-06 1.56765E-18
9.32888E-06 1.16601E-18
1.07092E-05 8.85153E-19
1.21846E-05 6.83997E-19
1.37553E-05 5.36881E-19
1.54212E-05 4.27278E-19
1.71822E-05 3.44276E-19
1.90385E-05 2.80365E-19
2.09899E-05 2.30830E-19
2.30365E-05 1.91747E-19
2.51783E-05 1.60562E-19
2.74153E-05 1.35440E-19
2.97475E-05 1.15033E-19
3.21749E-05 9.83276E-20
3.46974E-05 8.45554E-20
3.73152E-05 7.31216E-20
4.00281E-05 6.35638E-20
4.28362E-05 5.55216E-20
4.57395E-05 4.87123E-20
4.87380E-05 4.29140E-20
5.18317E-05 3.79511E-20
5.50205E-05 3.36839E-20
5.83045E-05 2.99996E-20
6.16838E-05 2.68059E-20
6.51582E-05 2.40272E-20
6.87277E-05 2.16003E-20
7.23925E-05 1.94731E-20
7.61524E-05 1.77537E-20
9.21439E-05 1.21445E-20
1.09658E-04 8.58578E-21
1.28695E-04 6.24067E-21
1.49255E-04 4.64346E-21
1.71338E-04 3.52581E-21
1.94942E-04 2.72450E-21
2.20070E-04 2.13795E-21
2.46720E-04 1.70064E-21
2.74892E-04 1.36918E-21
3.04586E-04 1.11431E-21
3.35803E-04 9.15709E-22
3.68542E-04 7.59140E-22
4.02802E-04 6.34366E-22
4.38585E-04 5.33955E-22
4.75889E-04 4.52427E-22
5.14715E-04 3.85683E-22
5.55063E-04 3.30630E-22
5.96931E-04 2.84901E-22
6.40321E-04 2.46671E-22
6.85233E-04 2.14518E-22
7.31665E-04 1.87325E-22
7.79618E-04 1.64207E-22
8.29092E-04 1.44457E-22
8.80086E-04 1.27508E-22
9.32601E-04 1.12899E-22
9.86636E-04 1.00258E-22
1.04219E-03 8.92777E-23
1.09927E-03 7.97058E-23
1.15786E-03 7.13338E-23
1.21797E-03 6.39880E-23
1.27961E-03 5.75231E-23
1.34276E-03 5.18174E-23
1.40743E-03 4.67681E-23
1.47362E-03 4.22882E-23
1.54133E-03 3.83038E-23
1.61056E-03 3.47520E-23
1.68131E-03 3.15787E-23
1.75357E-03 2.87378E-23
1.82735E-03 2.61892E-23
1.90265E-03 2.38987E-23
1.97947E-03 2.18362E-23
2.05780E-03 1.99759E-23
2.13765E-03 1.82951E-23
2.21902E-03 1.67741E-23
2.30190E-03 1.53957E-23
2.38630E-03 1.41447E-23
2.47222E-03 1.30076E-23
2.55965E-03 1.19728E-23
2.64859E-03 1.10299E-23
2.73905E-03 1.01696E-23
2.83103E-03 9.38373E-24
2.92452E-03 8.66513E-24
3.01952E-03 8.00728E-24
3.11604E-03 7.40444E-24
3.21407E-03 6.85145E-24
3.31362E-03 6.34370E-24
3.41468E-03 5.87708E-24
3.51725E-03 5.44786E-24
3.62133E-03 5.05271E-24
3.72692E-03 4.68865E-24
3.83403E-03 4.35295E-24
3.94265E-03 4.04318E-24
4.05278E-03 3.75713E-24
4.16442E-03 3.49280E-24
4.27757E-03 3.24838E-24
4.39223E-03 3.02223E-24
4.50840E-03 2.81285E-24
4.62608E-03 2.61888E-24
4.74527E-03 2.43909E-24
4.86597E-03 2.27236E-24
4.98817E-03 2.11765E-24
5.11188E-03 1.97402E-24
5.23711E-03 1.84063E-24
5.36383E-03 1.71667E-24
5.49207E-03 1.60144E-24
5.62181E-03 1.49428E-24
5.75306E-03 1.39457E-24
5.88581E-03 1.30178E-24
6.02007E-03 1.21538E-24
6.15583E-03 1.13490E-24
6.29310E-03 1.05993E-24
6.43187E-03 9.90046E-25
6.57214E-03 9.24898E-25
6.71392E-03 8.64145E-25
6.85720E-03 8.07474E-25
7.00198E-03 7.54597E-25
7.14827E-03 7.05249E-25
7.29605E-03 6.59183E-25
7.44534E-03 6.16171E-25
7.59612E-03 5.76004E-25
7.97965E-03 4.86781E-25
8.37255E-03 4.11469E-25
8.77480E-03 3.47842E-25
9.18641E-03 2.94049E-25
9.60736E-03 2.48546E-25
1.00376E-02 2.10040E-25
1.04773E-02 1.77447E-25
1.09262E-02 1.49856E-25
1.13844E-02 1.26502E-25
1.18520E-02 1.06736E-25
1.23288E-02 9.00128E-26
1.28150E-02 7.58701E-26
1.33104E-02 6.39163E-26
1.38150E-02 5.38191E-26
1.43290E-02 4.52969E-26
1.48521E-02 3.81102E-26
1.53845E-02 3.20555E-26
1.59262E-02 2.69600E-26
1.64770E-02 2.26764E-26
1.70371E-02 1.90797E-26
1.76063E-02 1.60634E-26
1.81848E-02 1.35371E-26
1.87724E-02 1.14238E-26
1.93692E-02 9.65826E-27
1.99751E-02 8.18491E-27
2.05901E-02 6.95675E-27
2.12143E-02 5.93390E-27
2.18476E-02 5.08264E-27
2.24900E-02 4.37446E-27
2.31415E-02 3.78533E-27
2.38021E-02 3.29498E-27
2.44717E-02 2.88641E-27
2.51504E-02 2.54536E-27
2.58382E-02 2.25988E-27
2.65349E-02 2.02003E-27
2.72407E-02 1.81755E-27
2.79555E-02 1.64558E-27
2.86793E-02 1.49848E-27
2.94120E-02 1.37159E-27
3.01537E-02 1.26111E-27
3.09043E-02 1.16395E-27
3.16639E-02 1.07760E-27
3.24324E-02 1.00006E-27
3.32098E-02 9.29711E-28
3.39961E-02 8.65276E-28
3.47912E-02 8.05753E-28
3.55952E-02 7.50359E-28
3.64081E-02 6.98490E-28
3.72297E-02 6.49686E-28
3.80602E-02 6.03599E-28
3.88995E-02 5.59970E-28
3.97476E-02 5.18607E-28
4.06044E-02 4.79371E-28
4.14700E-02 4.42161E-28
4.23443E-02 4.06901E-28
4.32273E-02 3.73536E-28
4.41190E-02 3.42022E-28
4.50194E-02 3.12323E-28
4.59284E-02 2.84403E-28
4.68461E-02 2.58229E-28
4.87074E-02 2.10966E-28
5.06030E-02 1.70194E-28
5.25328E-02 1.35505E-28
5.44967E-02 1.06422E-28
5.64946E-02 8.24161E-29
5.85262E-02 6.29248E-29
6.05914E-02 4.73760E-29
6.26901E-02 3.52060E-29
6.48222E-02 2.58766E-29
6.69873E-02 1.88882E-29
6.91854E-02 1.37884E-29
7.14163E-02 1.01772E-29
7.36799E-02 7.70921E-30
7.59760E-02 6.09316E-30
7.83043E-02 5.08913E-30
8.06647E-02 4.50462E-30
8.30571E-02 4.18952E-30
8.54812E-02 4.03064E-30
8.79369E-02 3.94608E-30
9.04240E-02 3.87973E-30
9.29422E-02 3.79610E-30
9.54915E-02 3.67568E-30
9.80716E-02 3.51082E-30
1.00682E-01 3.30223E-30
1.03323E-01 3.05613E-30
1.05995E-01 2.78186E-30
1.08696E-01 2.49016E-30
1.11427E-01 2.19183E-30
1.14188E-01 1.89681E-30
1.16978E-01 1.61360E-30
1.19797E-01 1.34897E-30
1.22645E-01 1.10783E-30
1.25522E-01 8.93345E-31
1.28428E-01 7.07017E-31
1.31361E-01 5.48974E-31
1.34323E-01 4.18204E-31
1.37313E-01 3.12835E-31
1.40330E-01 2.30389E-31
1.43375E-01 1.68020E-31
1.46447E-01 1.22720E-31
1.49545E-01 9.14864E-32
1.52671E-01 7.14539E-32
1.55823E-01 5.99920E-32
1.59001E-01 5.47679E-32
1.62205E-01 5.37827E-32
1.65435E-01 5.53830E-32
1.68690E-01 5.82538E-32
1.71970E-01 6.13964E-32
1.75276E-01 6.40974E-32
1.78606E-01 6.58907E-32
1.81961E-01 6.65171E-32
1.85340E-01 6.58831E-32
1.88743E-01 6.40218E-32
1.92169E-01 6.10576E-32
1.95619E-01 5.71741E-32
1.99092E-01 5.25873E-32
2.02589E-01 4.75244E-32
2.06107E-01 4.22060E-32
2.09649E-01 3.68346E-32
2.13212E-01 3.15856E-32
2.16797E-01 2.66028E-32
2.20404E-01 2.19966E-32
2.24032E-01 1.78443E-32
2.27680E-01 1.41923E-32
2.31350E-01 1.10596E-32
2.35040E-01 8.44172E-33
2.38751E-01 6.31559E-33
2.42481E-01 4.64367E-33
2.46231E-01 3.37856E-33
2.50000E-01 2.46681E-33
2.53788E-01 1.85244E-33
2.57595E-01 1.47976E-33
2.61421E-01 1.29571E-33
2.65264E-01 1.25151E-33
2.69126E-01 1.30387E-33
2.73005E-01 1.41565E-33
2.76901E-01 1.55615E-33
2.80814E-01 1.70102E-33
2.84744E-01 1.83195E-33
2.88691E-01 1.93614E-33
2.92653E-01 2.00560E-33
2.96632E-01 2.03646E-33
3.00625E-01 2.02819E-33
3.04634E-01 1.98286E-33
3.08658E-01 1.90444E-33
3.12697E-01 1.79814E-33
3.16749E-01 1.66992E-33
3.20816E-01 1.52595E-33
3.24896E-01 1.37229E-33
3.28990E-01 1.21459E-33
3.33097E-01 1.05786E-33
3.37216E-01 9.06372E-34
3.41348E-01 7.63581E-34
3.45492E-01 6.32102E-34
3.49647E-01 5.13749E-34
3.53814E-01 4.09589E-34
3.57992E-01 3.20030E-34
3.62181E-01 2.44910E-34
3.66381E-01 1.83609E-34
3.70590E-01 1.35148E-34
3.74810E-01 9.82912E-35
3.79039E-01 7.16375E-35
3.83277E-01 5.37033E-35
3.87524E-01 4.29925E-35
3.91780E-01 3.80538E-35
3.96044E-01 3.75265E-35
4.00316E-01 4.01733E-35
4.04596E-01 4.49025E-35
4.08882E-01 5.07803E-35
4.13176E-01 5.70348E-35
4.17476E-01 6.30526E-35
4.21783E-01 6.83705E-35
4.26095E-01 7.26630E-35
4.30413E-01 7.57264E-35
4.34737E-01 7.74619E-35
4.39065E-01 7.78582E-35
4.43398E-01 7.69734E-35
4.47736E-01 7.49184E-35
4.52077E-01 7.18417E-35
4.56422E-01 6.79152E-35
4.60770E-01 6.33222E-35
4.65122E-01 5.82479E-35
4.69476E-01 5.28705E-35
4.73832E-01 4.73555E-35
4.78190E-01 4.18510E-35
4.82550E-01 3.64851E-35
4.86912E-01 3.13638E-35
4.91274E-01 2.65710E-35
4.95637E-01 2.21688E-35
5.00000E-01 1.81992E-35
5.04363E-01 1.46852E-35
5.08726E-01 1.16338E-35
5.13088E-01 9.03787E-36
5.17450E-01 6.87870E-36
5.21810E-01 5.12864E-36
5.26168E-01 3.75336E-36
5.30524E-01 2.71397E-36
5.34878E-01 1.96901E-36
5.39230E-01 1.47615E-36
5.43578E-01 1.19358E-36
5.47923E-01 1.08120E-36
5.52264E-01 1.10154E-36
5.56602E-01 1.22034E-36
5.60935E-01 1.40709E-36
5.65263E-01 1.63521E-36
5.69587E-01 1.88217E-36
5.73905E-01 2.12938E-36
5.78217E-01 2.36208E-36
5.82524E-01 2.56903E-36
5.86824E-01 2.74220E-36
5.91118E-01 2.87645E-36
5.95404E-01 2.96908E-36
5.99684E-01 3.01950E-36
6.03956E-01 3.02882E-36
6.08220E-01 2.99951E-36
6.12476E-01 2.93503E-36
6.16723E-01 2.83955E-36
6.20961E-01 2.71771E-36
6.25190E-01 2.57432E-36
6.29410E-01 2.41422E-36
6.33619E-01 2.24210E-36
6.37819E-01 2.06239E-36
6.42008E-01 1.87915E-36
6.46186E-01 1.69601E-36
6.50353E-01 1.51614E-36
6.54508E-01 1.34223E-36
6.58652E-01 1.17646E-36
6.62784E-01 1.02058E-36
6.66903E-01 8.75849E-37
6.71010E-01 7.43154E-37
6.75104E-01 6.22988E-37
6.79184E-01 5.15524E-37
6.83251E-01 4.20653E-37
6.87303E-01 3.38029E-37
6.91342E-01 2.67113E-37
6.95366E-01 2.07218E-37
6.99375E-01 1.57543E-37
7.03368E-01 1.17212E-37
7.07347E-01 8.53056E-38
7.11309E-01 6.08858E-38
7.15256E-01 4.30206E-38
7.19186E-01 3.08027E-38
7.23099E-01 2.33655E-38
7.26995E-01 1.98950E-38
7.30874E-01 1.96377E-38
7.34736E-01 2.19068E-38
7.38579E-01 2.60860E-38
7.42405E-01 3.16266E-38
7.46212E-01 3.80559E-38
7.50000E-01 4.49641E-38
7.53769E-01 5.20084E-38
7.57519E-01 5.89087E-38
7.61249E-01 6.54368E-38
7.64960E-01 7.14192E-38
7.68650E-01 7.67258E-38
7.72320E-01 8.12685E-38
7.75968E-01 8.49924E-38
7.79596E-01 8.78736E-38
7.83203E-01 8.99136E-38
7.86788E-01 9.11330E-38
7.90351E-01 9.15710E-38
7.93893E-01 9.12779E-38
7.97411E-01 9.03133E-38
8.00908E-01 8.87440E-38
8.04381E-01 8.66395E-38
8.07831E-01 8.40726E-38
8.11257E-01 8.11131E-38
8.14660E-01 7.78321E-38
8.18039E-01 7.42952E-38
8.21394E-01 7.05658E-38
8.24724E-01 6.67022E-38
8.28030E-01 6.27581E-38
8.31310E-01 5.87820E-38
8.34565E-01 5.48157E-38
8.37795E-01 5.08977E-38
8.40999E-01 4.70598E-38
8.44177E-01 4.33305E-38
8.47329E-01 3.97314E-38
8.50455E-01 3.62811E-38
8.53553E-01 3.29945E-38
8.56625E-01 2.98816E-38
8.59670E-01 2.69502E-38
8.62687E-01 2.42037E-38
8.65677E-01 2.16437E-38
8.68639E-01 1.92700E-38
8.71572E-01 1.70796E-38
8.74478E-01 1.50679E-38
8.77355E-01 1.32292E-38
8.80203E-01 1.15569E-38
8.83022E-01 1.00431E-38
8.85812E-01 8.67959E-39
8.88573E-01 7.45736E-39
8.91304E-01 6.36755E-39
8.94005E-01 5.40086E-39
8.96677E-01 1.00000E-45
8.99318E-01 1.00000E-45
9.01928E-01 1.00000E-45
9.04508E-01 1.00000E-45
9.07058E-01 1.00000E-45
9.09576E-01 1.00000E-45
9.12063E-01 1.00000E-45
9.14519E-01 1.00000E-45
9.16943E-01 1.00000E-45
9.19335E-01 1.00000E-45
9.21696E-01 1.00000E-45
9.24024E-01 1.00000E-45
9.26320E-01 1.00000E-45
9.28584E-01 1.00000E-45
9.30815E-01 1.00000E-45
9.33013E-01 1.00000E-45
9.35178E-01 1.00000E-45
9.37310E-01 1.00000E-45
9.39409E-01 1.00000E-45
9.41474E-01 1.00000E-45
9.43505E-01 1.00000E-45
9.45503E-01 1.00000E-45
9.47467E-01 1.00000E-45
9.49397E-01 1.00000E-45
9.51293E-01 1.00000E-45
9.53154E-01 1.00000E-45
9.54981E-01 1.00000E-45
9.56773E-01 1.00000E-45
9.58530E-01 1.00000E-45
9.60252E-01 1.00000E-45
9.61940E-01 1.00000E-45
9.63592E-01 1.00000E-45
9.65209E-01 1.00000E-45
9.66790E-01 1.00000E-45
9.68336E-01 1.00000E-45
9.69846E-01 1.00000E-45
9.71321E-01 1.00000E-45
9.72759E-01 1.00000E-45
9.74162E-01 1.00000E-45
9.75528E-01 1.00000E-45
9.76858E-01 1.00000E-45
9.78152E-01 1.00000E-45
9.79410E-01 1.00000E-45
9.80631E-01 1.00000E-45
9.81815E-01 1.00000E-45
9.82963E-01 1.00000E-45
9.84074E-01 1.00000E-45
9.85148E-01 1.00000E-45
9.86185E-01 1.00000E-45
9.87185E-01 1.00000E-45
9.88148E-01 1.00000E-45
9.89074E-01 1.00000E-45
9.89962E-01 1.00000E-45
9.90814E-01 1.00000E-45
9.91627E-01 1.00000E-45
9.92404E-01 1.00000E-45
9.93143E-01 1.00000E-45
9.93844E-01 1.00000E-45
9.94508E-01 1.00000E-45
9.95134E-01 1.00000E-45
9.95722E-01 1.00000E-45
9.96273E-01 1.00000E-45
9.96786E-01 1.00000E-45
9.97261E-01 1.00000E-45
9.97698E-01 1.00000E-45
9.98097E-01 1.00000E-45
9.98459E-01 1.00000E-45
9.98782E-01 1.00000E-45
9.99067E-01 1.00000E-45
9.99315E-01 1.00000E-45
9.99524E-01 1.00000E-45
9.99695E-01 1.00000E-45
9.99829E-01 1.00000E-45
9.99924E-01 1.00000E-45
9.99981E-01 1.00000E-45
1.00000E+00 1.00000E-45
