 #
 # Subroutine ELSEPA. Elastic scattering of electrons and positrons
 #                    by neutral atoms and positive ions
 #
 # Projectile: electron
 # Kinetic energy = 2.00000E+06 eV = 7.34987E+04 a.u.
 #
 # WARNING: High-energy factorization with free-atom DF screening.
 #          Absorption, polarization and exchange corrections are
 #          switched off.
 #          Phase shifts are calculated for the bare nucleus.
 #          Scattering amplitudes are not evaluated.
 #
 # Element: Eu,  Z =  63,  atomic weight = 1.51964E+02 g/mol
 #
 # Nuclear model: Fermi distribution
 #                Average radius = 5.70993E-13 cm
 #                Skin thickness = 5.46000E-14 cm
 #
 # Number of electrons = 63
 #
 # Total elastic cross section = 7.53132E-18 cm**2 = 2.68948E-01 a0**2
 # 1st transport cross section = 9.71350E-22 cm**2 = 3.46876E-05 a0**2
 # 2nd transport cross section = 2.62511E-21 cm**2 = 9.37444E-05 a0**2
 #
 #
 # Differential cross section:                       MU=(1-COS(THETA))/2
 #
 #  THETA        MU          DCS          DCS        Sherman      error
 #  (deg)                 (cm**2/sr)   (a0**2/sr)    function
 #----------------------------------------------------------------------
0.00000E+00 5.61085E-13
7.61557E-13 5.61084E-13
1.18994E-12 5.61083E-13
1.71346E-12 5.61082E-13
2.33225E-12 5.61080E-13
3.04617E-12 5.61079E-13
3.85530E-12 5.61077E-13
4.75964E-12 5.61075E-13
5.75917E-12 5.61073E-13
6.85391E-12 5.61070E-13
8.04379E-12 5.61068E-13
9.32893E-12 5.61065E-13
1.07092E-11 5.61062E-13
1.21847E-11 5.61059E-13
1.37554E-11 5.61055E-13
1.54213E-11 5.61052E-13
1.71823E-11 5.61048E-13
1.90386E-11 5.61044E-13
2.09900E-11 5.61039E-13
2.30367E-11 5.61035E-13
2.51785E-11 5.61030E-13
2.74156E-11 5.61025E-13
2.97478E-11 5.61020E-13
3.21752E-11 5.61015E-13
3.46979E-11 5.61009E-13
3.73157E-11 5.61003E-13
4.00286E-11 5.60997E-13
4.28368E-11 5.60991E-13
4.57402E-11 5.60984E-13
4.87388E-11 5.60978E-13
5.18325E-11 5.60971E-13
5.50215E-11 5.60964E-13
5.83057E-11 5.60957E-13
6.16850E-11 5.60949E-13
6.51595E-11 5.60941E-13
6.87293E-11 5.60933E-13
7.23943E-11 5.60925E-13
7.61544E-11 5.60917E-13
1.18991E-10 5.60822E-13
1.71347E-10 5.60705E-13
2.33223E-10 5.60567E-13
3.04617E-10 5.60408E-13
3.85531E-10 5.60228E-13
4.75965E-10 5.60027E-13
5.75917E-10 5.59804E-13
6.85389E-10 5.59561E-13
8.04380E-10 5.59296E-13
9.32891E-10 5.59011E-13
1.07092E-09 5.58704E-13
1.21847E-09 5.58377E-13
1.37554E-09 5.58029E-13
1.54213E-09 5.57660E-13
1.71823E-09 5.57271E-13
1.90386E-09 5.56861E-13
2.09900E-09 5.56430E-13
2.30367E-09 5.55979E-13
2.51785E-09 5.55508E-13
2.74156E-09 5.55016E-13
2.97478E-09 5.54504E-13
3.21752E-09 5.53972E-13
3.46978E-09 5.53420E-13
3.73156E-09 5.52849E-13
4.00286E-09 5.52257E-13
4.28368E-09 5.51646E-13
4.57402E-09 5.51015E-13
4.87388E-09 5.50365E-13
5.18326E-09 5.49695E-13
5.50215E-09 5.49006E-13
5.83057E-09 5.48299E-13
6.16850E-09 5.47572E-13
6.51596E-09 5.46826E-13
6.87293E-09 5.46062E-13
7.23942E-09 5.45279E-13
7.61544E-09 5.44477E-13
1.18991E-08 5.35485E-13
1.71347E-08 5.24823E-13
2.33223E-08 5.12673E-13
3.04617E-08 4.99228E-13
3.85531E-08 4.84707E-13
4.75965E-08 4.69381E-13
5.75917E-08 4.53225E-13
6.85389E-08 4.36756E-13
8.04380E-08 4.19870E-13
9.32891E-08 4.02955E-13
1.07092E-07 3.86050E-13
1.21847E-07 3.69293E-13
1.37554E-07 3.52926E-13
1.54213E-07 3.36794E-13
1.71823E-07 3.21361E-13
1.90386E-07 3.06227E-13
2.09900E-07 2.91926E-13
2.30367E-07 2.78056E-13
2.51785E-07 2.64937E-13
2.74156E-07 2.52403E-13
2.97478E-07 2.40510E-13
3.21752E-07 2.29298E-13
3.46978E-07 2.18612E-13
3.73156E-07 2.08649E-13
4.00286E-07 1.99115E-13
4.28368E-07 1.90292E-13
4.57402E-07 1.81873E-13
4.87388E-07 1.74020E-13
5.18325E-07 1.66591E-13
5.50215E-07 1.59609E-13
5.83057E-07 1.53046E-13
6.16850E-07 1.46840E-13
6.51596E-07 1.41027E-13
6.87293E-07 1.35505E-13
7.23942E-07 1.30336E-13
7.61543E-07 1.25423E-13
1.18991E-06 8.83864E-14
1.71347E-06 6.49916E-14
2.33223E-06 4.89276E-14
3.04617E-06 3.73978E-14
3.85531E-06 2.88846E-14
4.75964E-06 2.23589E-14
5.75916E-06 1.78860E-14
6.85388E-06 1.42731E-14
8.04378E-06 1.16115E-14
9.32888E-06 9.51474E-15
1.07092E-05 7.87503E-15
1.21846E-05 6.58653E-15
1.37553E-05 5.53132E-15
1.54212E-05 4.70037E-15
1.71822E-05 3.99345E-15
1.90385E-05 3.43020E-15
2.09899E-05 2.94712E-15
2.30365E-05 2.55290E-15
2.51783E-05 2.21559E-15
2.74153E-05 1.93177E-15
2.97475E-05 1.69101E-15
3.21749E-05 1.48433E-15
3.46974E-05 1.30972E-15
3.73152E-05 1.15775E-15
4.00281E-05 1.02906E-15
4.28362E-05 9.15998E-16
4.57395E-05 8.19142E-16
4.87380E-05 7.34298E-16
5.18317E-05 6.60502E-16
5.50205E-05 5.95837E-16
5.83045E-05 5.38991E-16
6.16838E-05 4.89073E-16
6.51582E-05 4.44806E-16
6.87277E-05 4.05801E-16
7.23925E-05 3.70909E-16
7.61524E-05 3.39977E-16
9.21439E-05 2.44818E-16
1.09658E-04 1.81211E-16
1.28695E-04 1.37291E-16
1.49255E-04 1.06023E-16
1.71338E-04 8.31454E-17
1.94942E-04 6.60481E-17
2.20070E-04 5.30818E-17
2.46720E-04 4.31220E-17
2.74892E-04 3.53792E-17
3.04586E-04 2.92866E-17
3.35803E-04 2.44427E-17
3.68542E-04 2.05563E-17
4.02802E-04 1.74025E-17
4.38585E-04 1.48415E-17
4.75889E-04 1.27374E-17
5.14715E-04 1.09915E-17
5.55063E-04 9.54037E-18
5.96931E-04 8.31715E-18
6.40321E-04 7.28956E-18
6.85233E-04 6.41253E-18
7.31665E-04 5.66711E-18
7.79618E-04 5.02580E-18
8.29092E-04 4.47394E-18
8.80086E-04 3.99601E-18
9.32601E-04 3.58037E-18
9.86636E-04 3.21812E-18
1.04219E-03 2.90006E-18
1.09927E-03 2.62130E-18
1.15786E-03 2.37450E-18
1.21797E-03 2.15682E-18
1.27961E-03 1.96317E-18
1.34276E-03 1.79110E-18
1.40743E-03 1.63742E-18
1.47362E-03 1.49992E-18
1.54133E-03 1.37668E-18
1.61056E-03 1.26574E-18
1.68131E-03 1.16596E-18
1.75357E-03 1.07563E-18
1.82735E-03 9.94085E-19
1.90265E-03 9.19989E-19
1.97947E-03 8.52784E-19
2.05780E-03 7.91568E-19
2.13765E-03 7.35780E-19
2.21902E-03 6.84841E-19
2.30190E-03 6.38218E-19
2.38630E-03 5.95550E-19
2.47222E-03 5.56345E-19
2.55965E-03 5.20378E-19
2.64859E-03 4.87224E-19
2.73905E-03 4.56715E-19
2.83103E-03 4.28543E-19
2.92452E-03 4.02529E-19
3.01952E-03 3.78465E-19
3.11604E-03 3.56174E-19
3.21407E-03 3.35518E-19
3.31362E-03 3.16329E-19
3.41468E-03 2.98518E-19
3.51725E-03 2.81927E-19
3.62133E-03 2.66494E-19
3.72692E-03 2.52099E-19
3.83403E-03 2.38673E-19
3.94265E-03 2.26133E-19
4.05278E-03 2.14409E-19
4.16442E-03 2.03443E-19
4.27757E-03 1.93169E-19
4.39223E-03 1.83546E-19
4.50840E-03 1.74512E-19
4.62608E-03 1.66036E-19
4.74527E-03 1.58068E-19
4.86597E-03 1.50579E-19
4.98817E-03 1.43531E-19
5.11188E-03 1.36893E-19
5.23711E-03 1.30639E-19
5.36383E-03 1.24739E-19
5.49207E-03 1.19174E-19
5.62181E-03 1.13915E-19
5.75306E-03 1.08949E-19
5.88581E-03 1.04251E-19
6.02007E-03 9.98068E-20
6.15583E-03 9.55987E-20
6.29310E-03 9.16126E-20
6.43187E-03 8.78344E-20
6.57214E-03 8.42504E-20
6.71392E-03 8.08503E-20
6.85720E-03 7.76205E-20
7.00198E-03 7.45535E-20
7.14827E-03 7.16369E-20
7.29605E-03 6.88641E-20
7.44534E-03 6.62252E-20
7.59612E-03 6.37131E-20
7.97965E-03 5.79408E-20
8.37255E-03 5.28151E-20
8.77480E-03 4.82502E-20
9.18641E-03 4.41740E-20
9.60736E-03 4.05248E-20
1.00376E-02 3.72496E-20
1.04773E-02 3.43032E-20
1.09262E-02 3.16465E-20
1.13844E-02 2.92457E-20
1.18520E-02 2.70716E-20
1.23288E-02 2.50988E-20
1.28150E-02 2.33052E-20
1.33104E-02 2.16715E-20
1.38150E-02 2.01808E-20
1.43290E-02 1.88182E-20
1.48521E-02 1.75705E-20
1.53845E-02 1.64264E-20
1.59262E-02 1.53755E-20
1.64770E-02 1.44088E-20
1.70371E-02 1.35183E-20
1.76063E-02 1.26967E-20
1.81848E-02 1.19378E-20
1.87724E-02 1.12359E-20
1.93692E-02 1.05858E-20
1.99751E-02 9.98293E-21
2.05901E-02 9.42328E-21
2.12143E-02 8.90308E-21
2.18476E-02 8.41905E-21
2.24900E-02 7.96815E-21
2.31415E-02 7.54767E-21
2.38021E-02 7.15517E-21
2.44717E-02 6.78841E-21
2.51504E-02 6.44538E-21
2.58382E-02 6.12424E-21
2.65349E-02 5.82330E-21
2.72407E-02 5.54106E-21
2.79555E-02 5.27611E-21
2.86793E-02 5.02719E-21
2.94120E-02 4.79313E-21
3.01537E-02 4.57286E-21
3.09043E-02 4.36541E-21
3.16639E-02 4.16989E-21
3.24324E-02 3.98547E-21
3.32098E-02 3.81139E-21
3.39961E-02 3.64696E-21
3.47912E-02 3.49154E-21
3.55952E-02 3.34452E-21
3.64081E-02 3.20536E-21
3.72297E-02 3.07357E-21
3.80602E-02 2.94865E-21
3.88995E-02 2.83019E-21
3.97476E-02 2.71780E-21
4.06044E-02 2.61106E-21
4.14700E-02 2.50968E-21
4.23443E-02 2.41331E-21
4.32273E-02 2.32165E-21
4.41190E-02 2.23442E-21
4.50194E-02 2.15137E-21
4.59284E-02 2.07226E-21
4.68461E-02 1.99685E-21
4.87074E-02 1.85635E-21
5.06030E-02 1.72834E-21
5.25328E-02 1.61150E-21
5.44967E-02 1.50465E-21
5.64946E-02 1.40677E-21
5.85262E-02 1.31696E-21
6.05914E-02 1.23441E-21
6.26901E-02 1.15843E-21
6.48222E-02 1.08839E-21
6.69873E-02 1.02372E-21
6.91854E-02 9.63939E-22
7.14163E-02 9.08591E-22
7.36799E-02 8.57282E-22
7.59760E-02 8.09658E-22
7.83043E-02 7.65400E-22
8.06647E-02 7.24221E-22
8.30571E-02 6.85862E-22
8.54812E-02 6.50091E-22
8.79369E-02 6.16695E-22
9.04240E-02 5.85485E-22
9.29422E-02 5.56286E-22
9.54915E-02 5.28943E-22
9.80716E-02 5.03312E-22
1.00682E-01 4.79264E-22
1.03323E-01 4.56681E-22
1.05995E-01 4.35454E-22
1.08696E-01 4.15484E-22
1.11427E-01 3.96681E-22
1.14188E-01 3.78962E-22
1.16978E-01 3.62252E-22
1.19797E-01 3.46480E-22
1.22645E-01 3.31583E-22
1.25522E-01 3.17502E-22
1.28428E-01 3.04182E-22
1.31361E-01 2.91573E-22
1.34323E-01 2.79630E-22
1.37313E-01 2.68308E-22
1.40330E-01 2.57570E-22
1.43375E-01 2.47379E-22
1.46447E-01 2.37699E-22
1.49545E-01 2.28501E-22
1.52671E-01 2.19755E-22
1.55823E-01 2.11434E-22
1.59001E-01 2.03513E-22
1.62205E-01 1.95968E-22
1.65435E-01 1.88778E-22
1.68690E-01 1.81921E-22
1.71970E-01 1.75381E-22
1.75276E-01 1.69137E-22
1.78606E-01 1.63175E-22
1.81961E-01 1.57478E-22
1.85340E-01 1.52033E-22
1.88743E-01 1.46825E-22
1.92169E-01 1.41842E-22
1.95619E-01 1.37073E-22
1.99092E-01 1.32505E-22
2.02589E-01 1.28129E-22
2.06107E-01 1.23934E-22
2.09649E-01 1.19912E-22
2.13212E-01 1.16054E-22
2.16797E-01 1.12352E-22
2.20404E-01 1.08798E-22
2.24032E-01 1.05384E-22
2.27680E-01 1.02104E-22
2.31350E-01 9.89524E-23
2.35040E-01 9.59217E-23
2.38751E-01 9.30068E-23
2.42481E-01 9.02023E-23
2.46231E-01 8.75029E-23
2.50000E-01 8.49040E-23
2.53788E-01 8.24009E-23
2.57595E-01 7.99893E-23
2.61421E-01 7.76653E-23
2.65264E-01 7.54247E-23
2.69126E-01 7.32640E-23
2.73005E-01 7.11798E-23
2.76901E-01 6.91687E-23
2.80814E-01 6.72275E-23
2.84744E-01 6.53533E-23
2.88691E-01 6.35433E-23
2.92653E-01 6.17948E-23
2.96632E-01 6.01052E-23
3.00625E-01 5.84721E-23
3.04634E-01 5.68932E-23
3.08658E-01 5.53663E-23
3.12697E-01 5.38893E-23
3.16749E-01 5.24602E-23
3.20816E-01 5.10772E-23
3.24896E-01 4.97383E-23
3.28990E-01 4.84419E-23
3.33097E-01 4.71864E-23
3.37216E-01 4.59701E-23
3.41348E-01 4.47916E-23
3.45492E-01 4.36495E-23
3.49647E-01 4.25423E-23
3.53814E-01 4.14688E-23
3.57992E-01 4.04277E-23
3.62181E-01 3.94178E-23
3.66381E-01 3.84380E-23
3.70590E-01 3.74872E-23
3.74810E-01 3.65644E-23
3.79039E-01 3.56685E-23
3.83277E-01 3.47986E-23
3.87524E-01 3.39537E-23
3.91780E-01 3.31331E-23
3.96044E-01 3.23357E-23
4.00316E-01 3.15610E-23
4.04596E-01 3.08079E-23
4.08882E-01 3.00760E-23
4.13176E-01 2.93643E-23
4.17476E-01 2.86722E-23
4.21783E-01 2.79992E-23
4.26095E-01 2.73444E-23
4.30413E-01 2.67074E-23
4.34737E-01 2.60876E-23
4.39065E-01 2.54843E-23
4.43398E-01 2.48971E-23
4.47736E-01 2.43254E-23
4.52077E-01 2.37688E-23
4.56422E-01 2.32267E-23
4.60770E-01 2.26987E-23
4.65122E-01 2.21843E-23
4.69476E-01 2.16832E-23
4.73832E-01 2.11949E-23
4.78190E-01 2.07190E-23
4.82550E-01 2.02552E-23
4.86912E-01 1.98030E-23
4.91274E-01 1.93621E-23
4.95637E-01 1.89322E-23
5.00000E-01 1.85130E-23
5.04363E-01 1.81041E-23
5.08726E-01 1.77052E-23
5.13088E-01 1.73161E-23
5.17450E-01 1.69363E-23
5.21810E-01 1.65658E-23
5.26168E-01 1.62042E-23
5.30524E-01 1.58512E-23
5.34878E-01 1.55066E-23
5.39230E-01 1.51701E-23
5.43578E-01 1.48416E-23
5.47923E-01 1.45208E-23
5.52264E-01 1.42075E-23
5.56602E-01 1.39015E-23
5.60935E-01 1.36025E-23
5.65263E-01 1.33104E-23
5.69587E-01 1.30251E-23
5.73905E-01 1.27462E-23
5.78217E-01 1.24736E-23
5.82524E-01 1.22073E-23
5.86824E-01 1.19469E-23
5.91118E-01 1.16924E-23
5.95404E-01 1.14435E-23
5.99684E-01 1.12002E-23
6.03956E-01 1.09623E-23
6.08220E-01 1.07296E-23
6.12476E-01 1.05021E-23
6.16723E-01 1.02795E-23
6.20961E-01 1.00617E-23
6.25190E-01 9.84874E-24
6.29410E-01 9.64035E-24
6.33619E-01 9.43644E-24
6.37819E-01 9.23692E-24
6.42008E-01 9.04166E-24
6.46186E-01 8.85055E-24
6.50353E-01 8.66351E-24
6.54508E-01 8.48043E-24
6.58652E-01 8.30120E-24
6.62784E-01 8.12574E-24
6.66903E-01 7.95396E-24
6.71010E-01 7.78576E-24
6.75104E-01 7.62105E-24
6.79184E-01 7.45977E-24
6.83251E-01 7.30182E-24
6.87303E-01 7.14713E-24
6.91342E-01 6.99561E-24
6.95366E-01 6.84720E-24
6.99375E-01 6.70182E-24
7.03368E-01 6.55940E-24
7.07347E-01 6.41988E-24
7.11309E-01 6.28318E-24
7.15256E-01 6.14924E-24
7.19186E-01 6.01801E-24
7.23099E-01 5.88941E-24
7.26995E-01 5.76339E-24
7.30874E-01 5.63989E-24
7.34736E-01 5.51885E-24
7.38579E-01 5.40022E-24
7.42405E-01 5.28395E-24
7.46212E-01 5.16999E-24
7.50000E-01 5.05828E-24
7.53769E-01 4.94877E-24
7.57519E-01 4.84142E-24
7.61249E-01 4.73619E-24
7.64960E-01 4.63302E-24
7.68650E-01 4.53187E-24
7.72320E-01 4.43270E-24
7.75968E-01 4.33547E-24
7.79596E-01 4.24013E-24
7.83203E-01 4.14665E-24
7.86788E-01 4.05500E-24
7.90351E-01 3.96512E-24
7.93893E-01 3.87699E-24
7.97411E-01 3.79057E-24
8.00908E-01 3.70582E-24
8.04381E-01 3.62272E-24
8.07831E-01 3.54123E-24
8.11257E-01 3.46131E-24
8.14660E-01 3.38293E-24
8.18039E-01 3.30607E-24
8.21394E-01 3.23070E-24
8.24724E-01 3.15678E-24
8.28030E-01 3.08429E-24
8.31310E-01 3.01321E-24
8.34565E-01 2.94349E-24
8.37795E-01 2.87512E-24
8.40999E-01 2.80808E-24
8.44177E-01 2.74233E-24
8.47329E-01 2.67786E-24
8.50455E-01 2.61464E-24
8.53553E-01 2.55264E-24
8.56625E-01 2.49185E-24
8.59670E-01 2.43224E-24
8.62687E-01 2.37379E-24
8.65677E-01 2.31648E-24
8.68639E-01 2.26029E-24
8.71572E-01 2.20520E-24
8.74478E-01 2.15119E-24
8.77355E-01 2.09825E-24
8.80203E-01 2.04635E-24
8.83022E-01 1.99547E-24
8.85812E-01 1.94560E-24
8.88573E-01 1.89673E-24
8.91304E-01 1.84883E-24
8.94005E-01 1.80189E-24
8.96677E-01 1.75589E-24
8.99318E-01 1.71082E-24
9.01928E-01 1.66666E-24
9.04508E-01 1.62340E-24
9.07058E-01 1.58102E-24
9.09576E-01 1.53952E-24
9.12063E-01 1.49887E-24
9.14519E-01 1.45906E-24
9.16943E-01 1.42008E-24
9.19335E-01 1.38192E-24
9.21696E-01 1.34457E-24
9.24024E-01 1.30801E-24
9.26320E-01 1.27223E-24
9.28584E-01 1.23722E-24
9.30815E-01 1.20297E-24
9.33013E-01 1.16947E-24
9.35178E-01 1.13670E-24
9.37310E-01 1.10467E-24
9.39409E-01 1.07335E-24
9.41474E-01 1.04274E-24
9.43505E-01 1.01283E-24
9.45503E-01 9.83605E-25
9.47467E-01 9.55063E-25
9.49397E-01 9.27193E-25
9.51293E-01 8.99986E-25
9.53154E-01 8.73434E-25
9.54981E-01 8.47528E-25
9.56773E-01 8.22262E-25
9.58530E-01 7.97627E-25
9.60252E-01 7.73616E-25
9.61940E-01 7.50221E-25
9.63592E-01 7.27437E-25
9.65209E-01 7.05256E-25
9.66790E-01 6.83671E-25
9.68336E-01 6.62676E-25
9.69846E-01 6.42266E-25
9.71321E-01 6.22433E-25
9.72759E-01 6.03172E-25
9.74162E-01 5.84478E-25
9.75528E-01 5.66345E-25
9.76858E-01 5.48768E-25
9.78152E-01 5.31741E-25
9.79410E-01 5.15260E-25
9.80631E-01 4.99320E-25
9.81815E-01 4.83917E-25
9.82963E-01 4.69045E-25
9.84074E-01 4.54701E-25
9.85148E-01 4.40881E-25
9.86185E-01 4.27580E-25
9.87185E-01 4.14795E-25
9.88148E-01 4.02522E-25
9.89074E-01 3.90757E-25
9.89962E-01 3.79499E-25
9.90814E-01 3.68742E-25
9.91627E-01 3.58484E-25
9.92404E-01 3.48722E-25
9.93143E-01 3.39454E-25
9.93844E-01 3.30677E-25
9.94508E-01 3.22388E-25
9.95134E-01 3.14585E-25
9.95722E-01 3.07265E-25
9.96273E-01 3.00428E-25
9.96786E-01 2.94070E-25
9.97261E-01 2.88191E-25
9.97698E-01 2.82787E-25
9.98097E-01 2.77859E-25
9.98459E-01 2.73404E-25
9.98782E-01 2.69422E-25
9.99067E-01 2.65910E-25
9.99315E-01 2.62869E-25
9.99524E-01 2.60297E-25
9.99695E-01 2.58194E-25
9.99829E-01 2.56558E-25
9.99924E-01 2.55390E-25
9.99981E-01 2.54690E-25
1.00000E+00 2.54456E-25
