 #
 # Subroutine ELSEPA. Elastic scattering of electrons and positrons
 #                    by neutral atoms and positive ions
 #
 # Projectile: positron
 # Kinetic energy = 2.00000E+08 eV = 7.34987E+06 a.u.
 #
 # WARNING: High-energy factorization with free-atom DF screening.
 #          Absorption, polarization and exchange corrections are
 #          switched off.
 #          Phase shifts are calculated for the bare nucleus.
 #          Scattering amplitudes are not evaluated.
 #
 # Element: Se,  Z =  34,  atomic weight = 7.89600E+01 g/mol
 #
 # Nuclear model: Fermi distribution
 #                Average radius = 4.59042E-13 cm
 #                Skin thickness = 5.46000E-14 cm
 #
 # Number of electrons = 34
 #
 # Total elastic cross section = 2.60746E-18 cm**2 = 9.31141E-02 a0**2
 # 1st transport cross section = 5.76977E-26 cm**2 = 2.06042E-09 a0**2
 # 2nd transport cross section = 1.72613E-25 cm**2 = 6.16412E-09 a0**2
 #
 #
 # Differential cross section:                       MU=(1-COS(THETA))/2
 #
 #  THETA        MU          DCS          DCS        Sherman      error
 #  (deg)                 (cm**2/sr)   (a0**2/sr)    function
 #----------------------------------------------------------------------
0.00000E+00 7.90943E-10
7.61557E-13 7.85197E-10
1.18994E-12 7.81997E-10
1.71346E-12 7.78113E-10
2.33225E-12 7.73560E-10
3.04617E-12 7.68358E-10
3.85530E-12 7.62525E-10
4.75964E-12 7.56083E-10
5.75917E-12 7.49052E-10
6.85391E-12 7.41379E-10
8.04379E-12 7.33284E-10
9.32893E-12 7.24699E-10
1.07092E-11 7.15531E-10
1.21847E-11 7.06076E-10
1.37554E-11 6.96110E-10
1.54213E-11 6.85750E-10
1.71823E-11 6.75242E-10
1.90386E-11 6.64155E-10
2.09900E-11 6.52920E-10
2.30367E-11 6.41596E-10
2.51785E-11 6.29730E-10
2.74156E-11 6.17924E-10
2.97478E-11 6.05960E-10
3.21752E-11 5.93703E-10
3.46979E-11 5.81609E-10
3.73157E-11 5.69260E-10
4.00286E-11 5.56880E-10
4.28368E-11 5.44746E-10
4.57402E-11 5.32248E-10
4.87388E-11 5.19975E-10
5.18325E-11 5.07899E-10
5.50215E-11 4.95574E-10
5.83057E-11 4.83595E-10
6.16850E-11 4.71688E-10
6.51595E-11 4.59772E-10
6.87293E-11 4.48234E-10
7.23943E-11 4.36648E-10
7.61544E-11 4.25265E-10
1.18991E-10 3.22820E-10
1.71347E-10 2.42337E-10
2.33223E-10 1.82147E-10
3.04617E-10 1.38350E-10
3.85531E-10 1.06680E-10
4.75965E-10 8.36820E-11
5.75917E-10 6.67695E-11
6.85389E-10 5.38471E-11
8.04380E-10 4.44178E-11
9.32891E-10 3.71497E-11
1.07092E-09 3.12136E-11
1.21847E-09 2.66525E-11
1.37554E-09 2.28407E-11
1.54213E-09 1.96789E-11
1.71823E-09 1.71583E-11
1.90386E-09 1.49037E-11
2.09900E-09 1.30397E-11
2.30367E-09 1.14951E-11
2.51785E-09 1.00822E-11
2.74156E-09 8.91200E-12
2.97478E-09 7.89844E-12
3.21752E-09 6.99246E-12
3.46978E-09 6.22876E-12
3.73156E-09 5.54691E-12
4.00286E-09 4.94879E-12
4.28368E-09 4.43727E-12
4.57402E-09 3.97190E-12
4.87388E-09 3.56821E-12
5.18326E-09 3.21609E-12
5.50215E-09 2.89742E-12
5.83057E-09 2.61975E-12
6.16850E-09 2.37320E-12
6.51596E-09 2.15232E-12
6.87293E-09 1.95794E-12
7.23942E-09 1.78326E-12
7.61544E-09 1.62734E-12
1.18991E-08 7.20274E-13
1.71347E-08 3.69460E-13
2.33223E-08 2.10587E-13
3.04617E-08 1.29207E-13
3.85531E-08 8.36118E-14
4.75965E-08 5.63790E-14
5.75917E-08 3.92938E-14
6.85389E-08 2.81674E-14
8.04380E-08 2.06822E-14
9.32891E-08 1.55120E-14
1.07092E-07 1.18549E-14
1.21847E-07 9.21189E-15
1.37554E-07 7.26521E-15
1.54213E-07 5.80668E-15
1.71823E-07 4.69678E-15
1.90386E-07 3.84025E-15
2.09900E-07 3.17079E-15
2.30367E-07 2.64135E-15
2.51785E-07 2.21823E-15
2.74156E-07 1.87668E-15
2.97478E-07 1.59856E-15
3.21752E-07 1.37020E-15
3.46978E-07 1.18128E-15
3.73156E-07 1.02387E-15
4.00286E-07 8.91869E-16
4.28368E-07 7.80490E-16
4.57402E-07 6.85981E-16
4.87388E-07 6.05361E-16
5.18325E-07 5.36248E-16
5.50215E-07 4.76723E-16
5.83057E-07 4.25230E-16
6.16850E-07 3.80500E-16
6.51596E-07 3.41496E-16
6.87293E-07 3.07362E-16
7.23942E-07 2.77386E-16
7.61543E-07 2.50973E-16
1.18991E-06 1.03702E-16
1.71347E-06 5.02533E-17
2.33223E-06 2.72012E-17
3.04617E-06 1.59715E-17
3.85531E-06 9.98130E-18
4.75964E-06 6.55304E-18
5.75916E-06 4.47769E-18
6.85388E-06 3.16239E-18
8.04378E-06 2.29635E-18
9.32888E-06 1.70741E-18
1.07092E-05 1.29570E-18
1.21846E-05 1.00090E-18
1.37553E-05 7.85348E-19
1.54212E-05 6.24810E-19
1.71822E-05 5.03265E-19
1.90385E-05 4.09829E-19
2.09899E-05 3.37195E-19
2.30365E-05 2.79948E-19
2.51783E-05 2.34330E-19
2.74153E-05 1.97620E-19
2.97475E-05 1.67816E-19
3.21749E-05 1.43422E-19
3.46974E-05 1.23305E-19
3.73152E-05 1.06598E-19
4.00281E-05 9.26298E-20
4.28362E-05 8.08775E-20
4.57395E-05 7.09306E-20
4.87380E-05 6.24653E-20
5.18317E-05 5.52241E-20
5.50205E-05 4.90009E-20
5.83045E-05 4.36294E-20
6.16838E-05 3.89739E-20
6.51582E-05 3.49233E-20
6.87277E-05 3.13859E-20
7.23925E-05 2.82854E-20
7.61524E-05 2.55604E-20
9.21439E-05 1.74481E-20
1.09658E-04 1.23117E-20
1.28695E-04 8.93324E-21
1.49255E-04 6.63706E-21
1.71338E-04 5.03308E-21
1.94942E-04 3.88517E-21
2.20070E-04 3.04633E-21
2.46720E-04 2.42192E-21
2.74892E-04 1.94936E-21
3.04586E-04 1.58650E-21
3.35803E-04 1.30413E-21
3.68542E-04 1.08176E-21
4.02802E-04 9.04746E-22
4.38585E-04 7.62421E-22
4.75889E-04 6.46951E-22
5.14715E-04 5.52479E-22
5.55063E-04 4.74593E-22
5.96931E-04 4.09919E-22
6.40321E-04 3.55861E-22
6.85233E-04 3.10396E-22
7.31665E-04 2.71938E-22
7.79618E-04 2.39233E-22
8.29092E-04 2.11279E-22
8.80086E-04 1.87273E-22
9.32601E-04 1.66565E-22
9.86636E-04 1.48627E-22
1.04219E-03 1.33027E-22
1.09927E-03 1.19410E-22
1.15786E-03 1.07480E-22
1.21797E-03 9.69945E-23
1.27961E-03 8.77482E-23
1.34276E-03 7.95701E-23
1.40743E-03 7.23158E-23
1.47362E-03 6.58632E-23
1.54133E-03 6.01086E-23
1.61056E-03 5.49636E-23
1.68131E-03 5.03525E-23
1.75357E-03 4.62105E-23
1.82735E-03 4.24815E-23
1.90265E-03 3.91174E-23
1.97947E-03 3.60762E-23
2.05780E-03 3.33217E-23
2.13765E-03 3.08221E-23
2.21902E-03 2.85497E-23
2.30190E-03 2.64803E-23
2.38630E-03 2.45926E-23
2.47222E-03 2.28680E-23
2.55965E-03 2.12898E-23
2.64859E-03 1.98435E-23
2.73905E-03 1.85161E-23
2.83103E-03 1.72962E-23
2.92452E-03 1.61735E-23
3.01952E-03 1.51390E-23
3.11604E-03 1.41844E-23
3.21407E-03 1.33026E-23
3.31362E-03 1.24871E-23
3.41468E-03 1.17319E-23
3.51725E-03 1.10319E-23
3.62133E-03 1.03823E-23
3.72692E-03 9.77890E-24
3.83403E-03 9.21775E-24
3.94265E-03 8.69543E-24
4.05278E-03 8.20878E-24
4.16442E-03 7.75493E-24
4.27757E-03 7.33129E-24
4.39223E-03 6.93551E-24
4.50840E-03 6.56542E-24
4.62608E-03 6.21908E-24
4.74527E-03 5.89470E-24
4.86597E-03 5.59064E-24
4.98817E-03 5.30540E-24
5.11188E-03 5.03763E-24
5.23711E-03 4.78607E-24
5.36383E-03 4.54956E-24
5.49207E-03 4.32706E-24
5.62181E-03 4.11758E-24
5.75306E-03 3.92024E-24
5.88581E-03 3.73421E-24
6.02007E-03 3.55873E-24
6.15583E-03 3.39310E-24
6.29310E-03 3.23667E-24
6.43187E-03 3.08885E-24
6.57214E-03 2.94908E-24
6.71392E-03 2.81684E-24
6.85720E-03 2.69166E-24
7.00198E-03 2.57311E-24
7.14827E-03 2.46076E-24
7.29605E-03 2.35425E-24
7.44534E-03 2.25321E-24
7.59612E-03 2.15732E-24
7.97965E-03 1.93815E-24
8.37255E-03 1.74504E-24
8.77480E-03 1.57443E-24
9.18641E-03 1.42328E-24
9.60736E-03 1.28905E-24
1.00376E-02 1.16955E-24
1.04773E-02 1.06292E-24
1.09262E-02 9.67572E-25
1.13844E-02 8.82126E-25
1.18520E-02 8.05405E-25
1.23288E-02 7.36386E-25
1.28150E-02 6.74180E-25
1.33104E-02 6.18019E-25
1.38150E-02 5.67228E-25
1.43290E-02 5.21220E-25
1.48521E-02 4.79481E-25
1.53845E-02 4.41558E-25
1.59262E-02 4.07052E-25
1.64770E-02 3.75613E-25
1.70371E-02 3.46930E-25
1.76063E-02 3.20728E-25
1.81848E-02 2.96764E-25
1.87724E-02 2.74820E-25
1.93692E-02 2.54703E-25
1.99751E-02 2.36241E-25
2.05901E-02 2.19281E-25
2.12143E-02 2.03683E-25
2.18476E-02 1.89324E-25
2.24900E-02 1.76094E-25
2.31415E-02 1.63892E-25
2.38021E-02 1.52629E-25
2.44717E-02 1.42223E-25
2.51504E-02 1.32602E-25
2.58382E-02 1.23699E-25
2.65349E-02 1.15454E-25
2.72407E-02 1.07812E-25
2.79555E-02 1.00726E-25
2.86793E-02 9.41489E-26
2.94120E-02 8.80410E-26
3.01537E-02 8.23648E-26
3.09043E-02 7.70867E-26
3.16639E-02 7.21756E-26
3.24324E-02 6.76035E-26
3.32098E-02 6.33444E-26
3.39961E-02 5.93747E-26
3.47912E-02 5.56729E-26
3.55952E-02 5.22190E-26
3.64081E-02 4.89949E-26
3.72297E-02 4.59838E-26
3.80602E-02 4.31703E-26
3.88995E-02 4.05403E-26
3.97476E-02 3.80808E-26
4.06044E-02 3.57797E-26
4.14700E-02 3.36259E-26
4.23443E-02 3.16093E-26
4.32273E-02 2.97203E-26
4.41190E-02 2.79503E-26
4.50194E-02 2.62911E-26
4.59284E-02 2.47353E-26
4.68461E-02 2.32760E-26
4.87074E-02 2.06214E-26
5.06030E-02 1.82816E-26
5.25328E-02 1.62167E-26
5.44967E-02 1.43926E-26
5.64946E-02 1.27797E-26
5.85262E-02 1.13522E-26
6.05914E-02 1.00877E-26
6.26901E-02 8.96685E-27
6.48222E-02 7.97254E-27
6.69873E-02 7.08995E-27
6.91854E-02 6.30608E-27
7.14163E-02 5.60952E-27
7.36799E-02 4.99026E-27
7.59760E-02 4.43949E-27
7.83043E-02 3.94946E-27
8.06647E-02 3.51333E-27
8.30571E-02 3.12508E-27
8.54812E-02 2.77936E-27
8.79369E-02 2.47148E-27
9.04240E-02 2.19725E-27
9.29422E-02 1.95298E-27
9.54915E-02 1.73538E-27
9.80716E-02 1.54154E-27
1.00682E-01 1.36887E-27
1.03323E-01 1.21508E-27
1.05995E-01 1.07812E-27
1.08696E-01 9.56163E-28
1.11427E-01 8.47591E-28
1.14188E-01 7.50958E-28
1.16978E-01 6.64976E-28
1.19797E-01 5.88496E-28
1.22645E-01 5.20491E-28
1.25522E-01 4.60047E-28
1.28428E-01 4.06346E-28
1.31361E-01 3.58661E-28
1.34323E-01 3.16338E-28
1.37313E-01 2.78796E-28
1.40330E-01 2.45515E-28
1.43375E-01 2.16030E-28
1.46447E-01 1.89927E-28
1.49545E-01 1.66835E-28
1.52671E-01 1.46422E-28
1.55823E-01 1.28392E-28
1.59001E-01 1.12482E-28
1.62205E-01 9.84541E-29
1.65435E-01 8.60987E-29
1.68690E-01 7.52274E-29
1.71970E-01 6.56721E-29
1.75276E-01 5.72832E-29
1.78606E-01 4.99271E-29
1.81961E-01 4.34846E-29
1.85340E-01 3.78498E-29
1.88743E-01 3.29281E-29
1.92169E-01 2.86355E-29
1.95619E-01 2.48971E-29
1.99092E-01 2.16467E-29
2.02589E-01 1.88250E-29
2.06107E-01 1.63797E-29
2.09649E-01 1.42644E-29
2.13212E-01 1.24378E-29
2.16797E-01 1.08636E-29
2.20404E-01 9.50949E-30
2.24032E-01 8.34705E-30
2.27680E-01 7.35117E-30
2.31350E-01 6.49972E-30
2.35040E-01 5.77323E-30
2.38751E-01 5.15460E-30
2.42481E-01 4.62881E-30
2.46231E-01 4.18273E-30
2.50000E-01 3.80486E-30
2.53788E-01 3.48517E-30
2.57595E-01 3.21493E-30
2.61421E-01 2.98654E-30
2.65264E-01 2.79344E-30
2.69126E-01 2.62993E-30
2.73005E-01 2.49111E-30
2.76901E-01 2.37277E-30
2.80814E-01 2.27130E-30
2.84744E-01 2.18364E-30
2.88691E-01 2.10715E-30
2.92653E-01 2.03964E-30
2.96632E-01 1.97925E-30
3.00625E-01 1.92443E-30
3.04634E-01 1.87388E-30
3.08658E-01 1.82656E-30
3.12697E-01 1.78159E-30
3.16749E-01 1.73829E-30
3.20816E-01 1.69611E-30
3.24896E-01 1.65460E-30
3.28990E-01 1.61346E-30
3.33097E-01 1.57244E-30
3.37216E-01 1.53137E-30
3.41348E-01 1.49015E-30
3.45492E-01 1.44871E-30
3.49647E-01 1.40705E-30
3.53814E-01 1.36516E-30
3.57992E-01 1.32309E-30
3.62181E-01 1.28090E-30
3.66381E-01 1.23865E-30
3.70590E-01 1.19642E-30
3.74810E-01 1.15431E-30
3.79039E-01 1.11239E-30
3.83277E-01 1.07075E-30
3.87524E-01 1.02949E-30
3.91780E-01 9.88692E-31
3.96044E-01 9.48435E-31
4.00316E-01 9.08796E-31
4.04596E-01 8.69849E-31
4.08882E-01 8.31657E-31
4.13176E-01 7.94280E-31
4.17476E-01 7.57771E-31
4.21783E-01 7.22176E-31
4.26095E-01 6.87534E-31
4.30413E-01 6.53880E-31
4.34737E-01 6.21239E-31
4.39065E-01 5.89634E-31
4.43398E-01 5.59081E-31
4.47736E-01 5.29590E-31
4.52077E-01 5.01167E-31
4.56422E-01 4.73814E-31
4.60770E-01 4.47527E-31
4.65122E-01 4.22299E-31
4.69476E-01 3.98121E-31
4.73832E-01 3.74980E-31
4.78190E-01 3.52858E-31
4.82550E-01 3.31737E-31
4.86912E-01 3.11597E-31
4.91274E-01 2.92415E-31
4.95637E-01 2.74166E-31
5.00000E-01 2.56826E-31
5.04363E-01 2.40366E-31
5.08726E-01 2.24761E-31
5.13088E-01 2.09980E-31
5.17450E-01 1.95997E-31
5.21810E-01 1.82781E-31
5.26168E-01 1.70303E-31
5.30524E-01 1.58535E-31
5.34878E-01 1.47447E-31
5.39230E-01 1.37010E-31
5.43578E-01 1.27196E-31
5.47923E-01 1.17977E-31
5.52264E-01 1.09325E-31
5.56602E-01 1.01214E-31
5.60935E-01 9.36166E-32
5.65263E-01 8.65077E-32
5.69587E-01 7.98621E-32
5.73905E-01 7.36558E-32
5.78217E-01 6.78655E-32
5.82524E-01 6.24685E-32
5.86824E-01 5.74431E-32
5.91118E-01 5.27682E-32
5.95404E-01 4.84239E-32
5.99684E-01 4.43907E-32
6.03956E-01 4.06503E-32
6.08220E-01 3.71850E-32
6.12476E-01 3.39778E-32
6.16723E-01 3.10128E-32
6.20961E-01 2.82745E-32
6.25190E-01 2.57485E-32
6.29410E-01 2.34208E-32
6.33619E-01 2.12785E-32
6.37819E-01 1.93090E-32
6.42008E-01 1.75006E-32
6.46186E-01 1.58421E-32
6.50353E-01 1.43232E-32
6.54508E-01 1.29338E-32
6.58652E-01 1.16647E-32
6.62784E-01 1.05071E-32
6.66903E-01 9.45269E-33
6.71010E-01 8.49380E-33
6.75104E-01 7.62313E-33
6.79184E-01 6.83390E-33
6.83251E-01 6.11971E-33
6.87303E-01 5.47462E-33
6.91342E-01 4.89306E-33
6.95366E-01 4.36984E-33
6.99375E-01 3.90012E-33
7.03368E-01 3.47938E-33
7.07347E-01 3.10344E-33
7.11309E-01 2.76841E-33
7.15256E-01 2.47067E-33
7.19186E-01 2.20687E-33
7.23099E-01 1.97390E-33
7.26995E-01 1.76889E-33
7.30874E-01 1.58918E-33
7.34736E-01 1.43234E-33
7.38579E-01 1.29611E-33
7.42405E-01 1.17840E-33
7.46212E-01 1.07731E-33
7.50000E-01 9.91078E-34
7.53769E-01 9.18107E-34
7.57519E-01 8.56921E-34
7.61249E-01 8.06173E-34
7.64960E-01 7.64637E-34
7.68650E-01 7.31194E-34
7.72320E-01 7.04826E-34
7.75968E-01 6.84609E-34
7.79596E-01 6.69706E-34
7.83203E-01 6.59360E-34
7.86788E-01 6.52888E-34
7.90351E-01 6.49674E-34
7.93893E-01 6.49167E-34
7.97411E-01 6.50873E-34
8.00908E-01 6.54351E-34
8.04381E-01 6.59207E-34
8.07831E-01 6.65096E-34
8.11257E-01 6.71707E-34
8.14660E-01 6.78776E-34
8.18039E-01 6.86061E-34
8.21394E-01 6.93363E-34
8.24724E-01 7.00498E-34
8.28030E-01 7.07322E-34
8.31310E-01 7.13702E-34
8.34565E-01 7.19534E-34
8.37795E-01 7.24727E-34
8.40999E-01 7.29209E-34
8.44177E-01 7.32926E-34
8.47329E-01 7.35826E-34
8.50455E-01 7.37886E-34
8.53553E-01 7.39088E-34
8.56625E-01 7.39409E-34
8.59670E-01 7.38859E-34
8.62687E-01 7.37434E-34
8.65677E-01 7.35145E-34
8.68639E-01 7.32010E-34
8.71572E-01 7.28051E-34
8.74478E-01 7.23286E-34
8.77355E-01 7.17750E-34
8.80203E-01 7.11471E-34
8.83022E-01 7.04481E-34
8.85812E-01 6.96814E-34
8.88573E-01 6.88505E-34
8.91304E-01 6.79591E-34
8.94005E-01 6.70114E-34
8.96677E-01 6.60106E-34
8.99318E-01 6.49608E-34
9.01928E-01 6.38655E-34
9.04508E-01 6.27288E-34
9.07058E-01 6.15540E-34
9.09576E-01 6.03448E-34
9.12063E-01 5.91047E-34
9.14519E-01 5.78374E-34
9.16943E-01 5.65459E-34
9.19335E-01 5.52339E-34
9.21696E-01 5.39041E-34
9.24024E-01 5.25596E-34
9.26320E-01 5.12035E-34
9.28584E-01 4.98383E-34
9.30815E-01 4.84669E-34
9.33013E-01 4.70915E-34
9.35178E-01 4.57149E-34
9.37310E-01 4.43391E-34
9.39409E-01 4.29663E-34
9.41474E-01 4.15986E-34
9.43505E-01 4.02381E-34
9.45503E-01 3.88864E-34
9.47467E-01 3.75451E-34
9.49397E-01 3.62161E-34
9.51293E-01 3.49006E-34
9.53154E-01 3.36001E-34
9.54981E-01 3.23158E-34
9.56773E-01 3.10491E-34
9.58530E-01 2.98011E-34
9.60252E-01 2.85726E-34
9.61940E-01 2.73647E-34
9.63592E-01 2.61785E-34
9.65209E-01 2.50142E-34
9.66790E-01 2.38732E-34
9.68336E-01 2.27555E-34
9.69846E-01 2.16620E-34
9.71321E-01 2.05934E-34
9.72759E-01 1.95500E-34
9.74162E-01 1.85323E-34
9.75528E-01 1.75404E-34
9.76858E-01 1.65752E-34
9.78152E-01 1.56360E-34
9.79410E-01 1.47242E-34
9.80631E-01 1.38393E-34
9.81815E-01 1.29816E-34
9.82963E-01 1.21513E-34
9.84074E-01 1.13482E-34
9.85148E-01 1.05732E-34
9.86185E-01 9.82569E-35
9.87185E-01 9.10577E-35
9.88148E-01 8.41349E-35
9.89074E-01 7.74924E-35
9.89962E-01 7.11254E-35
9.90814E-01 6.50359E-35
9.91627E-01 5.92235E-35
9.92404E-01 5.36864E-35
9.93143E-01 4.84256E-35
9.93844E-01 4.34399E-35
9.94508E-01 3.87296E-35
9.95134E-01 3.42932E-35
9.95722E-01 3.01294E-35
9.96273E-01 2.62376E-35
9.96786E-01 2.26206E-35
9.97261E-01 1.92727E-35
9.97698E-01 1.61966E-35
9.98097E-01 1.33893E-35
9.98459E-01 1.08518E-35
9.98782E-01 8.58416E-36
9.99067E-01 6.58357E-36
9.99315E-01 4.85034E-36
9.99524E-01 3.38477E-36
9.99695E-01 2.18655E-36
9.99829E-01 1.25474E-36
9.99924E-01 5.88979E-37
9.99981E-01 1.90020E-37
1.00000E+00 5.72767E-38
