 #
 # Subroutine ELSEPA. Elastic scattering of electrons and positrons
 #                    by neutral atoms and positive ions
 #
 # Projectile: positron
 # Kinetic energy = 4.50000E+07 eV = 1.65372E+06 a.u.
 #
 # WARNING: High-energy factorization with free-atom DF screening.
 #          Absorption, polarization and exchange corrections are
 #          switched off.
 #          Phase shifts are calculated for the bare nucleus.
 #          Scattering amplitudes are not evaluated.
 #
 # Element: Se,  Z =  34,  atomic weight = 7.89600E+01 g/mol
 #
 # Nuclear model: Fermi distribution
 #                Average radius = 4.59042E-13 cm
 #                Skin thickness = 5.46000E-14 cm
 #
 # Number of electrons = 34
 #
 # Total elastic cross section = 2.60959E-18 cm**2 = 9.31902E-02 a0**2
 # 1st transport cross section = 1.04470E-24 cm**2 = 3.73069E-08 a0**2
 # 2nd transport cross section = 3.06271E-24 cm**2 = 1.09371E-07 a0**2
 #
 #
 # Differential cross section:                       MU=(1-COS(THETA))/2
 #
 #  THETA        MU          DCS          DCS        Sherman      error
 #  (deg)                 (cm**2/sr)   (a0**2/sr)    function
 #----------------------------------------------------------------------
0.00000E+00 4.07476E-11
7.61557E-13 4.07321E-11
1.18994E-12 4.07234E-11
1.71346E-12 4.07129E-11
2.33225E-12 4.07004E-11
3.04617E-12 4.06861E-11
3.85530E-12 4.06698E-11
4.75964E-12 4.06517E-11
5.75917E-12 4.06316E-11
6.85391E-12 4.06097E-11
8.04379E-12 4.05859E-11
9.32893E-12 4.05602E-11
1.07092E-11 4.05326E-11
1.21847E-11 4.05032E-11
1.37554E-11 4.04719E-11
1.54213E-11 4.04388E-11
1.71823E-11 4.04038E-11
1.90386E-11 4.03670E-11
2.09900E-11 4.03283E-11
2.30367E-11 4.02878E-11
2.51785E-11 4.02455E-11
2.74156E-11 4.02014E-11
2.97478E-11 4.01555E-11
3.21752E-11 4.01078E-11
3.46979E-11 4.00583E-11
3.73157E-11 4.00071E-11
4.00286E-11 3.99541E-11
4.28368E-11 3.98994E-11
4.57402E-11 3.98429E-11
4.87388E-11 3.97847E-11
5.18325E-11 3.97248E-11
5.50215E-11 3.96631E-11
5.83057E-11 3.95998E-11
6.16850E-11 3.95348E-11
6.51595E-11 3.94682E-11
6.87293E-11 3.93999E-11
7.23943E-11 3.93300E-11
7.61544E-11 3.92584E-11
1.18991E-10 3.84542E-11
1.71347E-10 3.75095E-11
2.33223E-10 3.64307E-11
3.04617E-10 3.52435E-11
3.85531E-10 3.39688E-11
4.75965E-10 3.26274E-11
5.75917E-10 3.12391E-11
6.85389E-10 2.98175E-11
8.04380E-10 2.83715E-11
9.32891E-10 2.69286E-11
1.07092E-09 2.55027E-11
1.21847E-09 2.41051E-11
1.37554E-09 2.27450E-11
1.54213E-09 2.14239E-11
1.71823E-09 2.01466E-11
1.90386E-09 1.89259E-11
2.09900E-09 1.77643E-11
2.30367E-09 1.66632E-11
2.51785E-09 1.56228E-11
2.74156E-09 1.46383E-11
2.97478E-09 1.37108E-11
3.21752E-09 1.28423E-11
3.46978E-09 1.20303E-11
3.73156E-09 1.12724E-11
4.00286E-09 1.05658E-11
4.28368E-09 9.90513E-12
4.57402E-09 9.28987E-12
4.87388E-09 8.71826E-12
5.18326E-09 8.18737E-12
5.50215E-09 7.69440E-12
5.83057E-09 7.23667E-12
6.16850E-09 6.81029E-12
6.51596E-09 6.41437E-12
6.87293E-09 6.04686E-12
7.23942E-09 5.70556E-12
7.61544E-09 5.38846E-12
1.18991E-08 3.18279E-12
1.71347E-08 2.05237E-12
2.33223E-08 1.39658E-12
3.04617E-08 9.91402E-13
3.85531E-08 7.24351E-13
4.75965E-08 5.40011E-13
5.75917E-08 4.08609E-13
6.85389E-08 3.12500E-13
8.04380E-08 2.41104E-13
9.32891E-08 1.88224E-13
1.07092E-07 1.48570E-13
1.21847E-07 1.18510E-13
1.37554E-07 9.54966E-14
1.54213E-07 7.76869E-14
1.71823E-07 6.37955E-14
1.90386E-07 5.28824E-14
2.09900E-07 4.42226E-14
2.30367E-07 3.72854E-14
2.51785E-07 3.16779E-14
2.74156E-07 2.71050E-14
2.97478E-07 2.33394E-14
3.21752E-07 2.02196E-14
3.46978E-07 1.76159E-14
3.73156E-07 1.54276E-14
4.00286E-07 1.35761E-14
4.28368E-07 1.19980E-14
4.57402E-07 1.06457E-14
4.87388E-07 9.48087E-15
5.18325E-07 8.47253E-15
5.50215E-07 7.59556E-15
5.83057E-07 6.82957E-15
6.16850E-07 6.15702E-15
6.51596E-07 5.56515E-15
6.87293E-07 5.04265E-15
7.23942E-07 4.57990E-15
7.61543E-07 4.16882E-15
1.18991E-06 1.79543E-15
1.71347E-06 8.89282E-16
2.33223E-06 4.87516E-16
3.04617E-06 2.88886E-16
3.85531E-06 1.81935E-16
4.75964E-06 1.20274E-16
5.75916E-06 8.27015E-17
6.85388E-06 5.87408E-17
8.04378E-06 4.28714E-17
9.32888E-06 3.20200E-17
1.07092E-05 2.43951E-17
1.21846E-05 1.89101E-17
1.37553E-05 1.48827E-17
1.54212E-05 1.18718E-17
1.71822E-05 9.58445E-18
1.90385E-05 7.82073E-18
2.09899E-05 6.44600E-18
2.30365E-05 5.35990E-18
2.51783E-05 4.49257E-18
2.74153E-05 3.79328E-18
2.97475E-05 3.22457E-18
3.21749E-05 2.75839E-18
3.46974E-05 2.37344E-18
3.73152E-05 2.05335E-18
4.00281E-05 1.78544E-18
4.28362E-05 1.55982E-18
4.57395E-05 1.36869E-18
4.87380E-05 1.20590E-18
5.18317E-05 1.06656E-18
5.50205E-05 9.46728E-19
5.83045E-05 8.43235E-19
6.16838E-05 7.53491E-19
6.51582E-05 6.75371E-19
6.87277E-05 6.07117E-19
7.23925E-05 5.47270E-19
7.61524E-05 4.94624E-19
9.21439E-05 3.37896E-19
1.09658E-04 2.38567E-19
1.28695E-04 1.73183E-19
1.49255E-04 1.28722E-19
1.71338E-04 9.76497E-20
1.94942E-04 7.54046E-20
2.20070E-04 5.91441E-20
2.46720E-04 4.70368E-20
2.74892E-04 3.78721E-20
3.04586E-04 3.08333E-20
3.35803E-04 2.53546E-20
3.68542E-04 2.10396E-20
4.02802E-04 1.76038E-20
4.38585E-04 1.48408E-20
4.75889E-04 1.25988E-20
5.14715E-04 1.07640E-20
5.55063E-04 9.25111E-21
5.96931E-04 7.99457E-21
6.40321E-04 6.94405E-21
6.85233E-04 6.06033E-21
7.31665E-04 5.31262E-21
7.79618E-04 4.67661E-21
8.29092E-04 4.13284E-21
8.80086E-04 3.66574E-21
9.32601E-04 3.26270E-21
9.86636E-04 2.91347E-21
1.04219E-03 2.60967E-21
1.09927E-03 2.34439E-21
1.15786E-03 2.11191E-21
1.21797E-03 1.90750E-21
1.27961E-03 1.72718E-21
1.34276E-03 1.56764E-21
1.40743E-03 1.42606E-21
1.47362E-03 1.30007E-21
1.54133E-03 1.18767E-21
1.61056E-03 1.08714E-21
1.68131E-03 9.96990E-22
1.75357E-03 9.15975E-22
1.82735E-03 8.43008E-22
1.90265E-03 7.77146E-22
1.97947E-03 7.17575E-22
2.05780E-03 6.63590E-22
2.13765E-03 6.14576E-22
2.21902E-03 5.69993E-22
2.30190E-03 5.29369E-22
2.38630E-03 4.92290E-22
2.47222E-03 4.58393E-22
2.55965E-03 4.27356E-22
2.64859E-03 3.98893E-22
2.73905E-03 3.72754E-22
2.83103E-03 3.48716E-22
2.92452E-03 3.26578E-22
3.01952E-03 3.06164E-22
3.11604E-03 2.87315E-22
3.21407E-03 2.69890E-22
3.31362E-03 2.53761E-22
3.41468E-03 2.38815E-22
3.51725E-03 2.24950E-22
3.62133E-03 2.12074E-22
3.72692E-03 2.00102E-22
3.83403E-03 1.88959E-22
3.94265E-03 1.78579E-22
4.05278E-03 1.68900E-22
4.16442E-03 1.59865E-22
4.27757E-03 1.51423E-22
4.39223E-03 1.43530E-22
4.50840E-03 1.36142E-22
4.62608E-03 1.29220E-22
4.74527E-03 1.22732E-22
4.86597E-03 1.16645E-22
4.98817E-03 1.10927E-22
5.11188E-03 1.05555E-22
5.23711E-03 1.00503E-22
5.36383E-03 9.57479E-23
5.49207E-03 9.12695E-23
5.62181E-03 8.70489E-23
5.75306E-03 8.30679E-23
5.88581E-03 7.93109E-23
6.02007E-03 7.57631E-23
6.15583E-03 7.24104E-23
6.29310E-03 6.92401E-23
6.43187E-03 6.62405E-23
6.57214E-03 6.34008E-23
6.71392E-03 6.07109E-23
6.85720E-03 5.81613E-23
7.00198E-03 5.57435E-23
7.14827E-03 5.34493E-23
7.29605E-03 5.12713E-23
7.44534E-03 4.92025E-23
7.59612E-03 4.72364E-23
7.97965E-03 4.27319E-23
8.37255E-03 3.87489E-23
8.77480E-03 3.52166E-23
9.18641E-03 3.20756E-23
9.60736E-03 2.92749E-23
1.00376E-02 2.67715E-23
1.04773E-02 2.45283E-23
1.09262E-02 2.25137E-23
1.13844E-02 2.07004E-23
1.18520E-02 1.90647E-23
1.23288E-02 1.75863E-23
1.28150E-02 1.62474E-23
1.33104E-02 1.50326E-23
1.38150E-02 1.39283E-23
1.43290E-02 1.29228E-23
1.48521E-02 1.20057E-23
1.53845E-02 1.11678E-23
1.59262E-02 1.04012E-23
1.64770E-02 9.69861E-24
1.70371E-02 9.05384E-24
1.76063E-02 8.46127E-24
1.81848E-02 7.91595E-24
1.87724E-02 7.41342E-24
1.93692E-02 6.94976E-24
1.99751E-02 6.52142E-24
2.05901E-02 6.12523E-24
2.12143E-02 5.75836E-24
2.18476E-02 5.41825E-24
2.24900E-02 5.10261E-24
2.31415E-02 4.80937E-24
2.38021E-02 4.53664E-24
2.44717E-02 4.28275E-24
2.51504E-02 4.04616E-24
2.58382E-02 3.82549E-24
2.65349E-02 3.61947E-24
2.72407E-02 3.42695E-24
2.79555E-02 3.24690E-24
2.86793E-02 3.07837E-24
2.94120E-02 2.92048E-24
3.01537E-02 2.77245E-24
3.09043E-02 2.63354E-24
3.16639E-02 2.50311E-24
3.24324E-02 2.38053E-24
3.32098E-02 2.26525E-24
3.39961E-02 2.15677E-24
3.47912E-02 2.05460E-24
3.55952E-02 1.95832E-24
3.64081E-02 1.86752E-24
3.72297E-02 1.78184E-24
3.80602E-02 1.70093E-24
3.88995E-02 1.62449E-24
3.97476E-02 1.55222E-24
4.06044E-02 1.48386E-24
4.14700E-02 1.41916E-24
4.23443E-02 1.35788E-24
4.32273E-02 1.29981E-24
4.41190E-02 1.24476E-24
4.50194E-02 1.19253E-24
4.59284E-02 1.14297E-24
4.68461E-02 1.09590E-24
4.87074E-02 1.00869E-24
5.06030E-02 9.29812E-25
5.25328E-02 8.58348E-25
5.44967E-02 7.93482E-25
5.64946E-02 7.34503E-25
5.85262E-02 6.80787E-25
6.05914E-02 6.31786E-25
6.26901E-02 5.87016E-25
6.48222E-02 5.46051E-25
6.69873E-02 5.08513E-25
6.91854E-02 4.74068E-25
7.14163E-02 4.42418E-25
7.36799E-02 4.13298E-25
7.59760E-02 3.86472E-25
7.83043E-02 3.61729E-25
8.06647E-02 3.38881E-25
8.30571E-02 3.17757E-25
8.54812E-02 2.98207E-25
8.79369E-02 2.80093E-25
9.04240E-02 2.63292E-25
9.29422E-02 2.47694E-25
9.54915E-02 2.33197E-25
9.80716E-02 2.19711E-25
1.00682E-01 2.07155E-25
1.03323E-01 1.95452E-25
1.05995E-01 1.84536E-25
1.08696E-01 1.74345E-25
1.11427E-01 1.64822E-25
1.14188E-01 1.55918E-25
1.16978E-01 1.47584E-25
1.19797E-01 1.39779E-25
1.22645E-01 1.32463E-25
1.25522E-01 1.25601E-25
1.28428E-01 1.19159E-25
1.31361E-01 1.13109E-25
1.34323E-01 1.07422E-25
1.37313E-01 1.02072E-25
1.40330E-01 9.70376E-26
1.43375E-01 9.22960E-26
1.46447E-01 8.78277E-26
1.49545E-01 8.36143E-26
1.52671E-01 7.96390E-26
1.55823E-01 7.58861E-26
1.59001E-01 7.23413E-26
1.62205E-01 6.89910E-26
1.65435E-01 6.58230E-26
1.68690E-01 6.28258E-26
1.71970E-01 5.99886E-26
1.75276E-01 5.73016E-26
1.78606E-01 5.47555E-26
1.81961E-01 5.23418E-26
1.85340E-01 5.00526E-26
1.88743E-01 4.78804E-26
1.92169E-01 4.58182E-26
1.95619E-01 4.38597E-26
1.99092E-01 4.19988E-26
2.02589E-01 4.02299E-26
2.06107E-01 3.85477E-26
2.09649E-01 3.69474E-26
2.13212E-01 3.54242E-26
2.16797E-01 3.39740E-26
2.20404E-01 3.25928E-26
2.24032E-01 3.12766E-26
2.27680E-01 3.00220E-26
2.31350E-01 2.88257E-26
2.35040E-01 2.76846E-26
2.38751E-01 2.65957E-26
2.42481E-01 2.55562E-26
2.46231E-01 2.45637E-26
2.50000E-01 2.36156E-26
2.53788E-01 2.27096E-26
2.57595E-01 2.18437E-26
2.61421E-01 2.10158E-26
2.65264E-01 2.02239E-26
2.69126E-01 1.94663E-26
2.73005E-01 1.87413E-26
2.76901E-01 1.80472E-26
2.80814E-01 1.73826E-26
2.84744E-01 1.67460E-26
2.88691E-01 1.61361E-26
2.92653E-01 1.55515E-26
2.96632E-01 1.49911E-26
3.00625E-01 1.44538E-26
3.04634E-01 1.39384E-26
3.08658E-01 1.34439E-26
3.12697E-01 1.29694E-26
3.16749E-01 1.25140E-26
3.20816E-01 1.20767E-26
3.24896E-01 1.16567E-26
3.28990E-01 1.12533E-26
3.33097E-01 1.08657E-26
3.37216E-01 1.04932E-26
3.41348E-01 1.01352E-26
3.45492E-01 9.79094E-27
3.49647E-01 9.45989E-27
3.53814E-01 9.14146E-27
3.57992E-01 8.83510E-27
3.62181E-01 8.54030E-27
3.66381E-01 8.25655E-27
3.70590E-01 7.98340E-27
3.74810E-01 7.72038E-27
3.79039E-01 7.46708E-27
3.83277E-01 7.22309E-27
3.87524E-01 6.98802E-27
3.91780E-01 6.76150E-27
3.96044E-01 6.54318E-27
4.00316E-01 6.33272E-27
4.04596E-01 6.12981E-27
4.08882E-01 5.93413E-27
4.13176E-01 5.74540E-27
4.17476E-01 5.56334E-27
4.21783E-01 5.38769E-27
4.26095E-01 5.21818E-27
4.30413E-01 5.05458E-27
4.34737E-01 4.89665E-27
4.39065E-01 4.74418E-27
4.43398E-01 4.59694E-27
4.47736E-01 4.45475E-27
4.52077E-01 4.31740E-27
4.56422E-01 4.18471E-27
4.60770E-01 4.05650E-27
4.65122E-01 3.93261E-27
4.69476E-01 3.81286E-27
4.73832E-01 3.69711E-27
4.78190E-01 3.58520E-27
4.82550E-01 3.47699E-27
4.86912E-01 3.37234E-27
4.91274E-01 3.27113E-27
4.95637E-01 3.17323E-27
5.00000E-01 3.07851E-27
5.04363E-01 2.98686E-27
5.08726E-01 2.89817E-27
5.13088E-01 2.81233E-27
5.17450E-01 2.72925E-27
5.21810E-01 2.64881E-27
5.26168E-01 2.57093E-27
5.30524E-01 2.49552E-27
5.34878E-01 2.42249E-27
5.39230E-01 2.35176E-27
5.43578E-01 2.28324E-27
5.47923E-01 2.21686E-27
5.52264E-01 2.15254E-27
5.56602E-01 2.09022E-27
5.60935E-01 2.02982E-27
5.65263E-01 1.97128E-27
5.69587E-01 1.91454E-27
5.73905E-01 1.85953E-27
5.78217E-01 1.80620E-27
5.82524E-01 1.75448E-27
5.86824E-01 1.70434E-27
5.91118E-01 1.65570E-27
5.95404E-01 1.60852E-27
5.99684E-01 1.56276E-27
6.03956E-01 1.51837E-27
6.08220E-01 1.47529E-27
6.12476E-01 1.43350E-27
6.16723E-01 1.39294E-27
6.20961E-01 1.35358E-27
6.25190E-01 1.31537E-27
6.29410E-01 1.27829E-27
6.33619E-01 1.24228E-27
6.37819E-01 1.20733E-27
6.42008E-01 1.17339E-27
6.46186E-01 1.14044E-27
6.50353E-01 1.10843E-27
6.54508E-01 1.07735E-27
6.58652E-01 1.04716E-27
6.62784E-01 1.01784E-27
6.66903E-01 9.89353E-28
6.71010E-01 9.61677E-28
6.75104E-01 9.34787E-28
6.79184E-01 9.08658E-28
6.83251E-01 8.83268E-28
6.87303E-01 8.58593E-28
6.91342E-01 8.34611E-28
6.95366E-01 8.11301E-28
6.99375E-01 7.88643E-28
7.03368E-01 7.66616E-28
7.07347E-01 7.45203E-28
7.11309E-01 7.24383E-28
7.15256E-01 7.04139E-28
7.19186E-01 6.84455E-28
7.23099E-01 6.65312E-28
7.26995E-01 6.46696E-28
7.30874E-01 6.28590E-28
7.34736E-01 6.10979E-28
7.38579E-01 5.93849E-28
7.42405E-01 5.77186E-28
7.46212E-01 5.60975E-28
7.50000E-01 5.45203E-28
7.53769E-01 5.29859E-28
7.57519E-01 5.14929E-28
7.61249E-01 5.00401E-28
7.64960E-01 4.86264E-28
7.68650E-01 4.72506E-28
7.72320E-01 4.59117E-28
7.75968E-01 4.46085E-28
7.79596E-01 4.33402E-28
7.83203E-01 4.21056E-28
7.86788E-01 4.09039E-28
7.90351E-01 3.97340E-28
7.93893E-01 3.85952E-28
7.97411E-01 3.74865E-28
8.00908E-01 3.64071E-28
8.04381E-01 3.53562E-28
8.07831E-01 3.43329E-28
8.11257E-01 3.33365E-28
8.14660E-01 3.23663E-28
8.18039E-01 3.14216E-28
8.21394E-01 3.05016E-28
8.24724E-01 2.96057E-28
8.28030E-01 2.87331E-28
8.31310E-01 2.78834E-28
8.34565E-01 2.70558E-28
8.37795E-01 2.62497E-28
8.40999E-01 2.54647E-28
8.44177E-01 2.47000E-28
8.47329E-01 2.39552E-28
8.50455E-01 2.32298E-28
8.53553E-01 2.25232E-28
8.56625E-01 2.18349E-28
8.59670E-01 2.11644E-28
8.62687E-01 2.05113E-28
8.65677E-01 1.98751E-28
8.68639E-01 1.92554E-28
8.71572E-01 1.86518E-28
8.74478E-01 1.80638E-28
8.77355E-01 1.74910E-28
8.80203E-01 1.69330E-28
8.83022E-01 1.63895E-28
8.85812E-01 1.58601E-28
8.88573E-01 1.53445E-28
8.91304E-01 1.48422E-28
8.94005E-01 1.43529E-28
8.96677E-01 1.38764E-28
8.99318E-01 1.34123E-28
9.01928E-01 1.29603E-28
9.04508E-01 1.25201E-28
9.07058E-01 1.20914E-28
9.09576E-01 1.16739E-28
9.12063E-01 1.12673E-28
9.14519E-01 1.08715E-28
9.16943E-01 1.04861E-28
9.19335E-01 1.01108E-28
9.21696E-01 9.74555E-29
9.24024E-01 9.38997E-29
9.26320E-01 9.04385E-29
9.28584E-01 8.70700E-29
9.30815E-01 8.37918E-29
9.33013E-01 8.06019E-29
9.35178E-01 7.74984E-29
9.37310E-01 7.44792E-29
9.39409E-01 7.15424E-29
9.41474E-01 6.86862E-29
9.43505E-01 6.59088E-29
9.45503E-01 6.32085E-29
9.47467E-01 6.05836E-29
9.49397E-01 5.80324E-29
9.51293E-01 5.55534E-29
9.53154E-01 5.31451E-29
9.54981E-01 5.08059E-29
9.56773E-01 4.85344E-29
9.58530E-01 4.63293E-29
9.60252E-01 4.41892E-29
9.61940E-01 4.21127E-29
9.63592E-01 4.00986E-29
9.65209E-01 3.81458E-29
9.66790E-01 3.62529E-29
9.68336E-01 3.44189E-29
9.69846E-01 3.26427E-29
9.71321E-01 3.09232E-29
9.72759E-01 2.92593E-29
9.74162E-01 2.76500E-29
9.75528E-01 2.60945E-29
9.76858E-01 2.45917E-29
9.78152E-01 2.31408E-29
9.79410E-01 2.17409E-29
9.80631E-01 2.03912E-29
9.81815E-01 1.90908E-29
9.82963E-01 1.78391E-29
9.84074E-01 1.66352E-29
9.85148E-01 1.54785E-29
9.86185E-01 1.43682E-29
9.87185E-01 1.33038E-29
9.88148E-01 1.22846E-29
9.89074E-01 1.13099E-29
9.89962E-01 1.03793E-29
9.90814E-01 9.49221E-30
9.91627E-01 8.64805E-30
9.92404E-01 7.84637E-30
9.93143E-01 7.08669E-30
9.93844E-01 6.36857E-30
9.94508E-01 5.69159E-30
9.95134E-01 5.05537E-30
9.95722E-01 4.45953E-30
9.96273E-01 3.90373E-30
9.96786E-01 3.38764E-30
9.97261E-01 2.91097E-30
9.97698E-01 2.47344E-30
9.98097E-01 2.07480E-30
9.98459E-01 1.71481E-30
9.98782E-01 1.39327E-30
9.99067E-01 1.11000E-30
9.99315E-01 8.64818E-31
9.99524E-01 6.57600E-31
9.99695E-01 4.88221E-31
9.99829E-01 3.56582E-31
9.99924E-01 2.62609E-31
9.99981E-01 2.06247E-31
1.00000E+00 1.87464E-31
