 #
 # Subroutine ELSEPA. Elastic scattering of electrons and positrons
 #                    by neutral atoms and positive ions
 #
 # Projectile: positron
 # Kinetic energy = 4.00000E+06 eV = 1.46997E+05 a.u.
 #
 # WARNING: High-energy factorization with free-atom DF screening.
 #          Absorption, polarization and exchange corrections are
 #          switched off.
 #          Phase shifts are calculated for the bare nucleus.
 #          Scattering amplitudes are not evaluated.
 #
 # Element: Se,  Z =  34,  atomic weight = 7.89600E+01 g/mol
 #
 # Nuclear model: Fermi distribution
 #                Average radius = 4.59042E-13 cm
 #                Skin thickness = 5.46000E-14 cm
 #
 # Number of electrons = 34
 #
 # Total elastic cross section = 2.64076E-18 cm**2 = 9.43034E-02 a0**2
 # 1st transport cross section = 7.61382E-23 cm**2 = 2.71894E-06 a0**2
 # 2nd transport cross section = 2.18846E-22 cm**2 = 7.81515E-06 a0**2
 #
 #
 # Differential cross section:                       MU=(1-COS(THETA))/2
 #
 #  THETA        MU          DCS          DCS        Sherman      error
 #  (deg)                 (cm**2/sr)   (a0**2/sr)    function
 #----------------------------------------------------------------------
0.00000E+00 4.00327E-13
7.61557E-13 4.00325E-13
1.18994E-12 4.00324E-13
1.71346E-12 4.00323E-13
2.33225E-12 4.00321E-13
3.04617E-12 4.00320E-13
3.85530E-12 4.00318E-13
4.75964E-12 4.00316E-13
5.75917E-12 4.00314E-13
6.85391E-12 4.00312E-13
8.04379E-12 4.00310E-13
9.32893E-12 4.00307E-13
1.07092E-11 4.00305E-13
1.21847E-11 4.00302E-13
1.37554E-11 4.00299E-13
1.54213E-11 4.00295E-13
1.71823E-11 4.00292E-13
1.90386E-11 4.00288E-13
2.09900E-11 4.00284E-13
2.30367E-11 4.00280E-13
2.51785E-11 4.00276E-13
2.74156E-11 4.00272E-13
2.97478E-11 4.00267E-13
3.21752E-11 4.00262E-13
3.46979E-11 4.00257E-13
3.73157E-11 4.00252E-13
4.00286E-11 4.00247E-13
4.28368E-11 4.00242E-13
4.57402E-11 4.00236E-13
4.87388E-11 4.00230E-13
5.18325E-11 4.00224E-13
5.50215E-11 4.00218E-13
5.83057E-11 4.00211E-13
6.16850E-11 4.00205E-13
6.51595E-11 4.00198E-13
6.87293E-11 4.00191E-13
7.23943E-11 4.00184E-13
7.61544E-11 4.00177E-13
1.18991E-10 4.00094E-13
1.71347E-10 3.99993E-13
2.33223E-10 3.99874E-13
3.04617E-10 3.99736E-13
3.85531E-10 3.99581E-13
4.75965E-10 3.99408E-13
5.75917E-10 3.99216E-13
6.85389E-10 3.99007E-13
8.04380E-10 3.98779E-13
9.32891E-10 3.98534E-13
1.07092E-09 3.98271E-13
1.21847E-09 3.97990E-13
1.37554E-09 3.97691E-13
1.54213E-09 3.97374E-13
1.71823E-09 3.97040E-13
1.90386E-09 3.96689E-13
2.09900E-09 3.96320E-13
2.30367E-09 3.95933E-13
2.51785E-09 3.95530E-13
2.74156E-09 3.95109E-13
2.97478E-09 3.94670E-13
3.21752E-09 3.94215E-13
3.46978E-09 3.93743E-13
3.73156E-09 3.93254E-13
4.00286E-09 3.92748E-13
4.28368E-09 3.92225E-13
4.57402E-09 3.91686E-13
4.87388E-09 3.91130E-13
5.18326E-09 3.90558E-13
5.50215E-09 3.89970E-13
5.83057E-09 3.89365E-13
6.16850E-09 3.88745E-13
6.51596E-09 3.88108E-13
6.87293E-09 3.87456E-13
7.23942E-09 3.86788E-13
7.61544E-09 3.86104E-13
1.18991E-08 3.78430E-13
1.71347E-08 3.69370E-13
2.33223E-08 3.59043E-13
3.04617E-08 3.47669E-13
3.85531E-08 3.35447E-13
4.75965E-08 3.22572E-13
5.75917E-08 3.09217E-13
6.85389E-08 2.95402E-13
8.04380E-08 2.81446E-13
9.32891E-08 2.67499E-13
1.07092E-07 2.53693E-13
1.21847E-07 2.40136E-13
1.37554E-07 2.26818E-13
1.54213E-07 2.13866E-13
1.71823E-07 2.01401E-13
1.90386E-07 1.89464E-13
2.09900E-07 1.78081E-13
2.30367E-07 1.67250E-13
2.51785E-07 1.56918E-13
2.74156E-07 1.47179E-13
2.97478E-07 1.38021E-13
3.21752E-07 1.29427E-13
3.46978E-07 1.21377E-13
3.73156E-07 1.13811E-13
4.00286E-07 1.06738E-13
4.28368E-07 1.00146E-13
4.57402E-07 9.40082E-14
4.87388E-07 8.82956E-14
5.18325E-07 8.29744E-14
5.50215E-07 7.80092E-14
5.83057E-07 7.33969E-14
6.16850E-07 6.91120E-14
6.51596E-07 6.51304E-14
6.87293E-07 6.14297E-14
7.23942E-07 5.79792E-14
7.61543E-07 5.47695E-14
1.18991E-06 3.24575E-14
1.71347E-06 2.08760E-14
2.33223E-06 1.42256E-14
3.04617E-06 1.01192E-14
3.85531E-06 7.41318E-15
4.75964E-06 5.54250E-15
5.75916E-06 4.20312E-15
6.85388E-06 3.21116E-15
8.04378E-06 2.48416E-15
9.32888E-06 1.94350E-15
1.07092E-05 1.53656E-15
1.21846E-05 1.22707E-15
1.37553E-05 9.88769E-16
1.54212E-05 8.04513E-16
1.71822E-05 6.60981E-16
1.90385E-05 5.47968E-16
2.09899E-05 4.58338E-16
2.30365E-05 3.86444E-16
2.51783E-05 3.28226E-16
2.74153E-05 2.80770E-16
2.97475E-05 2.41730E-16
3.21749E-05 2.09367E-16
3.46974E-05 1.82370E-16
3.73152E-05 1.59676E-16
4.00281E-05 1.40480E-16
4.28362E-05 1.24142E-16
4.57395E-05 1.10152E-16
4.87380E-05 9.81043E-17
5.18317E-05 8.76704E-17
5.50205E-05 7.85843E-17
5.83045E-05 7.06501E-17
6.16838E-05 6.36952E-17
6.51582E-05 5.75770E-17
6.87277E-05 5.21764E-17
7.23925E-05 4.73877E-17
7.61524E-05 4.31333E-17
9.21439E-05 3.02015E-17
1.09658E-04 2.17290E-17
1.28695E-04 1.59919E-17
1.49255E-04 1.20225E-17
1.71338E-04 9.20328E-18
1.94942E-04 7.15858E-18
2.20070E-04 5.64786E-18
2.46720E-04 4.51408E-18
2.74892E-04 3.65075E-18
3.04586E-04 2.98426E-18
3.35803E-04 2.46317E-18
3.68542E-04 2.05107E-18
4.02802E-04 1.72167E-18
4.38585E-04 1.45593E-18
4.75889E-04 1.23963E-18
5.14715E-04 1.06211E-18
5.55063E-04 9.15305E-19
5.96931E-04 7.93016E-19
6.40321E-04 6.90500E-19
6.85233E-04 6.04042E-19
7.31665E-04 5.30711E-19
7.79618E-04 4.68184E-19
8.29092E-04 4.14594E-19
8.80086E-04 3.68446E-19
9.32601E-04 3.28540E-19
9.86636E-04 2.93891E-19
1.04219E-03 2.63687E-19
1.09927E-03 2.37260E-19
1.15786E-03 2.14053E-19
1.21797E-03 1.93609E-19
1.27961E-03 1.75545E-19
1.34276E-03 1.59535E-19
1.40743E-03 1.45305E-19
1.47362E-03 1.32622E-19
1.54133E-03 1.21288E-19
1.61056E-03 1.11136E-19
1.68131E-03 1.02022E-19
1.75357E-03 9.38205E-20
1.82735E-03 8.64244E-20
1.90265E-03 7.97396E-20
1.97947E-03 7.36867E-20
2.05780E-03 6.81956E-20
2.13765E-03 6.32050E-20
2.21902E-03 5.86611E-20
2.30190E-03 5.45166E-20
2.38630E-03 5.07302E-20
2.47222E-03 4.72657E-20
2.55965E-03 4.40910E-20
2.64859E-03 4.11774E-20
2.73905E-03 3.84997E-20
2.83103E-03 3.60350E-20
2.92452E-03 3.37637E-20
3.01952E-03 3.16680E-20
3.11604E-03 2.97317E-20
3.21407E-03 2.79406E-20
3.31362E-03 2.62818E-20
3.41468E-03 2.47437E-20
3.51725E-03 2.33161E-20
3.62133E-03 2.19895E-20
3.72692E-03 2.07556E-20
3.83403E-03 1.96067E-20
3.94265E-03 1.85358E-20
4.05278E-03 1.75368E-20
4.16442E-03 1.66038E-20
4.27757E-03 1.57319E-20
4.39223E-03 1.49162E-20
4.50840E-03 1.41524E-20
4.62608E-03 1.34367E-20
4.74527E-03 1.27655E-20
4.86597E-03 1.21354E-20
4.98817E-03 1.15437E-20
5.11188E-03 1.09873E-20
5.23711E-03 1.04640E-20
5.36383E-03 9.97129E-21
5.49207E-03 9.50712E-21
5.62181E-03 9.06953E-21
5.75306E-03 8.65672E-21
5.88581E-03 8.26701E-21
6.02007E-03 7.89889E-21
6.15583E-03 7.55094E-21
6.29310E-03 7.22186E-21
6.43187E-03 6.91042E-21
6.57214E-03 6.61552E-21
6.71392E-03 6.33610E-21
6.85720E-03 6.07121E-21
7.00198E-03 5.81995E-21
7.14827E-03 5.58150E-21
7.29605E-03 5.35508E-21
7.44534E-03 5.13996E-21
7.59612E-03 4.93549E-21
7.97965E-03 4.46687E-21
8.37255E-03 4.05232E-21
8.77480E-03 3.68455E-21
9.18641E-03 3.35737E-21
9.60736E-03 3.06554E-21
1.00376E-02 2.80458E-21
1.04773E-02 2.57068E-21
1.09262E-02 2.36053E-21
1.13844E-02 2.17132E-21
1.18520E-02 2.00059E-21
1.23288E-02 1.84623E-21
1.28150E-02 1.70639E-21
1.33104E-02 1.57948E-21
1.38150E-02 1.46408E-21
1.43290E-02 1.35897E-21
1.48521E-02 1.26308E-21
1.53845E-02 1.17544E-21
1.59262E-02 1.09523E-21
1.64770E-02 1.02171E-21
1.70371E-02 9.54218E-22
1.76063E-02 8.92172E-22
1.81848E-02 8.35056E-22
1.87724E-02 7.82410E-22
1.93692E-02 7.33822E-22
1.99751E-02 6.88923E-22
2.05901E-02 6.47383E-22
2.12143E-02 6.08906E-22
2.18476E-02 5.73226E-22
2.24900E-02 5.40104E-22
2.31415E-02 5.09323E-22
2.38021E-02 4.80688E-22
2.44717E-02 4.54023E-22
2.51504E-02 4.29168E-22
2.58382E-02 4.05979E-22
2.65349E-02 3.84323E-22
2.72407E-02 3.64081E-22
2.79555E-02 3.45143E-22
2.86793E-02 3.27412E-22
2.94120E-02 3.10796E-22
3.01537E-02 2.95212E-22
3.09043E-02 2.80585E-22
3.16639E-02 2.66846E-22
3.24324E-02 2.53930E-22
3.32098E-02 2.41779E-22
3.39961E-02 2.30341E-22
3.47912E-02 2.19565E-22
3.55952E-02 2.09406E-22
3.64081E-02 1.99824E-22
3.72297E-02 1.90778E-22
3.80602E-02 1.82233E-22
3.88995E-02 1.74158E-22
3.97476E-02 1.66520E-22
4.06044E-02 1.59293E-22
4.14700E-02 1.52450E-22
4.23443E-02 1.45967E-22
4.32273E-02 1.39821E-22
4.41190E-02 1.33993E-22
4.50194E-02 1.28462E-22
4.59284E-02 1.23210E-22
4.68461E-02 1.18222E-22
4.87074E-02 1.08972E-22
5.06030E-02 1.00601E-22
5.25328E-02 9.30105E-23
5.44967E-02 8.61149E-23
5.64946E-02 7.98400E-23
5.85262E-02 7.41201E-23
6.05914E-02 6.88978E-23
6.26901E-02 6.41222E-23
6.48222E-02 5.97486E-23
6.69873E-02 5.57371E-23
6.91854E-02 5.20527E-23
7.14163E-02 4.86641E-23
7.36799E-02 4.55432E-23
7.59760E-02 4.26655E-23
7.83043E-02 4.00084E-23
8.06647E-02 3.75523E-23
8.30571E-02 3.52792E-23
8.54812E-02 3.31732E-23
8.79369E-02 3.12198E-23
9.04240E-02 2.94060E-23
9.29422E-02 2.77201E-23
9.54915E-02 2.61515E-23
9.80716E-02 2.46905E-23
1.00682E-01 2.33286E-23
1.03323E-01 2.20578E-23
1.05995E-01 2.08710E-23
1.08696E-01 1.97617E-23
1.11427E-01 1.87238E-23
1.14188E-01 1.77520E-23
1.16978E-01 1.68413E-23
1.19797E-01 1.59873E-23
1.22645E-01 1.51857E-23
1.25522E-01 1.44328E-23
1.28428E-01 1.37251E-23
1.31361E-01 1.30595E-23
1.34323E-01 1.24329E-23
1.37313E-01 1.18427E-23
1.40330E-01 1.12864E-23
1.43375E-01 1.07616E-23
1.46447E-01 1.02665E-23
1.49545E-01 9.79880E-24
1.52671E-01 9.35690E-24
1.55823E-01 8.93908E-24
1.59001E-01 8.54379E-24
1.62205E-01 8.16961E-24
1.65435E-01 7.81521E-24
1.68690E-01 7.47936E-24
1.71970E-01 7.16091E-24
1.75276E-01 6.85882E-24
1.78606E-01 6.57209E-24
1.81961E-01 6.29980E-24
1.85340E-01 6.04110E-24
1.88743E-01 5.79519E-24
1.92169E-01 5.56134E-24
1.95619E-01 5.33883E-24
1.99092E-01 5.12702E-24
2.02589E-01 4.92532E-24
2.06107E-01 4.73315E-24
2.09649E-01 4.54998E-24
2.13212E-01 4.37532E-24
2.16797E-01 4.20871E-24
2.20404E-01 4.04971E-24
2.24032E-01 3.89791E-24
2.27680E-01 3.75292E-24
2.31350E-01 3.61439E-24
2.35040E-01 3.48198E-24
2.38751E-01 3.35537E-24
2.42481E-01 3.23426E-24
2.46231E-01 3.11838E-24
2.50000E-01 3.00745E-24
2.53788E-01 2.90124E-24
2.57595E-01 2.79949E-24
2.61421E-01 2.70200E-24
2.65264E-01 2.60856E-24
2.69126E-01 2.51896E-24
2.73005E-01 2.43302E-24
2.76901E-01 2.35056E-24
2.80814E-01 2.27143E-24
2.84744E-01 2.19546E-24
2.88691E-01 2.12251E-24
2.92653E-01 2.05243E-24
2.96632E-01 1.98509E-24
3.00625E-01 1.92036E-24
3.04634E-01 1.85813E-24
3.08658E-01 1.79829E-24
3.12697E-01 1.74072E-24
3.16749E-01 1.68532E-24
3.20816E-01 1.63201E-24
3.24896E-01 1.58068E-24
3.28990E-01 1.53125E-24
3.33097E-01 1.48364E-24
3.37216E-01 1.43777E-24
3.41348E-01 1.39357E-24
3.45492E-01 1.35095E-24
3.49647E-01 1.30987E-24
3.53814E-01 1.27025E-24
3.57992E-01 1.23203E-24
3.62181E-01 1.19515E-24
3.66381E-01 1.15957E-24
3.70590E-01 1.12522E-24
3.74810E-01 1.09205E-24
3.79039E-01 1.06002E-24
3.83277E-01 1.02908E-24
3.87524E-01 9.99197E-25
3.91780E-01 9.70316E-25
3.96044E-01 9.42402E-25
4.00316E-01 9.15419E-25
4.04596E-01 8.89329E-25
4.08882E-01 8.64098E-25
4.13176E-01 8.39692E-25
4.17476E-01 8.16081E-25
4.21783E-01 7.93233E-25
4.26095E-01 7.71119E-25
4.30413E-01 7.49714E-25
4.34737E-01 7.28989E-25
4.39065E-01 7.08920E-25
4.43398E-01 6.89484E-25
4.47736E-01 6.70657E-25
4.52077E-01 6.52415E-25
4.56422E-01 6.34739E-25
4.60770E-01 6.17606E-25
4.65122E-01 6.00999E-25
4.69476E-01 5.84897E-25
4.73832E-01 5.69283E-25
4.78190E-01 5.54141E-25
4.82550E-01 5.39454E-25
4.86912E-01 5.25206E-25
4.91274E-01 5.11382E-25
4.95637E-01 4.97966E-25
5.00000E-01 4.84945E-25
5.04363E-01 4.72305E-25
5.08726E-01 4.60032E-25
5.13088E-01 4.48115E-25
5.17450E-01 4.36541E-25
5.21810E-01 4.25302E-25
5.26168E-01 4.14384E-25
5.30524E-01 4.03777E-25
5.34878E-01 3.93470E-25
5.39230E-01 3.83453E-25
5.43578E-01 3.73716E-25
5.47923E-01 3.64252E-25
5.52264E-01 3.55050E-25
5.56602E-01 3.46104E-25
5.60935E-01 3.37404E-25
5.65263E-01 3.28943E-25
5.69587E-01 3.20713E-25
5.73905E-01 3.12707E-25
5.78217E-01 3.04918E-25
5.82524E-01 2.97338E-25
5.86824E-01 2.89962E-25
5.91118E-01 2.82783E-25
5.95404E-01 2.75795E-25
5.99684E-01 2.68993E-25
6.03956E-01 2.62370E-25
6.08220E-01 2.55921E-25
6.12476E-01 2.49642E-25
6.16723E-01 2.43526E-25
6.20961E-01 2.37569E-25
6.25190E-01 2.31766E-25
6.29410E-01 2.26113E-25
6.33619E-01 2.20605E-25
6.37819E-01 2.15237E-25
6.42008E-01 2.10007E-25
6.46186E-01 2.04909E-25
6.50353E-01 1.99941E-25
6.54508E-01 1.95097E-25
6.58652E-01 1.90375E-25
6.62784E-01 1.85772E-25
6.66903E-01 1.81283E-25
6.71010E-01 1.76906E-25
6.75104E-01 1.72637E-25
6.79184E-01 1.68473E-25
6.83251E-01 1.64412E-25
6.87303E-01 1.60450E-25
6.91342E-01 1.56586E-25
6.95366E-01 1.52815E-25
6.99375E-01 1.49136E-25
7.03368E-01 1.45546E-25
7.07347E-01 1.42042E-25
7.11309E-01 1.38623E-25
7.15256E-01 1.35285E-25
7.19186E-01 1.32028E-25
7.23099E-01 1.28848E-25
7.26995E-01 1.25743E-25
7.30874E-01 1.22712E-25
7.34736E-01 1.19753E-25
7.38579E-01 1.16863E-25
7.42405E-01 1.14042E-25
7.46212E-01 1.11286E-25
7.50000E-01 1.08595E-25
7.53769E-01 1.05967E-25
7.57519E-01 1.03399E-25
7.61249E-01 1.00892E-25
7.64960E-01 9.84419E-26
7.68650E-01 9.60487E-26
7.72320E-01 9.37108E-26
7.75968E-01 9.14265E-26
7.79596E-01 8.91947E-26
7.83203E-01 8.70139E-26
7.86788E-01 8.48830E-26
7.90351E-01 8.28007E-26
7.93893E-01 8.07657E-26
7.97411E-01 7.87770E-26
8.00908E-01 7.68334E-26
8.04381E-01 7.49338E-26
8.07831E-01 7.30771E-26
8.11257E-01 7.12624E-26
8.14660E-01 6.94886E-26
8.18039E-01 6.77547E-26
8.21394E-01 6.60597E-26
8.24724E-01 6.44029E-26
8.28030E-01 6.27832E-26
8.31310E-01 6.11998E-26
8.34565E-01 5.96519E-26
8.37795E-01 5.81386E-26
8.40999E-01 5.66592E-26
8.44177E-01 5.52128E-26
8.47329E-01 5.37987E-26
8.50455E-01 5.24163E-26
8.53553E-01 5.10646E-26
8.56625E-01 4.97432E-26
8.59670E-01 4.84513E-26
8.62687E-01 4.71882E-26
8.65677E-01 4.59533E-26
8.68639E-01 4.47460E-26
8.71572E-01 4.35657E-26
8.74478E-01 4.24118E-26
8.77355E-01 4.12837E-26
8.80203E-01 4.01810E-26
8.83022E-01 3.91029E-26
8.85812E-01 3.80491E-26
8.88573E-01 3.70190E-26
8.91304E-01 3.60121E-26
8.94005E-01 3.50280E-26
8.96677E-01 3.40661E-26
8.99318E-01 3.31260E-26
9.01928E-01 3.22073E-26
9.04508E-01 3.13095E-26
9.07058E-01 3.04322E-26
9.09576E-01 2.95751E-26
9.12063E-01 2.87376E-26
9.14519E-01 2.79195E-26
9.16943E-01 2.71203E-26
9.19335E-01 2.63397E-26
9.21696E-01 2.55773E-26
9.24024E-01 2.48329E-26
9.26320E-01 2.41059E-26
9.28584E-01 2.33962E-26
9.30815E-01 2.27034E-26
9.33013E-01 2.20272E-26
9.35178E-01 2.13672E-26
9.37310E-01 2.07233E-26
9.39409E-01 2.00951E-26
9.41474E-01 1.94823E-26
9.43505E-01 1.88848E-26
9.45503E-01 1.83021E-26
9.47467E-01 1.77341E-26
9.49397E-01 1.71805E-26
9.51293E-01 1.66411E-26
9.53154E-01 1.61156E-26
9.54981E-01 1.56039E-26
9.56773E-01 1.51056E-26
9.58530E-01 1.46207E-26
9.60252E-01 1.41488E-26
9.61940E-01 1.36899E-26
9.63592E-01 1.32436E-26
9.65209E-01 1.28098E-26
9.66790E-01 1.23884E-26
9.68336E-01 1.19791E-26
9.69846E-01 1.15818E-26
9.71321E-01 1.11963E-26
9.72759E-01 1.08225E-26
9.74162E-01 1.04601E-26
9.75528E-01 1.01091E-26
9.76858E-01 9.76935E-27
9.78152E-01 9.44064E-27
9.79410E-01 9.12286E-27
9.80631E-01 8.81589E-27
9.81815E-01 8.51960E-27
9.82963E-01 8.23388E-27
9.84074E-01 7.95859E-27
9.85148E-01 7.69364E-27
9.86185E-01 7.43892E-27
9.87185E-01 7.19432E-27
9.88148E-01 6.95974E-27
9.89074E-01 6.73510E-27
9.89962E-01 6.52030E-27
9.90814E-01 6.31525E-27
9.91627E-01 6.11988E-27
9.92404E-01 5.93411E-27
9.93143E-01 5.75785E-27
9.93844E-01 5.59105E-27
9.94508E-01 5.43364E-27
9.95134E-01 5.28555E-27
9.95722E-01 5.14673E-27
9.96273E-01 5.01711E-27
9.96786E-01 4.89666E-27
9.97261E-01 4.78531E-27
9.97698E-01 4.68304E-27
9.98097E-01 4.58979E-27
9.98459E-01 4.50553E-27
9.98782E-01 4.43023E-27
9.99067E-01 4.36386E-27
9.99315E-01 4.30639E-27
9.99524E-01 4.25780E-27
9.99695E-01 4.21807E-27
9.99829E-01 4.18719E-27
9.99924E-01 4.16514E-27
9.99981E-01 4.15191E-27
1.00000E+00 4.14750E-27
