 #
 # Subroutine ELSEPA. Elastic scattering of electrons and positrons
 #                    by neutral atoms and positive ions
 #
 # Projectile: positron
 # Kinetic energy = 1.00000E+08 eV = 3.67493E+06 a.u.
 #
 # WARNING: High-energy factorization with free-atom DF screening.
 #          Absorption, polarization and exchange corrections are
 #          switched off.
 #          Phase shifts are calculated for the bare nucleus.
 #          Scattering amplitudes are not evaluated.
 #
 # Element: Se,  Z =  34,  atomic weight = 7.89600E+01 g/mol
 #
 # Nuclear model: Fermi distribution
 #                Average radius = 4.59042E-13 cm
 #                Skin thickness = 5.46000E-14 cm
 #
 # Number of electrons = 34
 #
 # Total elastic cross section = 2.60781E-18 cm**2 = 9.31266E-02 a0**2
 # 1st transport cross section = 2.26256E-25 cm**2 = 8.07975E-09 a0**2
 # 2nd transport cross section = 6.72050E-25 cm**2 = 2.39993E-08 a0**2
 #
 #
 # Differential cross section:                       MU=(1-COS(THETA))/2
 #
 #  THETA        MU          DCS          DCS        Sherman      error
 #  (deg)                 (cm**2/sr)   (a0**2/sr)    function
 #----------------------------------------------------------------------
0.00000E+00 1.98745E-10
7.61557E-13 1.98380E-10
1.18994E-12 1.98175E-10
1.71346E-12 1.97926E-10
2.33225E-12 1.97632E-10
3.04617E-12 1.97294E-10
3.85530E-12 1.96911E-10
4.75964E-12 1.96485E-10
5.75917E-12 1.96016E-10
6.85391E-12 1.95505E-10
8.04379E-12 1.94951E-10
9.32893E-12 1.94355E-10
1.07092E-11 1.93718E-10
1.21847E-11 1.93041E-10
1.37554E-11 1.92324E-10
1.54213E-11 1.91569E-10
1.71823E-11 1.90774E-10
1.90386E-11 1.89942E-10
2.09900E-11 1.89073E-10
2.30367E-11 1.88166E-10
2.51785E-11 1.87212E-10
2.74156E-11 1.86230E-10
2.97478E-11 1.85221E-10
3.21752E-11 1.84187E-10
3.46979E-11 1.83130E-10
3.73157E-11 1.82018E-10
4.00286E-11 1.80872E-10
4.28368E-11 1.79706E-10
4.57402E-11 1.78522E-10
4.87388E-11 1.77322E-10
5.18325E-11 1.76092E-10
5.50215E-11 1.74804E-10
5.83057E-11 1.73503E-10
6.16850E-11 1.72192E-10
6.51595E-11 1.70872E-10
6.87293E-11 1.69543E-10
7.23943E-11 1.68153E-10
7.61544E-11 1.66743E-10
1.18991E-10 1.52066E-10
1.71347E-10 1.36651E-10
2.33223E-10 1.21252E-10
3.04617E-10 1.06573E-10
3.85531E-10 9.30242E-11
4.75965E-10 8.08218E-11
5.75917E-10 7.00357E-11
6.85389E-10 6.06307E-11
8.04380E-10 5.24993E-11
9.32891E-10 4.55413E-11
1.07092E-09 3.96132E-11
1.21847E-09 3.45740E-11
1.37554E-09 3.02933E-11
1.54213E-09 2.66533E-11
1.71823E-09 2.35508E-11
1.90386E-09 2.09027E-11
2.09900E-09 1.86347E-11
2.30367E-09 1.66713E-11
2.51785E-09 1.49277E-11
2.74156E-09 1.34468E-11
2.97478E-09 1.21815E-11
3.21752E-09 1.10942E-11
3.46978E-09 1.01546E-11
3.73156E-09 9.27430E-12
4.00286E-09 8.48378E-12
4.28368E-09 7.79381E-12
4.57402E-09 7.18889E-12
4.87388E-09 6.65624E-12
5.18326E-09 6.17125E-12
5.50215E-09 5.70090E-12
5.83057E-09 5.28380E-12
6.16850E-09 4.91260E-12
6.51596E-09 4.58113E-12
6.87293E-09 4.28415E-12
7.23942E-09 3.98994E-12
7.61544E-09 3.71864E-12
1.18991E-08 1.96895E-12
1.71347E-08 1.10592E-12
2.33223E-08 6.52492E-13
3.04617E-08 4.05167E-13
3.85531E-08 2.63840E-13
4.75965E-08 1.79297E-13
5.75917E-08 1.26445E-13
6.85389E-08 9.19751E-14
8.04380E-08 6.86818E-14
9.32891E-08 5.24238E-14
1.07092E-07 4.07480E-14
1.21847E-07 3.21613E-14
1.37554E-07 2.57214E-14
1.54213E-07 2.08106E-14
1.71823E-07 1.70093E-14
1.90386E-07 1.40302E-14
2.09900E-07 1.16687E-14
2.30367E-07 9.77646E-15
2.51785E-07 8.24526E-15
2.74156E-07 7.00855E-15
2.97478E-07 5.98564E-15
3.21752E-07 5.14552E-15
3.46978E-07 4.44429E-15
3.73156E-07 3.85890E-15
4.00286E-07 3.36591E-15
4.28368E-07 2.94894E-15
4.57402E-07 2.59452E-15
4.87388E-07 2.29138E-15
5.18325E-07 2.03148E-15
5.50215E-07 1.80710E-15
5.83057E-07 1.61314E-15
6.16850E-07 1.44428E-15
6.51596E-07 1.29716E-15
6.87293E-07 1.16819E-15
7.23942E-07 1.05498E-15
7.61543E-07 9.55138E-16
1.18991E-06 3.97562E-16
1.71347E-06 1.94091E-16
2.33223E-06 1.05736E-16
3.04617E-06 6.24001E-17
3.85531E-06 3.91495E-17
4.75964E-06 2.57793E-17
5.75916E-06 1.76548E-17
6.85388E-06 1.24904E-17
8.04378E-06 9.08193E-18
9.32888E-06 6.75979E-18
1.07092E-05 5.13399E-18
1.21846E-05 3.96851E-18
1.37553E-05 3.11553E-18
1.54212E-05 2.47974E-18
1.71822E-05 1.99806E-18
1.90385E-05 1.62758E-18
2.09899E-05 1.33946E-18
2.30365E-05 1.11228E-18
2.51783E-05 9.31202E-19
2.74153E-05 7.85441E-19
2.97475E-05 6.67071E-19
3.21749E-05 5.70168E-19
3.46974E-05 4.90242E-19
3.73152E-05 4.23855E-19
4.00281E-05 3.68343E-19
4.28362E-05 3.21631E-19
4.57395E-05 2.82091E-19
4.87380E-05 2.48438E-19
5.18317E-05 2.19649E-19
5.50205E-05 1.94905E-19
5.83045E-05 1.73546E-19
6.16838E-05 1.55033E-19
6.51582E-05 1.38925E-19
6.87277E-05 1.24856E-19
7.23925E-05 1.12525E-19
7.61524E-05 1.01688E-19
9.21439E-05 6.94241E-20
1.09658E-04 4.89939E-20
1.28695E-04 3.55544E-20
1.49255E-04 2.64196E-20
1.71338E-04 2.00380E-20
1.94942E-04 1.54707E-20
2.20070E-04 1.21328E-20
2.46720E-04 9.64795E-21
2.74892E-04 7.76731E-21
3.04586E-04 6.32305E-21
3.35803E-04 5.19907E-21
3.68542E-04 4.31387E-21
4.02802E-04 3.60910E-21
4.38585E-04 3.04239E-21
4.75889E-04 2.58255E-21
5.14715E-04 2.20628E-21
5.55063E-04 1.89602E-21
5.96931E-04 1.63835E-21
6.40321E-04 1.42293E-21
6.85233E-04 1.24173E-21
7.31665E-04 1.08843E-21
7.79618E-04 9.58029E-22
8.29092E-04 8.46550E-22
8.80086E-04 7.50791E-22
9.32601E-04 6.68171E-22
9.86636E-04 5.96586E-22
1.04219E-03 5.34311E-22
1.09927E-03 4.79937E-22
1.15786E-03 4.32291E-22
1.21797E-03 3.90397E-22
1.27961E-03 3.53445E-22
1.34276E-03 3.20750E-22
1.40743E-03 2.91739E-22
1.47362E-03 2.65925E-22
1.54133E-03 2.42895E-22
1.61056E-03 2.22297E-22
1.68131E-03 2.03830E-22
1.75357E-03 1.87235E-22
1.82735E-03 1.72289E-22
1.90265E-03 1.58799E-22
1.97947E-03 1.46599E-22
2.05780E-03 1.35543E-22
2.13765E-03 1.25507E-22
2.21902E-03 1.16378E-22
2.30190E-03 1.08061E-22
2.38630E-03 1.00470E-22
2.47222E-03 9.35316E-23
2.55965E-03 8.71788E-23
2.64859E-03 8.13537E-23
2.73905E-03 7.60046E-23
2.83103E-03 7.10857E-23
2.92452E-03 6.65563E-23
3.01952E-03 6.23800E-23
3.11604E-03 5.85243E-23
3.21407E-03 5.49602E-23
3.31362E-03 5.16618E-23
3.41468E-03 4.86056E-23
3.51725E-03 4.57707E-23
3.62133E-03 4.31381E-23
3.72692E-03 4.06909E-23
3.83403E-03 3.84136E-23
3.94265E-03 3.62923E-23
4.05278E-03 3.43144E-23
4.16442E-03 3.24685E-23
4.27757E-03 3.07441E-23
4.39223E-03 2.91318E-23
4.50840E-03 2.76230E-23
4.62608E-03 2.62098E-23
4.74527E-03 2.48852E-23
4.86597E-03 2.36424E-23
4.98817E-03 2.24757E-23
5.11188E-03 2.13794E-23
5.23711E-03 2.03485E-23
5.36383E-03 1.93785E-23
5.49207E-03 1.84650E-23
5.62181E-03 1.76043E-23
5.75306E-03 1.67926E-23
5.88581E-03 1.60267E-23
6.02007E-03 1.53036E-23
6.15583E-03 1.46203E-23
6.29310E-03 1.39744E-23
6.43187E-03 1.33634E-23
6.57214E-03 1.27850E-23
6.71392E-03 1.22373E-23
6.85720E-03 1.17182E-23
7.00198E-03 1.12261E-23
7.14827E-03 1.07592E-23
7.29605E-03 1.03161E-23
7.44534E-03 9.89522E-24
7.59612E-03 9.49536E-24
7.97965E-03 8.57958E-24
8.37255E-03 7.77026E-24
8.77480E-03 7.05297E-24
9.18641E-03 6.41549E-24
9.60736E-03 5.84745E-24
1.00376E-02 5.34001E-24
1.04773E-02 4.88564E-24
1.09262E-02 4.47783E-24
1.13844E-02 4.11102E-24
1.18520E-02 3.78039E-24
1.23288E-02 3.48177E-24
1.28150E-02 3.21154E-24
1.33104E-02 2.96654E-24
1.38150E-02 2.74402E-24
1.43290E-02 2.54156E-24
1.48521E-02 2.35705E-24
1.53845E-02 2.18864E-24
1.59262E-02 2.03467E-24
1.64770E-02 1.89371E-24
1.70371E-02 1.76446E-24
1.76063E-02 1.64579E-24
1.81848E-02 1.53669E-24
1.87724E-02 1.43625E-24
1.93692E-02 1.34367E-24
1.99751E-02 1.25823E-24
2.05901E-02 1.17929E-24
2.12143E-02 1.10627E-24
2.18476E-02 1.03866E-24
2.24900E-02 9.75975E-25
2.31415E-02 9.17807E-25
2.38021E-02 8.63773E-25
2.44717E-02 8.13531E-25
2.51504E-02 7.66770E-25
2.58382E-02 7.23208E-25
2.65349E-02 6.82590E-25
2.72407E-02 6.44684E-25
2.79555E-02 6.09279E-25
2.86793E-02 5.76182E-25
2.94120E-02 5.45218E-25
3.01537E-02 5.16226E-25
3.09043E-02 4.89061E-25
3.16639E-02 4.63588E-25
3.24324E-02 4.39685E-25
3.32098E-02 4.17238E-25
3.39961E-02 3.96145E-25
3.47912E-02 3.76310E-25
3.55952E-02 3.57647E-25
3.64081E-02 3.40075E-25
3.72297E-02 3.23519E-25
3.80602E-02 3.07912E-25
3.88995E-02 2.93190E-25
3.97476E-02 2.79294E-25
4.06044E-02 2.66172E-25
4.14700E-02 2.53773E-25
4.23443E-02 2.42051E-25
4.32273E-02 2.30963E-25
4.41190E-02 2.20469E-25
4.50194E-02 2.10533E-25
4.59284E-02 2.01119E-25
4.68461E-02 1.92197E-25
4.87074E-02 1.75710E-25
5.06030E-02 1.60858E-25
5.25328E-02 1.47454E-25
5.44967E-02 1.35337E-25
5.64946E-02 1.24365E-25
5.85262E-02 1.14416E-25
6.05914E-02 1.05379E-25
6.26901E-02 9.71592E-26
6.48222E-02 8.96724E-26
6.69873E-02 8.28441E-26
6.91854E-02 7.66083E-26
7.14163E-02 7.09064E-26
7.36799E-02 6.56865E-26
7.59760E-02 6.09023E-26
7.83043E-02 5.65126E-26
8.06647E-02 5.24804E-26
8.30571E-02 4.87728E-26
8.54812E-02 4.53603E-26
8.79369E-02 4.22163E-26
9.04240E-02 3.93169E-26
9.29422E-02 3.66407E-26
9.54915E-02 3.41683E-26
9.80716E-02 3.18823E-26
1.00682E-01 2.97669E-26
1.03323E-01 2.78077E-26
1.05995E-01 2.59919E-26
1.08696E-01 2.43077E-26
1.11427E-01 2.27445E-26
1.14188E-01 2.12924E-26
1.16978E-01 1.99428E-26
1.19797E-01 1.86875E-26
1.22645E-01 1.75192E-26
1.25522E-01 1.64312E-26
1.28428E-01 1.54173E-26
1.31361E-01 1.44721E-26
1.34323E-01 1.35902E-26
1.37313E-01 1.27671E-26
1.40330E-01 1.19984E-26
1.43375E-01 1.12800E-26
1.46447E-01 1.06085E-26
1.49545E-01 9.98042E-27
1.52671E-01 9.39265E-27
1.55823E-01 8.84238E-27
1.59001E-01 8.32698E-27
1.62205E-01 7.84403E-27
1.65435E-01 7.39129E-27
1.68690E-01 6.96670E-27
1.71970E-01 6.56835E-27
1.75276E-01 6.19447E-27
1.78606E-01 5.84343E-27
1.81961E-01 5.51370E-27
1.85340E-01 5.20389E-27
1.88743E-01 4.91268E-27
1.92169E-01 4.63887E-27
1.95619E-01 4.38133E-27
1.99092E-01 4.13902E-27
2.02589E-01 3.91097E-27
2.06107E-01 3.69626E-27
2.09649E-01 3.49407E-27
2.13212E-01 3.30360E-27
2.16797E-01 3.12412E-27
2.20404E-01 2.95496E-27
2.24032E-01 2.79548E-27
2.27680E-01 2.64508E-27
2.31350E-01 2.50322E-27
2.35040E-01 2.36937E-27
2.38751E-01 2.24305E-27
2.42481E-01 2.12381E-27
2.46231E-01 2.01123E-27
2.50000E-01 1.90491E-27
2.53788E-01 1.80448E-27
2.57595E-01 1.70960E-27
2.61421E-01 1.61994E-27
2.65264E-01 1.53519E-27
2.69126E-01 1.45508E-27
2.73005E-01 1.37933E-27
2.76901E-01 1.30769E-27
2.80814E-01 1.23993E-27
2.84744E-01 1.17582E-27
2.88691E-01 1.11516E-27
2.92653E-01 1.05776E-27
2.96632E-01 1.00343E-27
3.00625E-01 9.51990E-28
3.04634E-01 9.03288E-28
3.08658E-01 8.57169E-28
3.12697E-01 8.13489E-28
3.16749E-01 7.72113E-28
3.20816E-01 7.32915E-28
3.24896E-01 6.95774E-28
3.28990E-01 6.60578E-28
3.33097E-01 6.27220E-28
3.37216E-01 5.95601E-28
3.41348E-01 5.65625E-28
3.45492E-01 5.37205E-28
3.49647E-01 5.10256E-28
3.53814E-01 4.84699E-28
3.57992E-01 4.60459E-28
3.62181E-01 4.37467E-28
3.66381E-01 4.15654E-28
3.70590E-01 3.94960E-28
3.74810E-01 3.75323E-28
3.79039E-01 3.56689E-28
3.83277E-01 3.39005E-28
3.87524E-01 3.22219E-28
3.91780E-01 3.06286E-28
3.96044E-01 2.91160E-28
4.00316E-01 2.76800E-28
4.04596E-01 2.63165E-28
4.08882E-01 2.50217E-28
4.13176E-01 2.37922E-28
4.17476E-01 2.26244E-28
4.21783E-01 2.15152E-28
4.26095E-01 2.04617E-28
4.30413E-01 1.94608E-28
4.34737E-01 1.85100E-28
4.39065E-01 1.76066E-28
4.43398E-01 1.67482E-28
4.47736E-01 1.59325E-28
4.52077E-01 1.51574E-28
4.56422E-01 1.44207E-28
4.60770E-01 1.37205E-28
4.65122E-01 1.30550E-28
4.69476E-01 1.24224E-28
4.73832E-01 1.18211E-28
4.78190E-01 1.12494E-28
4.82550E-01 1.07058E-28
4.86912E-01 1.01890E-28
4.91274E-01 9.69761E-29
4.95637E-01 9.23033E-29
5.00000E-01 8.78597E-29
5.04363E-01 8.36337E-29
5.08726E-01 7.96144E-29
5.13088E-01 7.57917E-29
5.17450E-01 7.21556E-29
5.21810E-01 6.86968E-29
5.26168E-01 6.54066E-29
5.30524E-01 6.22766E-29
5.34878E-01 5.92988E-29
5.39230E-01 5.64656E-29
5.43578E-01 5.37700E-29
5.47923E-01 5.12051E-29
5.52264E-01 4.87644E-29
5.56602E-01 4.64419E-29
5.60935E-01 4.42318E-29
5.65263E-01 4.21284E-29
5.69587E-01 4.01265E-29
5.73905E-01 3.82212E-29
5.78217E-01 3.64077E-29
5.82524E-01 3.46815E-29
5.86824E-01 3.30384E-29
5.91118E-01 3.14742E-29
5.95404E-01 2.99852E-29
5.99684E-01 2.85676E-29
6.03956E-01 2.72180E-29
6.08220E-01 2.59331E-29
6.12476E-01 2.47096E-29
6.16723E-01 2.35447E-29
6.20961E-01 2.24355E-29
6.25190E-01 2.13792E-29
6.29410E-01 2.03733E-29
6.33619E-01 1.94154E-29
6.37819E-01 1.85032E-29
6.42008E-01 1.76344E-29
6.46186E-01 1.68069E-29
6.50353E-01 1.60187E-29
6.54508E-01 1.52680E-29
6.58652E-01 1.45529E-29
6.62784E-01 1.38717E-29
6.66903E-01 1.32228E-29
6.71010E-01 1.26047E-29
6.75104E-01 1.20158E-29
6.79184E-01 1.14547E-29
6.83251E-01 1.09202E-29
6.87303E-01 1.04109E-29
6.91342E-01 9.92564E-30
6.95366E-01 9.46325E-30
6.99375E-01 9.02265E-30
7.03368E-01 8.60279E-30
7.07347E-01 8.20269E-30
7.11309E-01 7.82139E-30
7.15256E-01 7.45801E-30
7.19186E-01 7.11169E-30
7.23099E-01 6.78162E-30
7.26995E-01 6.46701E-30
7.30874E-01 6.16715E-30
7.34736E-01 5.88132E-30
7.38579E-01 5.60886E-30
7.42405E-01 5.34913E-30
7.46212E-01 5.10153E-30
7.50000E-01 4.86549E-30
7.53769E-01 4.64046E-30
7.57519E-01 4.42591E-30
7.61249E-01 4.22136E-30
7.64960E-01 4.02632E-30
7.68650E-01 3.84036E-30
7.72320E-01 3.66303E-30
7.75968E-01 3.49394E-30
7.79596E-01 3.33269E-30
7.83203E-01 3.17892E-30
7.86788E-01 3.03227E-30
7.90351E-01 2.89241E-30
7.93893E-01 2.75902E-30
7.97411E-01 2.63179E-30
8.00908E-01 2.51044E-30
8.04381E-01 2.39469E-30
8.07831E-01 2.28428E-30
8.11257E-01 2.17895E-30
8.14660E-01 2.07848E-30
8.18039E-01 1.98263E-30
8.21394E-01 1.89118E-30
8.24724E-01 1.80394E-30
8.28030E-01 1.72070E-30
8.31310E-01 1.64128E-30
8.34565E-01 1.56549E-30
8.37795E-01 1.49318E-30
8.40999E-01 1.42418E-30
8.44177E-01 1.35833E-30
8.47329E-01 1.29549E-30
8.50455E-01 1.23552E-30
8.53553E-01 1.17829E-30
8.56625E-01 1.12366E-30
8.59670E-01 1.07152E-30
8.62687E-01 1.02175E-30
8.65677E-01 9.74251E-31
8.68639E-01 9.28906E-31
8.71572E-01 8.85620E-31
8.74478E-01 8.44298E-31
8.77355E-01 8.04849E-31
8.80203E-01 7.67187E-31
8.83022E-01 7.31230E-31
8.85812E-01 6.96898E-31
8.88573E-01 6.64119E-31
8.91304E-01 6.32820E-31
8.94005E-01 6.02933E-31
8.96677E-01 5.74395E-31
8.99318E-01 5.47142E-31
9.01928E-01 5.21117E-31
9.04508E-01 4.96264E-31
9.07058E-01 4.72528E-31
9.09576E-01 4.49859E-31
9.12063E-01 4.28208E-31
9.14519E-01 4.07530E-31
9.16943E-01 3.87780E-31
9.19335E-01 3.68916E-31
9.21696E-01 3.50897E-31
9.24024E-01 3.33686E-31
9.26320E-01 3.17246E-31
9.28584E-01 3.01543E-31
9.30815E-01 2.86542E-31
9.33013E-01 2.72213E-31
9.35178E-01 2.58526E-31
9.37310E-01 2.45451E-31
9.39409E-01 2.32962E-31
9.41474E-01 2.21032E-31
9.43505E-01 2.09636E-31
9.45503E-01 1.98751E-31
9.47467E-01 1.88354E-31
9.49397E-01 1.78423E-31
9.51293E-01 1.68938E-31
9.53154E-01 1.59878E-31
9.54981E-01 1.51227E-31
9.56773E-01 1.42965E-31
9.58530E-01 1.35076E-31
9.60252E-01 1.27543E-31
9.61940E-01 1.20351E-31
9.63592E-01 1.13486E-31
9.65209E-01 1.06933E-31
9.66790E-01 1.00679E-31
9.68336E-01 9.47116E-32
9.69846E-01 8.90182E-32
9.71321E-01 8.35875E-32
9.72759E-01 7.84086E-32
9.74162E-01 7.34709E-32
9.75528E-01 6.87644E-32
9.76858E-01 6.42800E-32
9.78152E-01 6.00082E-32
9.79410E-01 5.59409E-32
9.80631E-01 5.20697E-32
9.81815E-01 4.83870E-32
9.82963E-01 4.48855E-32
9.84074E-01 4.15580E-32
9.85148E-01 3.83982E-32
9.86185E-01 3.53996E-32
9.87185E-01 3.25564E-32
9.88148E-01 2.98629E-32
9.89074E-01 2.73139E-32
9.89962E-01 2.49043E-32
9.90814E-01 2.26294E-32
9.91627E-01 2.04847E-32
9.92404E-01 1.84660E-32
9.93143E-01 1.65693E-32
9.93844E-01 1.47909E-32
9.94508E-01 1.31275E-32
9.95134E-01 1.15756E-32
9.95722E-01 1.01323E-32
9.96273E-01 8.79482E-33
9.96786E-01 7.56055E-33
9.97261E-01 6.42702E-33
9.97698E-01 5.39209E-33
9.98097E-01 4.45371E-33
9.98459E-01 3.61010E-33
9.98782E-01 2.85964E-33
9.99067E-01 2.20082E-33
9.99315E-01 1.63238E-33
9.99524E-01 1.15325E-33
9.99695E-01 7.62500E-34
9.99829E-01 4.59358E-34
9.99924E-01 2.43238E-34
9.99981E-01 1.13741E-34
1.00000E+00 7.06149E-35
