 #
 # Subroutine ELSEPA. Elastic scattering of electrons and positrons
 #                    by neutral atoms and positive ions
 #
 # Projectile: positron
 # Kinetic energy = 4.50000E+06 eV = 1.65372E+05 a.u.
 #
 # WARNING: High-energy factorization with free-atom DF screening.
 #          Absorption, polarization and exchange corrections are
 #          switched off.
 #          Phase shifts are calculated for the bare nucleus.
 #          Scattering amplitudes are not evaluated.
 #
 # Element: Se,  Z =  34,  atomic weight = 7.89600E+01 g/mol
 #
 # Nuclear model: Fermi distribution
 #                Average radius = 4.59042E-13 cm
 #                Skin thickness = 5.46000E-14 cm
 #
 # Number of electrons = 34
 #
 # Total elastic cross section = 2.63381E-18 cm**2 = 9.40550E-02 a0**2
 # 1st transport cross section = 6.26706E-23 cm**2 = 2.23801E-06 a0**2
 # 2nd transport cross section = 1.80326E-22 cm**2 = 6.43954E-06 a0**2
 #
 #
 # Differential cross section:                       MU=(1-COS(THETA))/2
 #
 #  THETA        MU          DCS          DCS        Sherman      error
 #  (deg)                 (cm**2/sr)   (a0**2/sr)    function
 #----------------------------------------------------------------------
0.00000E+00 4.93989E-13
7.61557E-13 4.93987E-13
1.18994E-12 4.93985E-13
1.71346E-12 4.93984E-13
2.33225E-12 4.93982E-13
3.04617E-12 4.93979E-13
3.85530E-12 4.93977E-13
4.75964E-12 4.93974E-13
5.75917E-12 4.93971E-13
6.85391E-12 4.93968E-13
8.04379E-12 4.93964E-13
9.32893E-12 4.93960E-13
1.07092E-11 4.93956E-13
1.21847E-11 4.93952E-13
1.37554E-11 4.93947E-13
1.54213E-11 4.93942E-13
1.71823E-11 4.93937E-13
1.90386E-11 4.93931E-13
2.09900E-11 4.93925E-13
2.30367E-11 4.93919E-13
2.51785E-11 4.93913E-13
2.74156E-11 4.93906E-13
2.97478E-11 4.93899E-13
3.21752E-11 4.93892E-13
3.46979E-11 4.93884E-13
3.73157E-11 4.93877E-13
4.00286E-11 4.93869E-13
4.28368E-11 4.93860E-13
4.57402E-11 4.93852E-13
4.87388E-11 4.93843E-13
5.18325E-11 4.93834E-13
5.50215E-11 4.93824E-13
5.83057E-11 4.93815E-13
6.16850E-11 4.93805E-13
6.51595E-11 4.93794E-13
6.87293E-11 4.93784E-13
7.23943E-11 4.93773E-13
7.61544E-11 4.93762E-13
1.18991E-10 4.93636E-13
1.71347E-10 4.93482E-13
2.33223E-10 4.93300E-13
3.04617E-10 4.93091E-13
3.85531E-10 4.92854E-13
4.75965E-10 4.92589E-13
5.75917E-10 4.92298E-13
6.85389E-10 4.91978E-13
8.04380E-10 4.91632E-13
9.32891E-10 4.91258E-13
1.07092E-09 4.90857E-13
1.21847E-09 4.90429E-13
1.37554E-09 4.89975E-13
1.54213E-09 4.89493E-13
1.71823E-09 4.88985E-13
1.90386E-09 4.88450E-13
2.09900E-09 4.87889E-13
2.30367E-09 4.87301E-13
2.51785E-09 4.86688E-13
2.74156E-09 4.86048E-13
2.97478E-09 4.85383E-13
3.21752E-09 4.84692E-13
3.46978E-09 4.83975E-13
3.73156E-09 4.83233E-13
4.00286E-09 4.82466E-13
4.28368E-09 4.81674E-13
4.57402E-09 4.80857E-13
4.87388E-09 4.80016E-13
5.18326E-09 4.79150E-13
5.50215E-09 4.78260E-13
5.83057E-09 4.77346E-13
6.16850E-09 4.76409E-13
6.51596E-09 4.75447E-13
6.87293E-09 4.74463E-13
7.23942E-09 4.73456E-13
7.61544E-09 4.72425E-13
1.18991E-08 4.60857E-13
1.71347E-08 4.47339E-13
2.33223E-08 4.32128E-13
3.04617E-08 4.15537E-13
3.85531E-08 3.97884E-13
4.75965E-08 3.79478E-13
5.75917E-08 3.60601E-13
6.85389E-08 3.41424E-13
8.04380E-08 3.22292E-13
9.32891E-08 3.03415E-13
1.07092E-07 2.84973E-13
1.21847E-07 2.67106E-13
1.37554E-07 2.49925E-13
1.54213E-07 2.33511E-13
1.71823E-07 2.17919E-13
1.90386E-07 2.03182E-13
2.09900E-07 1.89312E-13
2.30367E-07 1.76300E-13
2.51785E-07 1.64105E-13
2.74156E-07 1.52747E-13
2.97478E-07 1.42195E-13
3.21752E-07 1.32410E-13
3.46978E-07 1.23350E-13
3.73156E-07 1.14972E-13
4.00286E-07 1.07233E-13
4.28368E-07 1.00088E-13
4.57402E-07 9.34961E-14
4.87388E-07 8.74156E-14
5.18325E-07 8.18051E-14
5.50215E-07 7.66238E-14
5.83057E-07 7.18456E-14
6.16850E-07 6.74373E-14
6.51596E-07 6.33681E-14
6.87293E-07 5.96097E-14
7.23942E-07 5.61358E-14
7.61543E-07 5.29224E-14
1.18991E-06 3.08546E-14
1.71347E-06 1.97514E-14
2.33223E-06 1.34018E-14
3.04617E-06 9.44317E-15
3.85531E-06 6.82024E-15
4.75964E-06 5.01320E-15
5.75916E-06 3.73679E-15
6.85388E-06 2.81679E-15
8.04378E-06 2.15174E-15
9.32888E-06 1.66502E-15
1.07092E-05 1.30466E-15
1.21846E-05 1.03482E-15
1.37553E-05 8.30483E-16
1.54212E-05 6.74000E-16
1.71822E-05 5.52823E-16
1.90385E-05 4.57891E-16
2.09899E-05 3.82888E-16
2.30365E-05 3.22913E-16
2.51783E-05 2.74359E-16
2.74153E-05 2.34773E-16
2.97475E-05 2.02219E-16
3.21749E-05 1.75232E-16
3.46974E-05 1.52687E-16
3.73152E-05 1.33715E-16
4.00281E-05 1.17639E-16
4.28362E-05 1.03930E-16
4.57395E-05 9.21703E-17
4.87380E-05 8.20294E-17
5.18317E-05 7.32418E-17
5.50205E-05 6.55921E-17
5.83045E-05 5.89118E-17
6.16838E-05 5.30570E-17
6.51582E-05 4.79078E-17
6.87277E-05 4.33640E-17
7.23925E-05 3.93416E-17
7.61524E-05 3.57697E-17
9.21439E-05 2.49268E-17
1.09658E-04 1.78567E-17
1.28695E-04 1.31079E-17
1.49255E-04 9.82738E-18
1.71338E-04 7.50744E-18
1.94942E-04 5.83105E-18
2.20070E-04 4.59663E-18
2.46720E-04 3.67206E-18
2.74892E-04 2.96867E-18
3.04586E-04 2.42608E-18
3.35803E-04 2.00213E-18
3.68542E-04 1.66698E-18
4.02802E-04 1.39919E-18
4.38585E-04 1.18315E-18
4.75889E-04 1.00731E-18
5.14715E-04 8.62978E-19
5.55063E-04 7.43621E-19
5.96931E-04 6.44212E-19
6.40321E-04 5.60878E-19
6.85233E-04 4.90592E-19
7.31665E-04 4.30973E-19
7.79618E-04 3.80137E-19
8.29092E-04 3.36569E-19
8.80086E-04 2.99058E-19
9.32601E-04 2.66622E-19
9.86636E-04 2.38459E-19
1.04219E-03 2.13912E-19
1.09927E-03 1.92436E-19
1.15786E-03 1.73584E-19
1.21797E-03 1.56979E-19
1.27961E-03 1.42307E-19
1.34276E-03 1.29306E-19
1.40743E-03 1.17752E-19
1.47362E-03 1.07455E-19
1.54133E-03 9.82565E-20
1.61056E-03 9.00182E-20
1.68131E-03 8.26228E-20
1.75357E-03 7.59689E-20
1.82735E-03 6.99695E-20
1.90265E-03 6.45487E-20
1.97947E-03 5.96410E-20
2.05780E-03 5.51894E-20
2.13765E-03 5.11441E-20
2.21902E-03 4.74613E-20
2.30190E-03 4.41029E-20
2.38630E-03 4.10352E-20
2.47222E-03 3.82286E-20
2.55965E-03 3.56571E-20
2.64859E-03 3.32974E-20
2.73905E-03 3.11289E-20
2.83103E-03 2.91335E-20
2.92452E-03 2.72949E-20
3.01952E-03 2.55984E-20
3.11604E-03 2.40313E-20
3.21407E-03 2.25818E-20
3.31362E-03 2.12395E-20
3.41468E-03 1.99950E-20
3.51725E-03 1.88400E-20
3.62133E-03 1.77669E-20
3.72692E-03 1.67689E-20
3.83403E-03 1.58396E-20
3.94265E-03 1.49736E-20
4.05278E-03 1.41657E-20
4.16442E-03 1.34114E-20
4.27757E-03 1.27064E-20
4.39223E-03 1.20469E-20
4.50840E-03 1.14295E-20
4.62608E-03 1.08510E-20
4.74527E-03 1.03084E-20
4.86597E-03 9.79926E-21
4.98817E-03 9.32099E-21
5.11188E-03 8.87143E-21
5.23711E-03 8.44853E-21
5.36383E-03 8.05042E-21
5.49207E-03 7.67539E-21
5.62181E-03 7.32184E-21
5.75306E-03 6.98834E-21
5.88581E-03 6.67352E-21
6.02007E-03 6.37615E-21
6.15583E-03 6.09509E-21
6.29310E-03 5.82928E-21
6.43187E-03 5.57773E-21
6.57214E-03 5.33955E-21
6.71392E-03 5.11389E-21
6.85720E-03 4.89997E-21
7.00198E-03 4.69707E-21
7.14827E-03 4.50451E-21
7.29605E-03 4.32167E-21
7.44534E-03 4.14798E-21
7.59612E-03 3.98288E-21
7.97965E-03 3.60452E-21
8.37255E-03 3.26984E-21
8.77480E-03 2.97295E-21
9.18641E-03 2.70884E-21
9.60736E-03 2.47328E-21
1.00376E-02 2.26266E-21
1.04773E-02 2.07388E-21
1.09262E-02 1.90429E-21
1.13844E-02 1.75159E-21
1.18520E-02 1.61382E-21
1.23288E-02 1.48927E-21
1.28150E-02 1.37643E-21
1.33104E-02 1.27403E-21
1.38150E-02 1.18092E-21
1.43290E-02 1.09612E-21
1.48521E-02 1.01875E-21
1.53845E-02 9.48049E-22
1.59262E-02 8.83341E-22
1.64770E-02 8.24027E-22
1.70371E-02 7.69580E-22
1.76063E-02 7.19528E-22
1.81848E-02 6.73455E-22
1.87724E-02 6.30988E-22
1.93692E-02 5.91794E-22
1.99751E-02 5.55577E-22
2.05901E-02 5.22071E-22
2.12143E-02 4.91035E-22
2.18476E-02 4.62256E-22
2.24900E-02 4.35541E-22
2.31415E-02 4.10714E-22
2.38021E-02 3.87619E-22
2.44717E-02 3.66113E-22
2.51504E-02 3.46067E-22
2.58382E-02 3.27364E-22
2.65349E-02 3.09898E-22
2.72407E-02 2.93573E-22
2.79555E-02 2.78301E-22
2.86793E-02 2.64001E-22
2.94120E-02 2.50600E-22
3.01537E-02 2.38033E-22
3.09043E-02 2.26237E-22
3.16639E-02 2.15156E-22
3.24324E-02 2.04740E-22
3.32098E-02 1.94942E-22
3.39961E-02 1.85718E-22
3.47912E-02 1.77028E-22
3.55952E-02 1.68836E-22
3.64081E-02 1.61108E-22
3.72297E-02 1.53814E-22
3.80602E-02 1.46924E-22
3.88995E-02 1.40412E-22
3.97476E-02 1.34253E-22
4.06044E-02 1.28425E-22
4.14700E-02 1.22907E-22
4.23443E-02 1.17680E-22
4.32273E-02 1.12724E-22
4.41190E-02 1.08024E-22
4.50194E-02 1.03564E-22
4.59284E-02 9.93300E-23
4.68461E-02 9.53076E-23
4.87074E-02 8.78495E-23
5.06030E-02 8.10997E-23
5.25328E-02 7.49792E-23
5.44967E-02 6.94194E-23
5.64946E-02 6.43600E-23
5.85262E-02 5.97482E-23
6.05914E-02 5.55377E-23
6.26901E-02 5.16873E-23
6.48222E-02 4.81611E-23
6.69873E-02 4.49269E-23
6.91854E-02 4.19564E-23
7.14163E-02 3.92244E-23
7.36799E-02 3.67084E-23
7.59760E-02 3.43883E-23
7.83043E-02 3.22462E-23
8.06647E-02 3.02661E-23
8.30571E-02 2.84336E-23
8.54812E-02 2.67358E-23
8.79369E-02 2.51610E-23
9.04240E-02 2.36988E-23
9.29422E-02 2.23398E-23
9.54915E-02 2.10752E-23
9.80716E-02 1.98975E-23
1.00682E-01 1.87997E-23
1.03323E-01 1.77753E-23
1.05995E-01 1.68186E-23
1.08696E-01 1.59243E-23
1.11427E-01 1.50877E-23
1.14188E-01 1.43044E-23
1.16978E-01 1.35703E-23
1.19797E-01 1.28819E-23
1.22645E-01 1.22358E-23
1.25522E-01 1.16289E-23
1.28428E-01 1.10585E-23
1.31361E-01 1.05220E-23
1.34323E-01 1.00169E-23
1.37313E-01 9.54121E-24
1.40330E-01 9.09283E-24
1.43375E-01 8.66993E-24
1.46447E-01 8.27081E-24
1.49545E-01 7.89390E-24
1.52671E-01 7.53774E-24
1.55823E-01 7.20100E-24
1.59001E-01 6.88242E-24
1.62205E-01 6.58085E-24
1.65435E-01 6.29522E-24
1.68690E-01 6.02455E-24
1.71970E-01 5.76792E-24
1.75276E-01 5.52446E-24
1.78606E-01 5.29340E-24
1.81961E-01 5.07397E-24
1.85340E-01 4.86549E-24
1.88743E-01 4.66732E-24
1.92169E-01 4.47886E-24
1.95619E-01 4.29955E-24
1.99092E-01 4.12888E-24
2.02589E-01 3.96634E-24
2.06107E-01 3.81149E-24
2.09649E-01 3.66390E-24
2.13212E-01 3.52316E-24
2.16797E-01 3.38891E-24
2.20404E-01 3.26079E-24
2.24032E-01 3.13847E-24
2.27680E-01 3.02165E-24
2.31350E-01 2.91003E-24
2.35040E-01 2.80334E-24
2.38751E-01 2.70133E-24
2.42481E-01 2.60376E-24
2.46231E-01 2.51039E-24
2.50000E-01 2.42102E-24
2.53788E-01 2.33544E-24
2.57595E-01 2.25347E-24
2.61421E-01 2.17493E-24
2.65264E-01 2.09965E-24
2.69126E-01 2.02747E-24
2.73005E-01 1.95823E-24
2.76901E-01 1.89181E-24
2.80814E-01 1.82806E-24
2.84744E-01 1.76686E-24
2.88691E-01 1.70809E-24
2.92653E-01 1.65164E-24
2.96632E-01 1.59739E-24
3.00625E-01 1.54525E-24
3.04634E-01 1.49513E-24
3.08658E-01 1.44692E-24
3.12697E-01 1.40055E-24
3.16749E-01 1.35593E-24
3.20816E-01 1.31299E-24
3.24896E-01 1.27164E-24
3.28990E-01 1.23183E-24
3.33097E-01 1.19349E-24
3.37216E-01 1.15654E-24
3.41348E-01 1.12094E-24
3.45492E-01 1.08662E-24
3.49647E-01 1.05353E-24
3.53814E-01 1.02162E-24
3.57992E-01 9.90843E-25
3.62181E-01 9.61147E-25
3.66381E-01 9.32489E-25
3.70590E-01 9.04826E-25
3.74810E-01 8.78118E-25
3.79039E-01 8.52325E-25
3.83277E-01 8.27412E-25
3.87524E-01 8.03344E-25
3.91780E-01 7.80089E-25
3.96044E-01 7.57614E-25
4.00316E-01 7.35888E-25
4.04596E-01 7.14881E-25
4.08882E-01 6.94565E-25
4.13176E-01 6.74912E-25
4.17476E-01 6.55899E-25
4.21783E-01 6.37504E-25
4.26095E-01 6.19703E-25
4.30413E-01 6.02471E-25
4.34737E-01 5.85786E-25
4.39065E-01 5.69629E-25
4.43398E-01 5.53980E-25
4.47736E-01 5.38822E-25
4.52077E-01 5.24137E-25
4.56422E-01 5.09907E-25
4.60770E-01 4.96116E-25
4.65122E-01 4.82748E-25
4.69476E-01 4.69788E-25
4.73832E-01 4.57220E-25
4.78190E-01 4.45032E-25
4.82550E-01 4.33209E-25
4.86912E-01 4.21741E-25
4.91274E-01 4.10613E-25
4.95637E-01 3.99815E-25
5.00000E-01 3.89335E-25
5.04363E-01 3.79162E-25
5.08726E-01 3.69285E-25
5.13088E-01 3.59695E-25
5.17450E-01 3.50382E-25
5.21810E-01 3.41336E-25
5.26168E-01 3.32549E-25
5.30524E-01 3.24013E-25
5.34878E-01 3.15718E-25
5.39230E-01 3.07657E-25
5.43578E-01 2.99823E-25
5.47923E-01 2.92207E-25
5.52264E-01 2.84804E-25
5.56602E-01 2.77605E-25
5.60935E-01 2.70605E-25
5.65263E-01 2.63797E-25
5.69587E-01 2.57175E-25
5.73905E-01 2.50734E-25
5.78217E-01 2.44467E-25
5.82524E-01 2.38369E-25
5.86824E-01 2.32435E-25
5.91118E-01 2.26660E-25
5.95404E-01 2.21038E-25
5.99684E-01 2.15566E-25
6.03956E-01 2.10239E-25
6.08220E-01 2.05051E-25
6.12476E-01 2.00000E-25
6.16723E-01 1.95080E-25
6.20961E-01 1.90289E-25
6.25190E-01 1.85621E-25
6.29410E-01 1.81074E-25
6.33619E-01 1.76644E-25
6.37819E-01 1.72327E-25
6.42008E-01 1.68121E-25
6.46186E-01 1.64021E-25
6.50353E-01 1.60025E-25
6.54508E-01 1.56130E-25
6.58652E-01 1.52333E-25
6.62784E-01 1.48631E-25
6.66903E-01 1.45022E-25
6.71010E-01 1.41502E-25
6.75104E-01 1.38069E-25
6.79184E-01 1.34721E-25
6.83251E-01 1.31456E-25
6.87303E-01 1.28271E-25
6.91342E-01 1.25163E-25
6.95366E-01 1.22132E-25
6.99375E-01 1.19174E-25
7.03368E-01 1.16287E-25
7.07347E-01 1.13471E-25
7.11309E-01 1.10722E-25
7.15256E-01 1.08039E-25
7.19186E-01 1.05420E-25
7.23099E-01 1.02864E-25
7.26995E-01 1.00368E-25
7.30874E-01 9.79321E-26
7.34736E-01 9.55535E-26
7.38579E-01 9.32309E-26
7.42405E-01 9.09630E-26
7.46212E-01 8.87483E-26
7.50000E-01 8.65854E-26
7.53769E-01 8.44729E-26
7.57519E-01 8.24097E-26
7.61249E-01 8.03944E-26
7.64960E-01 7.84257E-26
7.68650E-01 7.65026E-26
7.72320E-01 7.46238E-26
7.75968E-01 7.27883E-26
7.79596E-01 7.09949E-26
7.83203E-01 6.92426E-26
7.86788E-01 6.75304E-26
7.90351E-01 6.58572E-26
7.93893E-01 6.42222E-26
7.97411E-01 6.26244E-26
8.00908E-01 6.10629E-26
8.04381E-01 5.95367E-26
8.07831E-01 5.80451E-26
8.11257E-01 5.65872E-26
8.14660E-01 5.51622E-26
8.18039E-01 5.37693E-26
8.21394E-01 5.24078E-26
8.24724E-01 5.10769E-26
8.28030E-01 4.97758E-26
8.31310E-01 4.85040E-26
8.34565E-01 4.72607E-26
8.37795E-01 4.60452E-26
8.40999E-01 4.48570E-26
8.44177E-01 4.36953E-26
8.47329E-01 4.25596E-26
8.50455E-01 4.14493E-26
8.53553E-01 4.03638E-26
8.56625E-01 3.93026E-26
8.59670E-01 3.82651E-26
8.62687E-01 3.72508E-26
8.65677E-01 3.62591E-26
8.68639E-01 3.52897E-26
8.71572E-01 3.43419E-26
8.74478E-01 3.34154E-26
8.77355E-01 3.25096E-26
8.80203E-01 3.16241E-26
8.83022E-01 3.07586E-26
8.85812E-01 2.99125E-26
8.88573E-01 2.90855E-26
8.91304E-01 2.82771E-26
8.94005E-01 2.74870E-26
8.96677E-01 2.67147E-26
8.99318E-01 2.59600E-26
9.01928E-01 2.52225E-26
9.04508E-01 2.45018E-26
9.07058E-01 2.37976E-26
9.09576E-01 2.31095E-26
9.12063E-01 2.24373E-26
9.14519E-01 2.17806E-26
9.16943E-01 2.11391E-26
9.19335E-01 2.05126E-26
9.21696E-01 1.99007E-26
9.24024E-01 1.93032E-26
9.26320E-01 1.87197E-26
9.28584E-01 1.81501E-26
9.30815E-01 1.75941E-26
9.33013E-01 1.70514E-26
9.35178E-01 1.65218E-26
9.37310E-01 1.60050E-26
9.39409E-01 1.55009E-26
9.41474E-01 1.50091E-26
9.43505E-01 1.45296E-26
9.45503E-01 1.40620E-26
9.47467E-01 1.36062E-26
9.49397E-01 1.31620E-26
9.51293E-01 1.27292E-26
9.53154E-01 1.23075E-26
9.54981E-01 1.18969E-26
9.56773E-01 1.14972E-26
9.58530E-01 1.11081E-26
9.60252E-01 1.07295E-26
9.61940E-01 1.03612E-26
9.63592E-01 1.00032E-26
9.65209E-01 9.65516E-27
9.66790E-01 9.31704E-27
9.68336E-01 8.98868E-27
9.69846E-01 8.66993E-27
9.71321E-01 8.36066E-27
9.72759E-01 8.06075E-27
9.74162E-01 7.77007E-27
9.75528E-01 7.48850E-27
9.76858E-01 7.21593E-27
9.78152E-01 6.95224E-27
9.79410E-01 6.69733E-27
9.80631E-01 6.45108E-27
9.81815E-01 6.21341E-27
9.82963E-01 5.98421E-27
9.84074E-01 5.76339E-27
9.85148E-01 5.55086E-27
9.86185E-01 5.34654E-27
9.87185E-01 5.15034E-27
9.88148E-01 4.96218E-27
9.89074E-01 4.78199E-27
9.89962E-01 4.60970E-27
9.90814E-01 4.44524E-27
9.91627E-01 4.28853E-27
9.92404E-01 4.13953E-27
9.93143E-01 3.99816E-27
9.93844E-01 3.86437E-27
9.94508E-01 3.73812E-27
9.95134E-01 3.61934E-27
9.95722E-01 3.50800E-27
9.96273E-01 3.40404E-27
9.96786E-01 3.30743E-27
9.97261E-01 3.21813E-27
9.97698E-01 3.13610E-27
9.98097E-01 3.06131E-27
9.98459E-01 2.99374E-27
9.98782E-01 2.93334E-27
9.99067E-01 2.88011E-27
9.99315E-01 2.83402E-27
9.99524E-01 2.79505E-27
9.99695E-01 2.76319E-27
9.99829E-01 2.73842E-27
9.99924E-01 2.72073E-27
9.99981E-01 2.71012E-27
1.00000E+00 2.70659E-27
