 #
 # Subroutine ELSEPA. Elastic scattering of electrons and positrons
 #                    by neutral atoms and positive ions
 #
 # Projectile: positron
 # Kinetic energy = 7.00000E+08 eV = 2.57245E+07 a.u.
 #
 # WARNING: High-energy factorization with free-atom DF screening.
 #          Absorption, polarization and exchange corrections are
 #          switched off.
 #          Phase shifts are calculated for the bare nucleus.
 #          Scattering amplitudes are not evaluated.
 #
 # Element: Se,  Z =  34,  atomic weight = 7.89600E+01 g/mol
 #
 # Nuclear model: Fermi distribution
 #                Average radius = 4.59042E-13 cm
 #                Skin thickness = 5.46000E-14 cm
 #
 # Number of electrons = 34
 #
 # Total elastic cross section = 2.60489E-18 cm**2 = 9.30222E-02 a0**2
 # 1st transport cross section = 4.75960E-27 cm**2 = 1.69969E-10 a0**2
 # 2nd transport cross section = 1.42755E-26 cm**2 = 5.09789E-10 a0**2
 #
 #
 # Differential cross section:                       MU=(1-COS(THETA))/2
 #
 #  THETA        MU          DCS          DCS        Sherman      error
 #  (deg)                 (cm**2/sr)   (a0**2/sr)    function
 #----------------------------------------------------------------------
0.00000E+00 9.65381E-09
7.61557E-13 8.84806E-09
1.18994E-12 8.43738E-09
1.71346E-12 7.97444E-09
2.33225E-12 7.47676E-09
3.04617E-12 6.95586E-09
3.85530E-12 6.42957E-09
4.75964E-12 5.91169E-09
5.75917E-12 5.41087E-09
6.85391E-12 4.93064E-09
8.04379E-12 4.48091E-09
9.32893E-12 4.06418E-09
1.07092E-11 3.67962E-09
1.21847E-11 3.32792E-09
1.37554E-11 3.00953E-09
1.54213E-11 2.72254E-09
1.71823E-11 2.46328E-09
1.90386E-11 2.23116E-09
2.09900E-11 2.02380E-09
2.30367E-11 1.83845E-09
2.51785E-11 1.67265E-09
2.74156E-11 1.52485E-09
2.97478E-11 1.39303E-09
3.21752E-11 1.27508E-09
3.46979E-11 1.16961E-09
3.73157E-11 1.07525E-09
4.00286E-11 9.90672E-10
4.28368E-11 9.14565E-10
4.57402E-11 8.46126E-10
4.87388E-11 7.82670E-10
5.18325E-11 7.25145E-10
5.50215E-11 6.73807E-10
5.83057E-11 6.27856E-10
6.16850E-11 5.86610E-10
6.51595E-11 5.49484E-10
6.87293E-11 5.15977E-10
7.23943E-11 4.85659E-10
7.61544E-11 4.55551E-10
1.18991E-10 2.59595E-10
1.71347E-10 1.59944E-10
2.33223E-10 1.03082E-10
3.04617E-10 6.81081E-11
3.85531E-10 4.62093E-11
4.75965E-10 3.21785E-11
5.75917E-10 2.29592E-11
6.85389E-10 1.67536E-11
8.04380E-10 1.25068E-11
9.32891E-10 9.53204E-12
1.07092E-09 7.40079E-12
1.21847E-09 5.84246E-12
1.37554E-09 4.68041E-12
1.54213E-09 3.79935E-12
1.71823E-09 3.11953E-12
1.90386E-09 2.58758E-12
2.09900E-09 2.16569E-12
2.30367E-09 1.82687E-12
2.51785E-09 1.55174E-12
2.74156E-09 1.32657E-12
2.97478E-09 1.14077E-12
3.21752E-09 9.86148E-13
3.46978E-09 8.56669E-13
3.73156E-09 7.47604E-13
4.00286E-09 6.55183E-13
4.28368E-09 5.76371E-13
4.57402E-09 5.08936E-13
4.87388E-09 4.50746E-13
5.18326E-09 4.00638E-13
5.50215E-09 3.57457E-13
5.83057E-09 3.19779E-13
6.16850E-09 2.86803E-13
6.51596E-09 2.58045E-13
6.87293E-09 2.32760E-13
7.23942E-09 2.10399E-13
7.61544E-09 1.90699E-13
1.18991E-08 7.97383E-14
1.71347E-08 3.89865E-14
2.33223E-08 2.12794E-14
3.04617E-08 1.25900E-14
3.85531E-08 7.92045E-15
4.75965E-08 5.22926E-15
5.75917E-08 3.58977E-15
6.85389E-08 2.54498E-15
8.04380E-08 1.85383E-15
9.32891E-08 1.38196E-15
1.07092E-07 1.05097E-15
1.21847E-07 8.13298E-16
1.37554E-07 6.39104E-16
1.54213E-07 5.09103E-16
1.71823E-07 4.10509E-16
1.90386E-07 3.34648E-16
2.09900E-07 2.75513E-16
2.30367E-07 2.28873E-16
2.51785E-07 1.91690E-16
2.74156E-07 1.61756E-16
2.97478E-07 1.37439E-16
3.21752E-07 1.17523E-16
3.46978E-07 1.01085E-16
3.73156E-07 8.74214E-17
4.00286E-07 7.59895E-17
4.28368E-07 6.63658E-17
4.57402E-07 5.82179E-17
4.87388E-07 5.12824E-17
5.18325E-07 4.53493E-17
5.50215E-07 4.02496E-17
5.83057E-07 3.58468E-17
6.16850E-07 3.20298E-17
6.51596E-07 2.87073E-17
6.87293E-07 2.58046E-17
7.23942E-07 2.32596E-17
7.61543E-07 2.10207E-17
1.18991E-06 8.61302E-18
1.71347E-06 4.15406E-18
2.33223E-06 2.24224E-18
3.04617E-06 1.31429E-18
3.85531E-06 8.20434E-19
4.75964E-06 5.38233E-19
5.75916E-06 3.67580E-19
6.85388E-06 2.59505E-19
8.04378E-06 1.88384E-19
9.32888E-06 1.40040E-19
1.07092E-05 1.06253E-19
1.21846E-05 8.20677E-20
1.37553E-05 6.43872E-20
1.54212E-05 5.12210E-20
1.71822E-05 4.12540E-20
1.90385E-05 3.35928E-20
2.09899E-05 2.76377E-20
2.30365E-05 2.29446E-20
2.51783E-05 1.92051E-20
2.74153E-05 1.61960E-20
2.97475E-05 1.37530E-20
3.21749E-05 1.17535E-20
3.46974E-05 1.01047E-20
3.73152E-05 8.73540E-21
4.00281E-05 7.59062E-21
4.28362E-05 6.62746E-21
4.57395E-05 5.81229E-21
4.87380E-05 5.11855E-21
5.18317E-05 4.52514E-21
5.50205E-05 4.01516E-21
5.83045E-05 3.57498E-21
6.16838E-05 3.19349E-21
6.51582E-05 2.86157E-21
6.87277E-05 2.57169E-21
7.23925E-05 2.31763E-21
7.61524E-05 2.07457E-21
9.21439E-05 1.41207E-21
1.09658E-04 9.93133E-22
1.28695E-04 7.17963E-22
1.49255E-04 5.31250E-22
1.71338E-04 4.01061E-22
1.94942E-04 3.08080E-22
2.20070E-04 2.40286E-22
2.46720E-04 1.89944E-22
2.74892E-04 1.51949E-22
3.04586E-04 1.22858E-22
3.35803E-04 1.00291E-22
3.68542E-04 8.25801E-23
4.02802E-04 6.85311E-23
4.38585E-04 5.72787E-23
4.75889E-04 4.81867E-23
5.14715E-04 4.07799E-23
5.55063E-04 3.47014E-23
5.96931E-04 2.96781E-23
6.40321E-04 2.55006E-23
6.85233E-04 2.20058E-23
7.31665E-04 1.90660E-23
7.79618E-04 1.65805E-23
8.29092E-04 1.44690E-23
8.80086E-04 1.26672E-23
9.32601E-04 1.11232E-23
9.86636E-04 9.79492E-24
1.04219E-03 8.64806E-24
1.09927E-03 7.65436E-24
1.15786E-03 6.79057E-24
1.21797E-03 6.03737E-24
1.27961E-03 5.37872E-24
1.34276E-03 4.80115E-24
1.40743E-03 4.29336E-24
1.47362E-03 3.84584E-24
1.54133E-03 3.45050E-24
1.61056E-03 3.10049E-24
1.68131E-03 2.78996E-24
1.75357E-03 2.51392E-24
1.82735E-03 2.26807E-24
1.90265E-03 2.04872E-24
1.97947E-03 1.85267E-24
2.05780E-03 1.67717E-24
2.13765E-03 1.51982E-24
2.21902E-03 1.37854E-24
2.30190E-03 1.25151E-24
2.38630E-03 1.13715E-24
2.47222E-03 1.03405E-24
2.55965E-03 9.41001E-25
2.64859E-03 8.56926E-25
2.73905E-03 7.80876E-25
2.83103E-03 7.12015E-25
2.92452E-03 6.49602E-25
3.01952E-03 5.92980E-25
3.11604E-03 5.41567E-25
3.21407E-03 4.94845E-25
3.31362E-03 4.52350E-25
3.41468E-03 4.13672E-25
3.51725E-03 3.78443E-25
3.62133E-03 3.46333E-25
3.72692E-03 3.17048E-25
3.83403E-03 2.90322E-25
3.94265E-03 2.65918E-25
4.05278E-03 2.43623E-25
4.16442E-03 2.23243E-25
4.27757E-03 2.04606E-25
4.39223E-03 1.87555E-25
4.50840E-03 1.71948E-25
4.62608E-03 1.57657E-25
4.74527E-03 1.44567E-25
4.86597E-03 1.32574E-25
4.98817E-03 1.21580E-25
5.11188E-03 1.11502E-25
5.23711E-03 1.02259E-25
5.36383E-03 9.37808E-26
5.49207E-03 8.60026E-26
5.62181E-03 7.88650E-26
5.75306E-03 7.23145E-26
5.88581E-03 6.63017E-26
6.02007E-03 6.07819E-26
6.15583E-03 5.57143E-26
6.29310E-03 5.10615E-26
6.43187E-03 4.67892E-26
6.57214E-03 4.28664E-26
6.71392E-03 3.92643E-26
6.85720E-03 3.59567E-26
7.00198E-03 3.29198E-26
7.14827E-03 3.01315E-26
7.29605E-03 2.75716E-26
7.44534E-03 2.52217E-26
7.59612E-03 2.30648E-26
7.97965E-03 1.84177E-26
8.37255E-03 1.46722E-26
8.77480E-03 1.16575E-26
9.18641E-03 9.23533E-27
9.60736E-03 7.29317E-27
1.00376E-02 5.73970E-27
1.04773E-02 4.50059E-27
1.09262E-02 3.51538E-27
1.13844E-02 2.73485E-27
1.18520E-02 2.11897E-27
1.23288E-02 1.63520E-27
1.28150E-02 1.25712E-27
1.33104E-02 9.63283E-28
1.38150E-02 7.36336E-28
1.43290E-02 5.62254E-28
1.48521E-02 4.29736E-28
1.53845E-02 3.29700E-28
1.59262E-02 2.54875E-28
1.64770E-02 1.99463E-28
1.70371E-02 1.58862E-28
1.76063E-02 1.29440E-28
1.81848E-02 1.08350E-28
1.87724E-02 9.33750E-29
1.93692E-02 8.28046E-29
1.99751E-02 7.53337E-29
2.05901E-02 6.99781E-29
2.12143E-02 6.60075E-29
2.18476E-02 6.28903E-29
2.24900E-02 6.02493E-29
2.31415E-02 5.78258E-29
2.38021E-02 5.54513E-29
2.44717E-02 5.30242E-29
2.51504E-02 5.04922E-29
2.58382E-02 4.78377E-29
2.65349E-02 4.50672E-29
2.72407E-02 4.22028E-29
2.79555E-02 3.92752E-29
2.86793E-02 3.63199E-29
2.94120E-02 3.33729E-29
3.01537E-02 3.04690E-29
3.09043E-02 2.76397E-29
3.16639E-02 2.49123E-29
3.24324E-02 2.23097E-29
3.32098E-02 1.98499E-29
3.39961E-02 1.75461E-29
3.47912E-02 1.54074E-29
3.55952E-02 1.34386E-29
3.64081E-02 1.16412E-29
3.72297E-02 1.00133E-29
3.80602E-02 8.55070E-30
3.88995E-02 7.24702E-30
3.97476E-02 6.09424E-30
4.06044E-02 5.08313E-30
4.14700E-02 4.20364E-30
4.23443E-02 3.44518E-30
4.32273E-02 2.79698E-30
4.41190E-02 2.24827E-30
4.50194E-02 1.78850E-30
4.59284E-02 1.40752E-30
4.68461E-02 1.09567E-30
4.87074E-02 6.43753E-31
5.06030E-02 3.68373E-31
5.25328E-02 2.16425E-31
5.44967E-02 1.45894E-31
5.64946E-02 1.24931E-31
5.85262E-02 1.30505E-31
6.05914E-02 1.46880E-31
6.26901E-02 1.64092E-31
6.48222E-02 1.76530E-31
6.69873E-02 1.81705E-31
6.91854E-02 1.79223E-31
7.14163E-02 1.69966E-31
7.36799E-02 1.55484E-31
7.59760E-02 1.37555E-31
7.83043E-02 1.17895E-31
8.06647E-02 9.79850E-32
8.30571E-02 7.89842E-32
8.54812E-02 6.17123E-32
8.79369E-02 4.66679E-32
9.04240E-02 3.40744E-32
9.29422E-02 2.39368E-32
9.54915E-02 1.61012E-32
9.80716E-02 1.03099E-32
1.00682E-01 6.24904E-33
1.03323E-01 3.58661E-33
1.05995E-01 2.00111E-33
1.08696E-01 1.20077E-33
1.11427E-01 9.35000E-34
1.14188E-01 9.99382E-34
1.16978E-01 1.23582E-33
1.19797E-01 1.52925E-33
1.22645E-01 1.80221E-33
1.25522E-01 2.00833E-33
1.28428E-01 2.12556E-33
1.31361E-01 2.14971E-33
1.34323E-01 2.08869E-33
1.37313E-01 1.95768E-33
1.40330E-01 1.77524E-33
1.43375E-01 1.56051E-33
1.46447E-01 1.33115E-33
1.49545E-01 1.10219E-33
1.52671E-01 8.85359E-34
1.55823E-01 6.89009E-34
1.59001E-01 5.18275E-34
1.62205E-01 3.75502E-34
1.65435E-01 2.60769E-34
1.68690E-01 1.72447E-34
1.71970E-01 1.07746E-34
1.75276E-01 6.31942E-35
1.78606E-01 3.50475E-35
1.81961E-01 1.96044E-35
1.85340E-01 1.34371E-35
1.88743E-01 1.35392E-35
1.92169E-01 1.74075E-35
1.95619E-01 2.30648E-35
1.99092E-01 2.90416E-35
2.02589E-01 3.43288E-35
2.06107E-01 3.83116E-35
2.09649E-01 4.06953E-35
2.13212E-01 4.14302E-35
2.16797E-01 4.06408E-35
2.20404E-01 3.85630E-35
2.24032E-01 3.54925E-35
2.27680E-01 3.17426E-35
2.31350E-01 2.76143E-35
2.35040E-01 2.33745E-35
2.38751E-01 1.92444E-35
2.42481E-01 1.53937E-35
2.46231E-01 1.19403E-35
2.50000E-01 8.95469E-36
2.53788E-01 6.46590E-36
2.57595E-01 4.46917E-36
2.61421E-01 2.93408E-36
2.65264E-01 1.81245E-36
2.69126E-01 1.04545E-36
2.73005E-01 5.69614E-37
2.76901E-01 3.21694E-37
2.80814E-01 2.42461E-37
2.84744E-01 2.78988E-37
2.88691E-01 3.86301E-37
2.92653E-01 5.27940E-37
2.96632E-01 6.75891E-37
3.00625E-01 8.10073E-37
3.04634E-01 9.17402E-37
3.08658E-01 9.90739E-37
3.12697E-01 1.02769E-36
3.16749E-01 1.02951E-36
3.20816E-01 9.99931E-37
3.24896E-01 9.44345E-37
3.28990E-01 8.68884E-37
3.33097E-01 7.79877E-37
3.37216E-01 6.83296E-37
3.41348E-01 5.84483E-37
3.45492E-01 4.87890E-37
3.49647E-01 3.97050E-37
3.53814E-01 3.14481E-37
3.57992E-01 2.41795E-37
3.62181E-01 1.79841E-37
3.66381E-01 1.28740E-37
3.70590E-01 8.80796E-38
3.74810E-01 5.70672E-38
3.79039E-01 3.46135E-38
3.83277E-01 1.94686E-38
3.87524E-01 1.03573E-38
3.91780E-01 5.98807E-39
3.96044E-01 5.17265E-39
4.00316E-01 6.82869E-39
4.04596E-01 1.00317E-38
4.08882E-01 1.40109E-38
4.13176E-01 1.81579E-38
4.17476E-01 2.20185E-38
4.21783E-01 2.52766E-38
4.26095E-01 2.77422E-38
4.30413E-01 2.93263E-38
4.34737E-01 3.00271E-38
4.39065E-01 2.98897E-38
4.43398E-01 2.90202E-38
4.47736E-01 2.75353E-38
4.52077E-01 2.55778E-38
4.56422E-01 2.32817E-38
4.60770E-01 2.07737E-38
4.65122E-01 1.81740E-38
4.69476E-01 1.55925E-38
4.73832E-01 1.31054E-38
4.78190E-01 1.07794E-38
4.82550E-01 8.66465E-39
4.86912E-01 6.78844E-39
4.91274E-01 5.16957E-39
4.95637E-01 3.81191E-39
5.00000E-01 1.00000E-45
5.04363E-01 1.00000E-45
5.08726E-01 1.00000E-45
5.13088E-01 1.00000E-45
5.17450E-01 1.00000E-45
5.21810E-01 1.00000E-45
5.26168E-01 1.00000E-45
5.30524E-01 1.00000E-45
5.34878E-01 1.00000E-45
5.39230E-01 1.00000E-45
5.43578E-01 1.00000E-45
5.47923E-01 1.00000E-45
5.52264E-01 1.00000E-45
5.56602E-01 1.00000E-45
5.60935E-01 1.00000E-45
5.65263E-01 1.00000E-45
5.69587E-01 1.00000E-45
5.73905E-01 1.00000E-45
5.78217E-01 1.00000E-45
5.82524E-01 1.00000E-45
5.86824E-01 1.00000E-45
5.91118E-01 1.00000E-45
5.95404E-01 1.00000E-45
5.99684E-01 1.00000E-45
6.03956E-01 1.00000E-45
6.08220E-01 1.00000E-45
6.12476E-01 1.00000E-45
6.16723E-01 1.00000E-45
6.20961E-01 1.00000E-45
6.25190E-01 1.00000E-45
6.29410E-01 1.00000E-45
6.33619E-01 1.00000E-45
6.37819E-01 1.00000E-45
6.42008E-01 1.00000E-45
6.46186E-01 1.00000E-45
6.50353E-01 1.00000E-45
6.54508E-01 1.00000E-45
6.58652E-01 1.00000E-45
6.62784E-01 1.00000E-45
6.66903E-01 1.00000E-45
6.71010E-01 1.00000E-45
6.75104E-01 1.00000E-45
6.79184E-01 1.00000E-45
6.83251E-01 1.00000E-45
6.87303E-01 1.00000E-45
6.91342E-01 1.00000E-45
6.95366E-01 1.00000E-45
6.99375E-01 1.00000E-45
7.03368E-01 1.00000E-45
7.07347E-01 1.00000E-45
7.11309E-01 1.00000E-45
7.15256E-01 1.00000E-45
7.19186E-01 1.00000E-45
7.23099E-01 1.00000E-45
7.26995E-01 1.00000E-45
7.30874E-01 1.00000E-45
7.34736E-01 1.00000E-45
7.38579E-01 1.00000E-45
7.42405E-01 1.00000E-45
7.46212E-01 1.00000E-45
7.50000E-01 1.00000E-45
7.53769E-01 1.00000E-45
7.57519E-01 1.00000E-45
7.61249E-01 1.00000E-45
7.64960E-01 1.00000E-45
7.68650E-01 1.00000E-45
7.72320E-01 1.00000E-45
7.75968E-01 1.00000E-45
7.79596E-01 1.00000E-45
7.83203E-01 1.00000E-45
7.86788E-01 1.00000E-45
7.90351E-01 1.00000E-45
7.93893E-01 1.00000E-45
7.97411E-01 1.00000E-45
8.00908E-01 1.00000E-45
8.04381E-01 1.00000E-45
8.07831E-01 1.00000E-45
8.11257E-01 1.00000E-45
8.14660E-01 1.00000E-45
8.18039E-01 1.00000E-45
8.21394E-01 1.00000E-45
8.24724E-01 1.00000E-45
8.28030E-01 1.00000E-45
8.31310E-01 1.00000E-45
8.34565E-01 1.00000E-45
8.37795E-01 1.00000E-45
8.40999E-01 1.00000E-45
8.44177E-01 1.00000E-45
8.47329E-01 1.00000E-45
8.50455E-01 1.00000E-45
8.53553E-01 1.00000E-45
8.56625E-01 1.00000E-45
8.59670E-01 1.00000E-45
8.62687E-01 1.00000E-45
8.65677E-01 1.00000E-45
8.68639E-01 1.00000E-45
8.71572E-01 1.00000E-45
8.74478E-01 1.00000E-45
8.77355E-01 1.00000E-45
8.80203E-01 1.00000E-45
8.83022E-01 1.00000E-45
8.85812E-01 1.00000E-45
8.88573E-01 1.00000E-45
8.91304E-01 1.00000E-45
8.94005E-01 1.00000E-45
8.96677E-01 1.00000E-45
8.99318E-01 1.00000E-45
9.01928E-01 1.00000E-45
9.04508E-01 1.00000E-45
9.07058E-01 1.00000E-45
9.09576E-01 1.00000E-45
9.12063E-01 1.00000E-45
9.14519E-01 1.00000E-45
9.16943E-01 1.00000E-45
9.19335E-01 1.00000E-45
9.21696E-01 1.00000E-45
9.24024E-01 1.00000E-45
9.26320E-01 1.00000E-45
9.28584E-01 1.00000E-45
9.30815E-01 1.00000E-45
9.33013E-01 1.00000E-45
9.35178E-01 1.00000E-45
9.37310E-01 1.00000E-45
9.39409E-01 1.00000E-45
9.41474E-01 1.00000E-45
9.43505E-01 1.00000E-45
9.45503E-01 1.00000E-45
9.47467E-01 1.00000E-45
9.49397E-01 1.00000E-45
9.51293E-01 1.00000E-45
9.53154E-01 1.00000E-45
9.54981E-01 1.00000E-45
9.56773E-01 1.00000E-45
9.58530E-01 1.00000E-45
9.60252E-01 1.00000E-45
9.61940E-01 1.00000E-45
9.63592E-01 1.00000E-45
9.65209E-01 1.00000E-45
9.66790E-01 1.00000E-45
9.68336E-01 1.00000E-45
9.69846E-01 1.00000E-45
9.71321E-01 1.00000E-45
9.72759E-01 1.00000E-45
9.74162E-01 1.00000E-45
9.75528E-01 1.00000E-45
9.76858E-01 1.00000E-45
9.78152E-01 1.00000E-45
9.79410E-01 1.00000E-45
9.80631E-01 1.00000E-45
9.81815E-01 1.00000E-45
9.82963E-01 1.00000E-45
9.84074E-01 1.00000E-45
9.85148E-01 1.00000E-45
9.86185E-01 1.00000E-45
9.87185E-01 1.00000E-45
9.88148E-01 1.00000E-45
9.89074E-01 1.00000E-45
9.89962E-01 1.00000E-45
9.90814E-01 1.00000E-45
9.91627E-01 1.00000E-45
9.92404E-01 1.00000E-45
9.93143E-01 1.00000E-45
9.93844E-01 1.00000E-45
9.94508E-01 1.00000E-45
9.95134E-01 1.00000E-45
9.95722E-01 1.00000E-45
9.96273E-01 1.00000E-45
9.96786E-01 1.00000E-45
9.97261E-01 1.00000E-45
9.97698E-01 1.00000E-45
9.98097E-01 1.00000E-45
9.98459E-01 1.00000E-45
9.98782E-01 1.00000E-45
9.99067E-01 1.00000E-45
9.99315E-01 1.00000E-45
9.99524E-01 1.00000E-45
9.99695E-01 1.00000E-45
9.99829E-01 1.00000E-45
9.99924E-01 1.00000E-45
9.99981E-01 1.00000E-45
1.00000E+00 1.00000E-45
