 #
 # Subroutine ELSEPA. Elastic scattering of electrons and positrons
 #                    by neutral atoms and positive ions
 #
 # Projectile: positron
 # Kinetic energy = 3.50000E+07 eV = 1.28623E+06 a.u.
 #
 # WARNING: High-energy factorization with free-atom DF screening.
 #          Absorption, polarization and exchange corrections are
 #          switched off.
 #          Phase shifts are calculated for the bare nucleus.
 #          Scattering amplitudes are not evaluated.
 #
 # Element: Se,  Z =  34,  atomic weight = 7.89600E+01 g/mol
 #
 # Nuclear model: Fermi distribution
 #                Average radius = 4.59042E-13 cm
 #                Skin thickness = 5.46000E-14 cm
 #
 # Number of electrons = 34
 #
 # Total elastic cross section = 2.60890E-18 cm**2 = 9.31653E-02 a0**2
 # 1st transport cross section = 1.66945E-24 cm**2 = 5.96170E-08 a0**2
 # 2nd transport cross section = 4.87973E-24 cm**2 = 1.74258E-07 a0**2
 #
 #
 # Differential cross section:                       MU=(1-COS(THETA))/2
 #
 #  THETA        MU          DCS          DCS        Sherman      error
 #  (deg)                 (cm**2/sr)   (a0**2/sr)    function
 #----------------------------------------------------------------------
0.00000E+00 2.48082E-11
7.61557E-13 2.48024E-11
1.18994E-12 2.47992E-11
1.71346E-12 2.47953E-11
2.33225E-12 2.47906E-11
3.04617E-12 2.47853E-11
3.85530E-12 2.47793E-11
4.75964E-12 2.47725E-11
5.75917E-12 2.47651E-11
6.85391E-12 2.47569E-11
8.04379E-12 2.47481E-11
9.32893E-12 2.47385E-11
1.07092E-11 2.47283E-11
1.21847E-11 2.47173E-11
1.37554E-11 2.47057E-11
1.54213E-11 2.46934E-11
1.71823E-11 2.46803E-11
1.90386E-11 2.46666E-11
2.09900E-11 2.46522E-11
2.30367E-11 2.46371E-11
2.51785E-11 2.46213E-11
2.74156E-11 2.46048E-11
2.97478E-11 2.45876E-11
3.21752E-11 2.45698E-11
3.46979E-11 2.45513E-11
3.73157E-11 2.45321E-11
4.00286E-11 2.45122E-11
4.28368E-11 2.44917E-11
4.57402E-11 2.44705E-11
4.87388E-11 2.44486E-11
5.18325E-11 2.44261E-11
5.50215E-11 2.44029E-11
5.83057E-11 2.43790E-11
6.16850E-11 2.43545E-11
6.51595E-11 2.43294E-11
6.87293E-11 2.43035E-11
7.23943E-11 2.42771E-11
7.61544E-11 2.42500E-11
1.18991E-10 2.39445E-11
1.71347E-10 2.35790E-11
2.33223E-10 2.31544E-11
3.04617E-10 2.26829E-11
3.85531E-10 2.21648E-11
4.75965E-10 2.16038E-11
5.75917E-10 2.10140E-11
6.85389E-10 2.03904E-11
8.04380E-10 1.97436E-11
9.32891E-10 1.90864E-11
1.07092E-09 1.84072E-11
1.21847E-09 1.77243E-11
1.37554E-09 1.70465E-11
1.54213E-09 1.63563E-11
1.71823E-09 1.56791E-11
1.90386E-09 1.50144E-11
2.09900E-09 1.43517E-11
2.30367E-09 1.37103E-11
2.51785E-09 1.30855E-11
2.74156E-09 1.24735E-11
2.97478E-09 1.18869E-11
3.21752E-09 1.13184E-11
3.46978E-09 1.07694E-11
3.73156E-09 1.02469E-11
4.00286E-09 9.74243E-12
4.28368E-09 9.26059E-12
4.57402E-09 8.80422E-12
4.87388E-09 8.36490E-12
5.18326E-09 7.94873E-12
5.50215E-09 7.55584E-12
5.83057E-09 7.17847E-12
6.16850E-09 6.82310E-12
6.51596E-09 6.48741E-12
6.87293E-09 6.16722E-12
7.23942E-09 5.86609E-12
7.61544E-09 5.58139E-12
1.18991E-08 3.47122E-12
1.71347E-08 2.27531E-12
2.33223E-08 1.56087E-12
3.04617E-08 1.13040E-12
3.85531E-08 8.43785E-13
4.75965E-08 6.43735E-13
5.75917E-08 5.03030E-13
6.85389E-08 3.96073E-13
8.04380E-08 3.15341E-13
9.32891E-08 2.54267E-13
1.07092E-07 2.05316E-13
1.21847E-07 1.67357E-13
1.37554E-07 1.37610E-13
1.54213E-07 1.13375E-13
1.71823E-07 9.42370E-14
1.90386E-07 7.88518E-14
2.09900E-07 6.62879E-14
2.30367E-07 5.61336E-14
2.51785E-07 4.78126E-14
2.74156E-07 4.09479E-14
2.97478E-07 3.52847E-14
3.21752E-07 3.05635E-14
3.46978E-07 2.66110E-14
3.73156E-07 2.32895E-14
4.00286E-07 2.04747E-14
4.28368E-07 1.80817E-14
4.57402E-07 1.60374E-14
4.87388E-07 1.42755E-14
5.18325E-07 1.27553E-14
5.50215E-07 1.14381E-14
5.83057E-07 1.02885E-14
6.16850E-07 9.28388E-15
6.51596E-07 8.40208E-15
6.87293E-07 7.62324E-15
7.23942E-07 6.93485E-15
7.61543E-07 6.32355E-15
1.18991E-06 2.78474E-15
1.71347E-06 1.40533E-15
2.33223E-06 7.78781E-16
3.04617E-06 4.64275E-16
3.85531E-06 2.93083E-16
4.75964E-06 1.93961E-16
5.75916E-06 1.33427E-16
6.85388E-06 9.48026E-17
8.04378E-06 6.92241E-17
9.32888E-06 5.17309E-17
1.07092E-05 3.94407E-17
1.21846E-05 3.05978E-17
1.37553E-05 2.41014E-17
1.54212E-05 1.92426E-17
1.71822E-05 1.55486E-17
1.90385E-05 1.26981E-17
2.09899E-05 1.04747E-17
2.30365E-05 8.71644E-18
2.51783E-05 7.31131E-18
2.74153E-05 6.17747E-18
2.97475E-05 5.25460E-18
3.21749E-05 4.49759E-18
3.46974E-05 3.87198E-18
3.73152E-05 3.35146E-18
4.00281E-05 2.91553E-18
4.28362E-05 2.54815E-18
4.57395E-05 2.23679E-18
4.87380E-05 1.97145E-18
5.18317E-05 1.74421E-18
5.50205E-05 1.54871E-18
5.83045E-05 1.37978E-18
6.16838E-05 1.23324E-18
6.51582E-05 1.10564E-18
6.87277E-05 9.94114E-19
7.23925E-05 8.96295E-19
7.61524E-05 8.10215E-19
9.21439E-05 5.53820E-19
1.09658E-04 3.91190E-19
1.28695E-04 2.84073E-19
1.49255E-04 2.11197E-19
1.71338E-04 1.60248E-19
1.94942E-04 1.23762E-19
2.20070E-04 9.70863E-20
2.46720E-04 7.72198E-20
2.74892E-04 6.21795E-20
3.04586E-04 5.06265E-20
3.35803E-04 4.16333E-20
3.68542E-04 3.45496E-20
4.02802E-04 2.89089E-20
4.38585E-04 2.43725E-20
4.75889E-04 2.06911E-20
5.14715E-04 1.76784E-20
5.55063E-04 1.51941E-20
5.96931E-04 1.31307E-20
6.40321E-04 1.14055E-20
6.85233E-04 9.95420E-21
7.31665E-04 8.72625E-21
7.79618E-04 7.68170E-21
8.29092E-04 6.78863E-21
8.80086E-04 6.02147E-21
9.32601E-04 5.35952E-21
9.86636E-04 4.78593E-21
1.04219E-03 4.28694E-21
1.09927E-03 3.85121E-21
1.15786E-03 3.46936E-21
1.21797E-03 3.13361E-21
1.27961E-03 2.83743E-21
1.34276E-03 2.57537E-21
1.40743E-03 2.34281E-21
1.47362E-03 2.13587E-21
1.54133E-03 1.95124E-21
1.61056E-03 1.78609E-21
1.68131E-03 1.63801E-21
1.75357E-03 1.50493E-21
1.82735E-03 1.38507E-21
1.90265E-03 1.27688E-21
1.97947E-03 1.17902E-21
2.05780E-03 1.09034E-21
2.13765E-03 1.00982E-21
2.21902E-03 9.36584E-22
2.30190E-03 8.69846E-22
2.38630E-03 8.08935E-22
2.47222E-03 7.53249E-22
2.55965E-03 7.02260E-22
2.64859E-03 6.55502E-22
2.73905E-03 6.12560E-22
2.83103E-03 5.73067E-22
2.92452E-03 5.36697E-22
3.01952E-03 5.03159E-22
3.11604E-03 4.72193E-22
3.21407E-03 4.43564E-22
3.31362E-03 4.17066E-22
3.41468E-03 3.92511E-22
3.51725E-03 3.69732E-22
3.62133E-03 3.48575E-22
3.72692E-03 3.28905E-22
3.83403E-03 3.10599E-22
3.94265E-03 2.93544E-22
4.05278E-03 2.77640E-22
4.16442E-03 2.62795E-22
4.27757E-03 2.48925E-22
4.39223E-03 2.35954E-22
4.50840E-03 2.23815E-22
4.62608E-03 2.12443E-22
4.74527E-03 2.01782E-22
4.86597E-03 1.91778E-22
4.98817E-03 1.82384E-22
5.11188E-03 1.73557E-22
5.23711E-03 1.65254E-22
5.36383E-03 1.57441E-22
5.49207E-03 1.50081E-22
5.62181E-03 1.43145E-22
5.75306E-03 1.36603E-22
5.88581E-03 1.30429E-22
6.02007E-03 1.24599E-22
6.15583E-03 1.19089E-22
6.29310E-03 1.13879E-22
6.43187E-03 1.08949E-22
6.57214E-03 1.04282E-22
6.71392E-03 9.98616E-23
6.85720E-03 9.56712E-23
7.00198E-03 9.16974E-23
7.14827E-03 8.79269E-23
7.29605E-03 8.43473E-23
7.44534E-03 8.09470E-23
7.59612E-03 7.77152E-23
7.97965E-03 7.03116E-23
8.37255E-03 6.37641E-23
8.77480E-03 5.79577E-23
9.18641E-03 5.27941E-23
9.60736E-03 4.81898E-23
1.00376E-02 4.40740E-23
1.04773E-02 4.03858E-23
1.09262E-02 3.70733E-23
1.13844E-02 3.40914E-23
1.18520E-02 3.14016E-23
1.23288E-02 2.89703E-23
1.28150E-02 2.67683E-23
1.33104E-02 2.47702E-23
1.38150E-02 2.29539E-23
1.43290E-02 2.12998E-23
1.48521E-02 1.97911E-23
1.53845E-02 1.84126E-23
1.59262E-02 1.71512E-23
1.64770E-02 1.59952E-23
1.70371E-02 1.49342E-23
1.76063E-02 1.39591E-23
1.81848E-02 1.30616E-23
1.87724E-02 1.22345E-23
1.93692E-02 1.14712E-23
1.99751E-02 1.07661E-23
2.05901E-02 1.01139E-23
2.12143E-02 9.50982E-24
2.18476E-02 8.94979E-24
2.24900E-02 8.43001E-24
2.31415E-02 7.94706E-24
2.38021E-02 7.49787E-24
2.44717E-02 7.07966E-24
2.51504E-02 6.68991E-24
2.58382E-02 6.32634E-24
2.65349E-02 5.98687E-24
2.72407E-02 5.66964E-24
2.79555E-02 5.37291E-24
2.86793E-02 5.09512E-24
2.94120E-02 4.83486E-24
3.01537E-02 4.59082E-24
3.09043E-02 4.36180E-24
3.16639E-02 4.14672E-24
3.24324E-02 3.94458E-24
3.32098E-02 3.75445E-24
3.39961E-02 3.57550E-24
3.47912E-02 3.40695E-24
3.55952E-02 3.24809E-24
3.64081E-02 3.09826E-24
3.72297E-02 2.95686E-24
3.80602E-02 2.82332E-24
3.88995E-02 2.69713E-24
3.97476E-02 2.57782E-24
4.06044E-02 2.46494E-24
4.14700E-02 2.35809E-24
4.23443E-02 2.25688E-24
4.32273E-02 2.16096E-24
4.41190E-02 2.07000E-24
4.50194E-02 1.98371E-24
4.59284E-02 1.90180E-24
4.68461E-02 1.82401E-24
4.87074E-02 1.67983E-24
5.06030E-02 1.54939E-24
5.25328E-02 1.43117E-24
5.44967E-02 1.32383E-24
5.64946E-02 1.22621E-24
5.85262E-02 1.13726E-24
6.05914E-02 1.05609E-24
6.26901E-02 9.81909E-25
6.48222E-02 9.14005E-25
6.69873E-02 8.51759E-25
6.91854E-02 7.94619E-25
7.14163E-02 7.42096E-25
7.36799E-02 6.93753E-25
7.59760E-02 6.49201E-25
7.83043E-02 6.08091E-25
8.06647E-02 5.70113E-25
8.30571E-02 5.34988E-25
8.54812E-02 5.02464E-25
8.79369E-02 4.72316E-25
9.04240E-02 4.44342E-25
9.29422E-02 4.18357E-25
9.54915E-02 3.94197E-25
9.80716E-02 3.71711E-25
1.00682E-01 3.50764E-25
1.03323E-01 3.31232E-25
1.05995E-01 3.13004E-25
1.08696E-01 2.95977E-25
1.11427E-01 2.80060E-25
1.14188E-01 2.65168E-25
1.16978E-01 2.51223E-25
1.19797E-01 2.38155E-25
1.22645E-01 2.25900E-25
1.25522E-01 2.14399E-25
1.28428E-01 2.03596E-25
1.31361E-01 1.93444E-25
1.34323E-01 1.83895E-25
1.37313E-01 1.74909E-25
1.40330E-01 1.66446E-25
1.43375E-01 1.58471E-25
1.46447E-01 1.50951E-25
1.49545E-01 1.43855E-25
1.52671E-01 1.37156E-25
1.55823E-01 1.30828E-25
1.59001E-01 1.24847E-25
1.62205E-01 1.19191E-25
1.65435E-01 1.13839E-25
1.68690E-01 1.08771E-25
1.71970E-01 1.03971E-25
1.75276E-01 9.94224E-26
1.78606E-01 9.51091E-26
1.81961E-01 9.10171E-26
1.85340E-01 8.71333E-26
1.88743E-01 8.34454E-26
1.92169E-01 7.99417E-26
1.95619E-01 7.66117E-26
1.99092E-01 7.34453E-26
2.02589E-01 7.04332E-26
2.06107E-01 6.75665E-26
2.09649E-01 6.48372E-26
2.13212E-01 6.22376E-26
2.16797E-01 5.97605E-26
2.20404E-01 5.73992E-26
2.24032E-01 5.51474E-26
2.27680E-01 5.29992E-26
2.31350E-01 5.09491E-26
2.35040E-01 4.89920E-26
2.38751E-01 4.71228E-26
2.42481E-01 4.53370E-26
2.46231E-01 4.36303E-26
2.50000E-01 4.19986E-26
2.53788E-01 4.04382E-26
2.57595E-01 3.89453E-26
2.61421E-01 3.75167E-26
2.65264E-01 3.61491E-26
2.69126E-01 3.48395E-26
2.73005E-01 3.35850E-26
2.76901E-01 3.23830E-26
2.80814E-01 3.12309E-26
2.84744E-01 3.01264E-26
2.88691E-01 2.90671E-26
2.92653E-01 2.80509E-26
2.96632E-01 2.70758E-26
3.00625E-01 2.61399E-26
3.04634E-01 2.52413E-26
3.08658E-01 2.43784E-26
3.12697E-01 2.35495E-26
3.16749E-01 2.27530E-26
3.20816E-01 2.19876E-26
3.24896E-01 2.12517E-26
3.28990E-01 2.05441E-26
3.33097E-01 1.98636E-26
3.37216E-01 1.92089E-26
3.41348E-01 1.85789E-26
3.45492E-01 1.79725E-26
3.49647E-01 1.73888E-26
3.53814E-01 1.68267E-26
3.57992E-01 1.62854E-26
3.62181E-01 1.57639E-26
3.66381E-01 1.52614E-26
3.70590E-01 1.47771E-26
3.74810E-01 1.43103E-26
3.79039E-01 1.38602E-26
3.83277E-01 1.34262E-26
3.87524E-01 1.30076E-26
3.91780E-01 1.26037E-26
3.96044E-01 1.22140E-26
4.00316E-01 1.18379E-26
4.04596E-01 1.14749E-26
4.08882E-01 1.11244E-26
4.13176E-01 1.07860E-26
4.17476E-01 1.04591E-26
4.21783E-01 1.01433E-26
4.26095E-01 9.83828E-27
4.30413E-01 9.54349E-27
4.34737E-01 9.25857E-27
4.39065E-01 8.98317E-27
4.43398E-01 8.71690E-27
4.47736E-01 8.45943E-27
4.52077E-01 8.21042E-27
4.56422E-01 7.96956E-27
4.60770E-01 7.73654E-27
4.65122E-01 7.51108E-27
4.69476E-01 7.29289E-27
4.73832E-01 7.08171E-27
4.78190E-01 6.87728E-27
4.82550E-01 6.67936E-27
4.86912E-01 6.48771E-27
4.91274E-01 6.30210E-27
4.95637E-01 6.12233E-27
5.00000E-01 5.94818E-27
5.04363E-01 5.77945E-27
5.08726E-01 5.61596E-27
5.13088E-01 5.45751E-27
5.17450E-01 5.30393E-27
5.21810E-01 5.15506E-27
5.26168E-01 5.01072E-27
5.30524E-01 4.87077E-27
5.34878E-01 4.73506E-27
5.39230E-01 4.60343E-27
5.43578E-01 4.47575E-27
5.47923E-01 4.35188E-27
5.52264E-01 4.23171E-27
5.56602E-01 4.11509E-27
5.60935E-01 4.00192E-27
5.65263E-01 3.89209E-27
5.69587E-01 3.78547E-27
5.73905E-01 3.68196E-27
5.78217E-01 3.58147E-27
5.82524E-01 3.48389E-27
5.86824E-01 3.38913E-27
5.91118E-01 3.29709E-27
5.95404E-01 3.20770E-27
5.99684E-01 3.12085E-27
6.03956E-01 3.03649E-27
6.08220E-01 2.95451E-27
6.12476E-01 2.87485E-27
6.16723E-01 2.79744E-27
6.20961E-01 2.72220E-27
6.25190E-01 2.64907E-27
6.29410E-01 2.57797E-27
6.33619E-01 2.50886E-27
6.37819E-01 2.44166E-27
6.42008E-01 2.37631E-27
6.46186E-01 2.31276E-27
6.50353E-01 2.25096E-27
6.54508E-01 2.19085E-27
6.58652E-01 2.13238E-27
6.62784E-01 2.07550E-27
6.66903E-01 2.02016E-27
6.71010E-01 1.96631E-27
6.75104E-01 1.91392E-27
6.79184E-01 1.86293E-27
6.83251E-01 1.81331E-27
6.87303E-01 1.76501E-27
6.91342E-01 1.71800E-27
6.95366E-01 1.67224E-27
6.99375E-01 1.62770E-27
7.03368E-01 1.58432E-27
7.07347E-01 1.54209E-27
7.11309E-01 1.50097E-27
7.15256E-01 1.46093E-27
7.19186E-01 1.42193E-27
7.23099E-01 1.38395E-27
7.26995E-01 1.34696E-27
7.30874E-01 1.31093E-27
7.34736E-01 1.27583E-27
7.38579E-01 1.24163E-27
7.42405E-01 1.20831E-27
7.46212E-01 1.17586E-27
7.50000E-01 1.14423E-27
7.53769E-01 1.11341E-27
7.57519E-01 1.08338E-27
7.61249E-01 1.05411E-27
7.64960E-01 1.02559E-27
7.68650E-01 9.97784E-28
7.72320E-01 9.70686E-28
7.75968E-01 9.44272E-28
7.79596E-01 9.18524E-28
7.83203E-01 8.93424E-28
7.86788E-01 8.68953E-28
7.90351E-01 8.45096E-28
7.93893E-01 8.21836E-28
7.97411E-01 7.99157E-28
8.00908E-01 7.77043E-28
8.04381E-01 7.55480E-28
8.07831E-01 7.34452E-28
8.11257E-01 7.13947E-28
8.14660E-01 6.93950E-28
8.18039E-01 6.74448E-28
8.21394E-01 6.55428E-28
8.24724E-01 6.36878E-28
8.28030E-01 6.18785E-28
8.31310E-01 6.01138E-28
8.34565E-01 5.83926E-28
8.37795E-01 5.67136E-28
8.40999E-01 5.50760E-28
8.44177E-01 5.34785E-28
8.47329E-01 5.19203E-28
8.50455E-01 5.04002E-28
8.53553E-01 4.89175E-28
8.56625E-01 4.74710E-28
8.59670E-01 4.60600E-28
8.62687E-01 4.46836E-28
8.65677E-01 4.33408E-28
8.68639E-01 4.20309E-28
8.71572E-01 4.07532E-28
8.74478E-01 3.95067E-28
8.77355E-01 3.82908E-28
8.80203E-01 3.71047E-28
8.83022E-01 3.59476E-28
8.85812E-01 3.48190E-28
8.88573E-01 3.37182E-28
8.91304E-01 3.26444E-28
8.94005E-01 3.15970E-28
8.96677E-01 3.05755E-28
8.99318E-01 2.95792E-28
9.01928E-01 2.86076E-28
9.04508E-01 2.76601E-28
9.07058E-01 2.67360E-28
9.09576E-01 2.58350E-28
9.12063E-01 2.49565E-28
9.14519E-01 2.40999E-28
9.16943E-01 2.32648E-28
9.19335E-01 2.24508E-28
9.21696E-01 2.16572E-28
9.24024E-01 2.08838E-28
9.26320E-01 2.01301E-28
9.28584E-01 1.93955E-28
9.30815E-01 1.86799E-28
9.33013E-01 1.79826E-28
9.35178E-01 1.73034E-28
9.37310E-01 1.66418E-28
9.39409E-01 1.59976E-28
9.41474E-01 1.53703E-28
9.43505E-01 1.47596E-28
9.45503E-01 1.41652E-28
9.47467E-01 1.35867E-28
9.49397E-01 1.30238E-28
9.51293E-01 1.24763E-28
9.53154E-01 1.19438E-28
9.54981E-01 1.14260E-28
9.56773E-01 1.09227E-28
9.58530E-01 1.04336E-28
9.60252E-01 9.95839E-29
9.61940E-01 9.49688E-29
9.63592E-01 9.04880E-29
9.65209E-01 8.61391E-29
9.66790E-01 8.19198E-29
9.68336E-01 7.78279E-29
9.69846E-01 7.38612E-29
9.71321E-01 7.00176E-29
9.72759E-01 6.62952E-29
9.74162E-01 6.26920E-29
9.75528E-01 5.92060E-29
9.76858E-01 5.58355E-29
9.78152E-01 5.25788E-29
9.79410E-01 4.94340E-29
9.80631E-01 4.63997E-29
9.81815E-01 4.34742E-29
9.82963E-01 4.06560E-29
9.84074E-01 3.79436E-29
9.85148E-01 3.53357E-29
9.86185E-01 3.28310E-29
9.87185E-01 3.04281E-29
9.88148E-01 2.81258E-29
9.89074E-01 2.59229E-29
9.89962E-01 2.38183E-29
9.90814E-01 2.18110E-29
9.91627E-01 1.98999E-29
9.92404E-01 1.80840E-29
9.93143E-01 1.63624E-29
9.93844E-01 1.47343E-29
9.94508E-01 1.31987E-29
9.95134E-01 1.17551E-29
9.95722E-01 1.04025E-29
9.96273E-01 9.14034E-30
9.96786E-01 7.96798E-30
9.97261E-01 6.88481E-30
9.97698E-01 5.89029E-30
9.98097E-01 4.98391E-30
9.98459E-01 4.16522E-30
9.98782E-01 3.43382E-30
9.99067E-01 2.78932E-30
9.99315E-01 2.23141E-30
9.99524E-01 1.75980E-30
9.99695E-01 1.37427E-30
9.99829E-01 1.07461E-30
9.99924E-01 8.60669E-31
9.99981E-01 7.32352E-31
1.00000E+00 6.89590E-31
