 #
 # Subroutine ELSEPA. Elastic scattering of electrons and positrons
 #                    by neutral atoms and positive ions
 #
 # Projectile: positron
 # Kinetic energy = 1.25000E+07 eV = 4.59367E+05 a.u.
 #
 # WARNING: High-energy factorization with free-atom DF screening.
 #          Absorption, polarization and exchange corrections are
 #          switched off.
 #          Phase shifts are calculated for the bare nucleus.
 #          Scattering amplitudes are not evaluated.
 #
 # Element: Se,  Z =  34,  atomic weight = 7.89600E+01 g/mol
 #
 # Nuclear model: Fermi distribution
 #                Average radius = 4.59042E-13 cm
 #                Skin thickness = 5.46000E-14 cm
 #
 # Number of electrons = 34
 #
 # Total elastic cross section = 2.61068E-18 cm**2 = 9.32292E-02 a0**2
 # 1st transport cross section = 1.08089E-23 cm**2 = 3.85993E-07 a0**2
 # 2nd transport cross section = 3.13378E-23 cm**2 = 1.11909E-06 a0**2
 #
 #
 # Differential cross section:                       MU=(1-COS(THETA))/2
 #
 #  THETA        MU          DCS          DCS        Sherman      error
 #  (deg)                 (cm**2/sr)   (a0**2/sr)    function
 #----------------------------------------------------------------------
0.00000E+00 3.33035E-12
7.61557E-13 3.33024E-12
1.18994E-12 3.33019E-12
1.71346E-12 3.33011E-12
2.33225E-12 3.33003E-12
3.04617E-12 3.32993E-12
3.85530E-12 3.32982E-12
4.75964E-12 3.32970E-12
5.75917E-12 3.32956E-12
6.85391E-12 3.32942E-12
8.04379E-12 3.32926E-12
9.32893E-12 3.32908E-12
1.07092E-11 3.32890E-12
1.21847E-11 3.32870E-12
1.37554E-11 3.32848E-12
1.54213E-11 3.32826E-12
1.71823E-11 3.32802E-12
1.90386E-11 3.32777E-12
2.09900E-11 3.32751E-12
2.30367E-11 3.32724E-12
2.51785E-11 3.32695E-12
2.74156E-11 3.32665E-12
2.97478E-11 3.32633E-12
3.21752E-11 3.32601E-12
3.46979E-11 3.32567E-12
3.73157E-11 3.32532E-12
4.00286E-11 3.32495E-12
4.28368E-11 3.32458E-12
4.57402E-11 3.32419E-12
4.87388E-11 3.32379E-12
5.18325E-11 3.32337E-12
5.50215E-11 3.32294E-12
5.83057E-11 3.32250E-12
6.16850E-11 3.32205E-12
6.51595E-11 3.32159E-12
6.87293E-11 3.32111E-12
7.23943E-11 3.32062E-12
7.61544E-11 3.32012E-12
1.18991E-10 3.31440E-12
1.71347E-10 3.30743E-12
2.33223E-10 3.29923E-12
3.04617E-10 3.28981E-12
3.85531E-10 3.27918E-12
4.75965E-10 3.26736E-12
5.75917E-10 3.25437E-12
6.85389E-10 3.24024E-12
8.04380E-10 3.22498E-12
9.32891E-10 3.20862E-12
1.07092E-09 3.19119E-12
1.21847E-09 3.17272E-12
1.37554E-09 3.15318E-12
1.54213E-09 3.13242E-12
1.71823E-09 3.11087E-12
1.90386E-09 3.08861E-12
2.09900E-09 3.06569E-12
2.30367E-09 3.04125E-12
2.51785E-09 3.01614E-12
2.74156E-09 2.99051E-12
2.97478E-09 2.96443E-12
3.21752E-09 2.93707E-12
3.46978E-09 2.90894E-12
3.73156E-09 2.88050E-12
4.00286E-09 2.85181E-12
4.28368E-09 2.82222E-12
4.57402E-09 2.79165E-12
4.87388E-09 2.76098E-12
5.18326E-09 2.73026E-12
5.50215E-09 2.69912E-12
5.83057E-09 2.66670E-12
6.16850E-09 2.63438E-12
6.51596E-09 2.60218E-12
6.87293E-09 2.57012E-12
7.23942E-09 2.53644E-12
7.61544E-09 2.50302E-12
1.18991E-08 2.16797E-12
1.71347E-08 1.84312E-12
2.33223E-08 1.54694E-12
3.04617E-08 1.28891E-12
3.85531E-08 1.06954E-12
4.75965E-08 8.87780E-13
5.75917E-08 7.39030E-13
6.85389E-08 6.17905E-13
8.04380E-08 5.19901E-13
9.32891E-08 4.40451E-13
1.07092E-07 3.75860E-13
1.21847E-07 3.23162E-13
1.37554E-07 2.79635E-13
1.54213E-07 2.42657E-13
1.71823E-07 2.12657E-13
1.90386E-07 1.88077E-13
2.09900E-07 1.67749E-13
2.30367E-07 1.49087E-13
2.51785E-07 1.33305E-13
2.74156E-07 1.20012E-13
2.97478E-07 1.08734E-13
3.21752E-07 9.82953E-14
3.46978E-07 8.90103E-14
3.73156E-07 8.10280E-14
4.00286E-07 7.41266E-14
4.28368E-07 6.77790E-14
4.57402E-07 6.18673E-14
4.87388E-07 5.67066E-14
5.18325E-07 5.21809E-14
5.50215E-07 4.80844E-14
5.83057E-07 4.41342E-14
6.16850E-07 4.06442E-14
6.51596E-07 3.75495E-14
6.87293E-07 3.47915E-14
7.23942E-07 3.20759E-14
7.61543E-07 2.96530E-14
1.18991E-06 1.43720E-14
1.71347E-06 7.57033E-15
2.33223E-06 4.32083E-15
3.04617E-06 2.64786E-15
3.85531E-06 1.71986E-15
4.75964E-06 1.17067E-15
5.75916E-06 8.27068E-16
6.85388E-06 6.01531E-16
8.04378E-06 4.48034E-16
9.32888E-06 3.40388E-16
1.07092E-05 2.63014E-16
1.21846E-05 2.06242E-16
1.37553E-05 1.63789E-16
1.54212E-05 1.31569E-16
1.71822E-05 1.06900E-16
1.90385E-05 8.76816E-17
2.09899E-05 7.25649E-17
2.30365E-05 6.05729E-17
2.51783E-05 5.09194E-17
2.74153E-05 4.31173E-17
2.97475E-05 3.67452E-17
3.21749E-05 3.15055E-17
3.46974E-05 2.71713E-17
3.73152E-05 2.35541E-17
4.00281E-05 2.05232E-17
4.28362E-05 1.79646E-17
4.57395E-05 1.57934E-17
4.87380E-05 1.39416E-17
5.18317E-05 1.23526E-17
5.50205E-05 1.09846E-17
5.83045E-05 9.80087E-18
6.16838E-05 8.77281E-18
6.51582E-05 7.87664E-18
6.87277E-05 7.09204E-18
7.23925E-05 6.40333E-18
7.61524E-05 5.79617E-18
9.21439E-05 3.98278E-18
1.09658E-04 2.82641E-18
1.28695E-04 2.06103E-18
1.49255E-04 1.53784E-18
1.71338E-04 1.17051E-18
1.94942E-04 9.06462E-19
2.20070E-04 7.12731E-19
2.46720E-04 5.68022E-19
2.74892E-04 4.58179E-19
3.04586E-04 3.73602E-19
3.35803E-04 3.07633E-19
3.68542E-04 2.55576E-19
4.02802E-04 2.14057E-19
4.38585E-04 1.80621E-19
4.75889E-04 1.53453E-19
5.14715E-04 1.31196E-19
5.55063E-04 1.12824E-19
5.96931E-04 9.75519E-20
6.40321E-04 8.47737E-20
6.85233E-04 7.40168E-20
7.31665E-04 6.49096E-20
7.79618E-04 5.71585E-20
8.29092E-04 5.05281E-20
8.80086E-04 4.48300E-20
9.32601E-04 3.99114E-20
9.86636E-04 3.56477E-20
1.04219E-03 3.19375E-20
1.09927E-03 2.86965E-20
1.15786E-03 2.58557E-20
1.21797E-03 2.33570E-20
1.27961E-03 2.11524E-20
1.34276E-03 1.92014E-20
1.40743E-03 1.74696E-20
1.47362E-03 1.59284E-20
1.54133E-03 1.45530E-20
1.61056E-03 1.33226E-20
1.68131E-03 1.22193E-20
1.75357E-03 1.12276E-20
1.82735E-03 1.03342E-20
1.90265E-03 9.52772E-21
1.97947E-03 8.79823E-21
2.05780E-03 8.13706E-21
2.13765E-03 7.53669E-21
2.21902E-03 6.99055E-21
2.30190E-03 6.49286E-21
2.38630E-03 6.03858E-21
2.47222E-03 5.62323E-21
2.55965E-03 5.24289E-21
2.64859E-03 4.89408E-21
2.73905E-03 4.57373E-21
2.83103E-03 4.27909E-21
2.92452E-03 4.00773E-21
3.01952E-03 3.75748E-21
3.11604E-03 3.52641E-21
3.21407E-03 3.31278E-21
3.31362E-03 3.11503E-21
3.41468E-03 2.93178E-21
3.51725E-03 2.76176E-21
3.62133E-03 2.60385E-21
3.72692E-03 2.45704E-21
3.83403E-03 2.32039E-21
3.94265E-03 2.19308E-21
4.05278E-03 2.07436E-21
4.16442E-03 1.96354E-21
4.27757E-03 1.85999E-21
4.39223E-03 1.76316E-21
4.50840E-03 1.67252E-21
4.62608E-03 1.58762E-21
4.74527E-03 1.50801E-21
4.86597E-03 1.43332E-21
4.98817E-03 1.36318E-21
5.11188E-03 1.29726E-21
5.23711E-03 1.23526E-21
5.36383E-03 1.17691E-21
5.49207E-03 1.12195E-21
5.62181E-03 1.07015E-21
5.75306E-03 1.02129E-21
5.88581E-03 9.75177E-22
6.02007E-03 9.31629E-22
6.15583E-03 8.90475E-22
6.29310E-03 8.51559E-22
6.43187E-03 8.14737E-22
6.57214E-03 7.79876E-22
6.71392E-03 7.46853E-22
6.85720E-03 7.15551E-22
7.00198E-03 6.85865E-22
7.14827E-03 6.57696E-22
7.29605E-03 6.30953E-22
7.44534E-03 6.05549E-22
7.59612E-03 5.81405E-22
7.97965E-03 5.26084E-22
8.37255E-03 4.77162E-22
8.77480E-03 4.33772E-22
9.18641E-03 3.95182E-22
9.60736E-03 3.60771E-22
1.00376E-02 3.30007E-22
1.04773E-02 3.02438E-22
1.09262E-02 2.77675E-22
1.13844E-02 2.55383E-22
1.18520E-02 2.35272E-22
1.23288E-02 2.17092E-22
1.28150E-02 2.00626E-22
1.33104E-02 1.85683E-22
1.38150E-02 1.72098E-22
1.43290E-02 1.59726E-22
1.48521E-02 1.48440E-22
1.53845E-02 1.38128E-22
1.59262E-02 1.28690E-22
1.64770E-02 1.20040E-22
1.70371E-02 1.12100E-22
1.76063E-02 1.04802E-22
1.81848E-02 9.80844E-23
1.87724E-02 9.18930E-23
1.93692E-02 8.61794E-23
1.99751E-02 8.08999E-23
2.05901E-02 7.60159E-23
2.12143E-02 7.14923E-23
2.18476E-02 6.72979E-23
2.24900E-02 6.34045E-23
2.31415E-02 5.97866E-23
2.38021E-02 5.64211E-23
2.44717E-02 5.32874E-23
2.51504E-02 5.03666E-23
2.58382E-02 4.76416E-23
2.65349E-02 4.50971E-23
2.72407E-02 4.27188E-23
2.79555E-02 4.04939E-23
2.86793E-02 3.84109E-23
2.94120E-02 3.64589E-23
3.01537E-02 3.46284E-23
3.09043E-02 3.29104E-23
3.16639E-02 3.12966E-23
3.24324E-02 2.97796E-23
3.32098E-02 2.83527E-23
3.39961E-02 2.70095E-23
3.47912E-02 2.57441E-23
3.55952E-02 2.45513E-23
3.64081E-02 2.34261E-23
3.72297E-02 2.23640E-23
3.80602E-02 2.13609E-23
3.88995E-02 2.04128E-23
3.97476E-02 1.95163E-23
4.06044E-02 1.86679E-23
4.14700E-02 1.78646E-23
4.23443E-02 1.71037E-23
4.32273E-02 1.63824E-23
4.41190E-02 1.56984E-23
4.50194E-02 1.50493E-23
4.59284E-02 1.44330E-23
4.68461E-02 1.38476E-23
4.87074E-02 1.27623E-23
5.06030E-02 1.17801E-23
5.25328E-02 1.08896E-23
5.44967E-02 1.00808E-23
5.64946E-02 9.34473E-24
5.85262E-02 8.67391E-24
6.05914E-02 8.06148E-24
6.26901E-02 7.50150E-24
6.48222E-02 6.98870E-24
6.69873E-02 6.51840E-24
6.91854E-02 6.08651E-24
7.14163E-02 5.68930E-24
7.36799E-02 5.32354E-24
7.59760E-02 4.98629E-24
7.83043E-02 4.67494E-24
8.06647E-02 4.38716E-24
8.30571E-02 4.12085E-24
8.54812E-02 3.87414E-24
8.79369E-02 3.64533E-24
9.04240E-02 3.43290E-24
9.29422E-02 3.23547E-24
9.54915E-02 3.05179E-24
9.80716E-02 2.88075E-24
1.00682E-01 2.72131E-24
1.03323E-01 2.57256E-24
1.05995E-01 2.43365E-24
1.08696E-01 2.30382E-24
1.11427E-01 2.18238E-24
1.14188E-01 2.06867E-24
1.16978E-01 1.96214E-24
1.19797E-01 1.86224E-24
1.22645E-01 1.76848E-24
1.25522E-01 1.68044E-24
1.28428E-01 1.59769E-24
1.31361E-01 1.51986E-24
1.34323E-01 1.44661E-24
1.37313E-01 1.37762E-24
1.40330E-01 1.31261E-24
1.43375E-01 1.25129E-24
1.46447E-01 1.19343E-24
1.49545E-01 1.13880E-24
1.52671E-01 1.08718E-24
1.55823E-01 1.03838E-24
1.59001E-01 9.92220E-25
1.62205E-01 9.48529E-25
1.65435E-01 9.07154E-25
1.68690E-01 8.67951E-25
1.71970E-01 8.30785E-25
1.75276E-01 7.95532E-25
1.78606E-01 7.62077E-25
1.81961E-01 7.30312E-25
1.85340E-01 7.00136E-25
1.88743E-01 6.71456E-25
1.92169E-01 6.44186E-25
1.95619E-01 6.18244E-25
1.99092E-01 5.93553E-25
2.02589E-01 5.70044E-25
2.06107E-01 5.47649E-25
2.09649E-01 5.26307E-25
2.13212E-01 5.05960E-25
2.16797E-01 4.86553E-25
2.20404E-01 4.68035E-25
2.24032E-01 4.50359E-25
2.27680E-01 4.33479E-25
2.31350E-01 4.17354E-25
2.35040E-01 4.01944E-25
2.38751E-01 3.87211E-25
2.42481E-01 3.73121E-25
2.46231E-01 3.59642E-25
2.50000E-01 3.46741E-25
2.53788E-01 3.34390E-25
2.57595E-01 3.22561E-25
2.61421E-01 3.11229E-25
2.65264E-01 3.00369E-25
2.69126E-01 2.89958E-25
2.73005E-01 2.79974E-25
2.76901E-01 2.70397E-25
2.80814E-01 2.61207E-25
2.84744E-01 2.52387E-25
2.88691E-01 2.43917E-25
2.92653E-01 2.35783E-25
2.96632E-01 2.27969E-25
3.00625E-01 2.20460E-25
3.04634E-01 2.13242E-25
3.08658E-01 2.06301E-25
3.12697E-01 1.99627E-25
3.16749E-01 1.93205E-25
3.20816E-01 1.87026E-25
3.24896E-01 1.81078E-25
3.28990E-01 1.75352E-25
3.33097E-01 1.69837E-25
3.37216E-01 1.64525E-25
3.41348E-01 1.59407E-25
3.45492E-01 1.54475E-25
3.49647E-01 1.49720E-25
3.53814E-01 1.45136E-25
3.57992E-01 1.40715E-25
3.62181E-01 1.36450E-25
3.66381E-01 1.32335E-25
3.70590E-01 1.28364E-25
3.74810E-01 1.24531E-25
3.79039E-01 1.20830E-25
3.83277E-01 1.17256E-25
3.87524E-01 1.13804E-25
3.91780E-01 1.10470E-25
3.96044E-01 1.07247E-25
4.00316E-01 1.04133E-25
4.04596E-01 1.01123E-25
4.08882E-01 9.82120E-26
4.13176E-01 9.53973E-26
4.17476E-01 9.26748E-26
4.21783E-01 9.00410E-26
4.26095E-01 8.74926E-26
4.30413E-01 8.50264E-26
4.34737E-01 8.26392E-26
4.39065E-01 8.03282E-26
4.43398E-01 7.80905E-26
4.47736E-01 7.59233E-26
4.52077E-01 7.38242E-26
4.56422E-01 7.17906E-26
4.60770E-01 6.98202E-26
4.65122E-01 6.79106E-26
4.69476E-01 6.60598E-26
4.73832E-01 6.42655E-26
4.78190E-01 6.25259E-26
4.82550E-01 6.08389E-26
4.86912E-01 5.92028E-26
4.91274E-01 5.76157E-26
4.95637E-01 5.60759E-26
5.00000E-01 5.45819E-26
5.04363E-01 5.31320E-26
5.08726E-01 5.17248E-26
5.13088E-01 5.03587E-26
5.17450E-01 4.90324E-26
5.21810E-01 4.77446E-26
5.26168E-01 4.64939E-26
5.30524E-01 4.52792E-26
5.34878E-01 4.40991E-26
5.39230E-01 4.29527E-26
5.43578E-01 4.18388E-26
5.47923E-01 4.07563E-26
5.52264E-01 3.97042E-26
5.56602E-01 3.86815E-26
5.60935E-01 3.76872E-26
5.65263E-01 3.67206E-26
5.69587E-01 3.57806E-26
5.73905E-01 3.48665E-26
5.78217E-01 3.39773E-26
5.82524E-01 3.31124E-26
5.86824E-01 3.22710E-26
5.91118E-01 3.14523E-26
5.95404E-01 3.06557E-26
5.99684E-01 2.98804E-26
6.03956E-01 2.91258E-26
6.08220E-01 2.83913E-26
6.12476E-01 2.76763E-26
6.16723E-01 2.69801E-26
6.20961E-01 2.63022E-26
6.25190E-01 2.56421E-26
6.29410E-01 2.49991E-26
6.33619E-01 2.43729E-26
6.37819E-01 2.37630E-26
6.42008E-01 2.31687E-26
6.46186E-01 2.25897E-26
6.50353E-01 2.20256E-26
6.54508E-01 2.14758E-26
6.58652E-01 2.09400E-26
6.62784E-01 2.04178E-26
6.66903E-01 1.99088E-26
6.71010E-01 1.94126E-26
6.75104E-01 1.89289E-26
6.79184E-01 1.84572E-26
6.83251E-01 1.79973E-26
6.87303E-01 1.75488E-26
6.91342E-01 1.71114E-26
6.95366E-01 1.66848E-26
6.99375E-01 1.62687E-26
7.03368E-01 1.58627E-26
7.07347E-01 1.54668E-26
7.11309E-01 1.50804E-26
7.15256E-01 1.47035E-26
7.19186E-01 1.43356E-26
7.23099E-01 1.39767E-26
7.26995E-01 1.36264E-26
7.30874E-01 1.32845E-26
7.34736E-01 1.29508E-26
7.38579E-01 1.26251E-26
7.42405E-01 1.23072E-26
7.46212E-01 1.19968E-26
7.50000E-01 1.16937E-26
7.53769E-01 1.13978E-26
7.57519E-01 1.11090E-26
7.61249E-01 1.08269E-26
7.64960E-01 1.05514E-26
7.68650E-01 1.02823E-26
7.72320E-01 1.00196E-26
7.75968E-01 9.76300E-27
7.79596E-01 9.51236E-27
7.83203E-01 9.26754E-27
7.86788E-01 9.02839E-27
7.90351E-01 8.79478E-27
7.93893E-01 8.56656E-27
7.97411E-01 8.34360E-27
8.00908E-01 8.12578E-27
8.04381E-01 7.91295E-27
8.07831E-01 7.70501E-27
8.11257E-01 7.50183E-27
8.14660E-01 7.30330E-27
8.18039E-01 7.10931E-27
8.21394E-01 6.91974E-27
8.24724E-01 6.73448E-27
8.28030E-01 6.55345E-27
8.31310E-01 6.37653E-27
8.34565E-01 6.20364E-27
8.37795E-01 6.03467E-27
8.40999E-01 5.86953E-27
8.44177E-01 5.70813E-27
8.47329E-01 5.55040E-27
8.50455E-01 5.39624E-27
8.53553E-01 5.24557E-27
8.56625E-01 5.09831E-27
8.59670E-01 4.95438E-27
8.62687E-01 4.81372E-27
8.65677E-01 4.67624E-27
8.68639E-01 4.54188E-27
8.71572E-01 4.41056E-27
8.74478E-01 4.28222E-27
8.77355E-01 4.15680E-27
8.80203E-01 4.03422E-27
8.83022E-01 3.91444E-27
8.85812E-01 3.79738E-27
8.88573E-01 3.68299E-27
8.91304E-01 3.57122E-27
8.94005E-01 3.46200E-27
8.96677E-01 3.35528E-27
8.99318E-01 3.25102E-27
9.01928E-01 3.14916E-27
9.04508E-01 3.04964E-27
9.07058E-01 2.95243E-27
9.09576E-01 2.85748E-27
9.12063E-01 2.76474E-27
9.14519E-01 2.67416E-27
9.16943E-01 2.58571E-27
9.19335E-01 2.49934E-27
9.21696E-01 2.41501E-27
9.24024E-01 2.33268E-27
9.26320E-01 2.25232E-27
9.28584E-01 2.17388E-27
9.30815E-01 2.09733E-27
9.33013E-01 2.02263E-27
9.35178E-01 1.94975E-27
9.37310E-01 1.87866E-27
9.39409E-01 1.80932E-27
9.41474E-01 1.74171E-27
9.43505E-01 1.67578E-27
9.45503E-01 1.61152E-27
9.47467E-01 1.54889E-27
9.49397E-01 1.48786E-27
9.51293E-01 1.42842E-27
9.53154E-01 1.37052E-27
9.54981E-01 1.31415E-27
9.56773E-01 1.25928E-27
9.58530E-01 1.20588E-27
9.60252E-01 1.15394E-27
9.61940E-01 1.10343E-27
9.63592E-01 1.05432E-27
9.65209E-01 1.00660E-27
9.66790E-01 9.60250E-28
9.68336E-01 9.15243E-28
9.69846E-01 8.71562E-28
9.71321E-01 8.29188E-28
9.72759E-01 7.88104E-28
9.74162E-01 7.48291E-28
9.75528E-01 7.09733E-28
9.76858E-01 6.72412E-28
9.78152E-01 6.36314E-28
9.79410E-01 6.01422E-28
9.80631E-01 5.67723E-28
9.81815E-01 5.35201E-28
9.82963E-01 5.03844E-28
9.84074E-01 4.73637E-28
9.85148E-01 4.44568E-28
9.86185E-01 4.16626E-28
9.87185E-01 3.89797E-28
9.88148E-01 3.64072E-28
9.89074E-01 3.39440E-28
9.89962E-01 3.15889E-28
9.90814E-01 2.93411E-28
9.91627E-01 2.71995E-28
9.92404E-01 2.51634E-28
9.93143E-01 2.32318E-28
9.93844E-01 2.14041E-28
9.94508E-01 1.96793E-28
9.95134E-01 1.80568E-28
9.95722E-01 1.65360E-28
9.96273E-01 1.51162E-28
9.96786E-01 1.37968E-28
9.97261E-01 1.25773E-28
9.97698E-01 1.14572E-28
9.98097E-01 1.04360E-28
9.98459E-01 9.51338E-29
9.98782E-01 8.68885E-29
9.99067E-01 7.96210E-29
9.99315E-01 7.33286E-29
9.99524E-01 6.80085E-29
9.99695E-01 6.36588E-29
9.99829E-01 6.02774E-29
9.99924E-01 5.78632E-29
9.99981E-01 5.64151E-29
1.00000E+00 5.59325E-29
