 #
 # Subroutine ELSEPA. Elastic scattering of electrons and positrons
 #                    by neutral atoms and positive ions
 #
 # Projectile: positron
 # Kinetic energy = 8.00000E+07 eV = 2.93995E+06 a.u.
 #
 # WARNING: High-energy factorization with free-atom DF screening.
 #          Absorption, polarization and exchange corrections are
 #          switched off.
 #          Phase shifts are calculated for the bare nucleus.
 #          Scattering amplitudes are not evaluated.
 #
 # Element: Se,  Z =  34,  atomic weight = 7.89600E+01 g/mol
 #
 # Nuclear model: Fermi distribution
 #                Average radius = 4.59042E-13 cm
 #                Skin thickness = 5.46000E-14 cm
 #
 # Number of electrons = 34
 #
 # Total elastic cross section = 2.60800E-18 cm**2 = 9.31335E-02 a0**2
 # 1st transport cross section = 3.49148E-25 cm**2 = 1.24683E-08 a0**2
 # 2nd transport cross section = 1.03311E-24 cm**2 = 3.68931E-08 a0**2
 #
 #
 # Differential cross section:                       MU=(1-COS(THETA))/2
 #
 #  THETA        MU          DCS          DCS        Sherman      error
 #  (deg)                 (cm**2/sr)   (a0**2/sr)    function
 #----------------------------------------------------------------------
0.00000E+00 1.27520E-10
7.61557E-13 1.27370E-10
1.18994E-12 1.27285E-10
1.71346E-12 1.27182E-10
2.33225E-12 1.27061E-10
3.04617E-12 1.26921E-10
3.85530E-12 1.26763E-10
4.75964E-12 1.26587E-10
5.75917E-12 1.26392E-10
6.85391E-12 1.26180E-10
8.04379E-12 1.25950E-10
9.32893E-12 1.25702E-10
1.07092E-11 1.25436E-10
1.21847E-11 1.25153E-10
1.37554E-11 1.24853E-10
1.54213E-11 1.24536E-10
1.71823E-11 1.24202E-10
1.90386E-11 1.23852E-10
2.09900E-11 1.23485E-10
2.30367E-11 1.23102E-10
2.51785E-11 1.22703E-10
2.74156E-11 1.22288E-10
2.97478E-11 1.21858E-10
3.21752E-11 1.21413E-10
3.46979E-11 1.20953E-10
3.73157E-11 1.20473E-10
4.00286E-11 1.19977E-10
4.28368E-11 1.19471E-10
4.57402E-11 1.18953E-10
4.87388E-11 1.18425E-10
5.18325E-11 1.17887E-10
5.50215E-11 1.17340E-10
5.83057E-11 1.16762E-10
6.16850E-11 1.16174E-10
6.51595E-11 1.15577E-10
6.87293E-11 1.14973E-10
7.23943E-11 1.14361E-10
7.61544E-11 1.13743E-10
1.18991E-10 1.06941E-10
1.71347E-10 9.94515E-11
2.33223E-10 9.15643E-11
3.04617E-10 8.35951E-11
3.85531E-10 7.57808E-11
4.75965E-10 6.82892E-11
5.75917E-10 6.12802E-11
6.85389E-10 5.47866E-11
8.04380E-10 4.88973E-11
9.32891E-10 4.35619E-11
1.07092E-09 3.88178E-11
1.21847E-09 3.45801E-11
1.37554E-09 3.08514E-11
1.54213E-09 2.75548E-11
1.71823E-09 2.46650E-11
1.90386E-09 2.21232E-11
2.09900E-09 1.98954E-11
2.30367E-09 1.79383E-11
2.51785E-09 1.62191E-11
2.74156E-09 1.47063E-11
2.97478E-09 1.33722E-11
3.21752E-09 1.21941E-11
3.46978E-09 1.11499E-11
3.73156E-09 1.01946E-11
4.00286E-09 9.34637E-12
4.28368E-09 8.60127E-12
4.57402E-09 7.94427E-12
4.87388E-09 7.36281E-12
5.18326E-09 6.84636E-12
5.50215E-09 6.38609E-12
5.83057E-09 5.93141E-12
6.16850E-09 5.52165E-12
6.51596E-09 5.15441E-12
6.87293E-09 4.82432E-12
7.23942E-09 4.52677E-12
7.61544E-09 4.25784E-12
1.18991E-08 2.37763E-12
1.71347E-08 1.42119E-12
2.33223E-08 8.83227E-13
3.04617E-08 5.67951E-13
3.85531E-08 3.77436E-13
4.75965E-08 2.58778E-13
5.75917E-08 1.82977E-13
6.85389E-08 1.33003E-13
8.04380E-08 9.91730E-14
9.32891E-08 7.55904E-14
1.07092E-07 5.87401E-14
1.21847E-07 4.64118E-14
1.37554E-07 3.72153E-14
1.54213E-07 3.02100E-14
1.71823E-07 2.47935E-14
1.90386E-07 2.05387E-14
2.09900E-07 1.71597E-14
2.30367E-07 1.44451E-14
2.51785E-07 1.22443E-14
2.74156E-07 1.04439E-14
2.97478E-07 8.95890E-15
3.21752E-07 7.72597E-15
3.46978E-07 6.69503E-15
3.73156E-07 5.82521E-15
4.00286E-07 5.09305E-15
4.28368E-07 4.47482E-15
4.57402E-07 3.94194E-15
4.87388E-07 3.48741E-15
5.18325E-07 3.09652E-15
5.50215E-07 2.75712E-15
5.83057E-07 2.46364E-15
6.16850E-07 2.20768E-15
6.51596E-07 1.98379E-15
6.87293E-07 1.78793E-15
7.23942E-07 1.61514E-15
7.61543E-07 1.46281E-15
1.18991E-06 6.09727E-16
1.71347E-06 2.97943E-16
2.33223E-06 1.62534E-16
3.04617E-06 9.60864E-17
3.85531E-06 6.03891E-17
4.75964E-06 3.98274E-17
5.75916E-06 2.73128E-17
6.85388E-06 1.93455E-17
8.04378E-06 1.40798E-17
9.32888E-06 1.04880E-17
1.07092E-05 7.97076E-18
1.21846E-05 6.16460E-18
1.37553E-05 4.84177E-18
1.54212E-05 3.85514E-18
1.71822E-05 3.10727E-18
1.90385E-05 2.53179E-18
2.09899E-05 2.08406E-18
2.30365E-05 1.73093E-18
2.51783E-05 1.44937E-18
2.74153E-05 1.22267E-18
2.97475E-05 1.03853E-18
3.21749E-05 8.87764E-19
3.46974E-05 7.63389E-19
3.73152E-05 6.60065E-19
4.00281E-05 5.73657E-19
4.28362E-05 5.00940E-19
4.57395E-05 4.39381E-19
4.87380E-05 3.86982E-19
5.18317E-05 3.42153E-19
5.50205E-05 3.03621E-19
5.83045E-05 2.70358E-19
6.16838E-05 2.41526E-19
6.51582E-05 2.16437E-19
6.87277E-05 1.94524E-19
7.23925E-05 1.75316E-19
7.61524E-05 1.58432E-19
9.21439E-05 1.08172E-19
1.09658E-04 7.63429E-20
1.28695E-04 5.54036E-20
1.49255E-04 4.11704E-20
1.71338E-04 3.12269E-20
1.94942E-04 2.41098E-20
2.20070E-04 1.89085E-20
2.46720E-04 1.50363E-20
2.74892E-04 1.21056E-20
3.04586E-04 9.85497E-21
3.35803E-04 8.10335E-21
3.68542E-04 6.72386E-21
4.02802E-04 5.62552E-21
4.38585E-04 4.74233E-21
4.75889E-04 4.02567E-21
5.14715E-04 3.43926E-21
5.55063E-04 2.95571E-21
5.96931E-04 2.55412E-21
6.40321E-04 2.21839E-21
6.85233E-04 1.93597E-21
7.31665E-04 1.69703E-21
7.79618E-04 1.49378E-21
8.29092E-04 1.32002E-21
8.80086E-04 1.17077E-21
9.32601E-04 1.04199E-21
9.86636E-04 9.30399E-22
1.04219E-03 8.33332E-22
1.09927E-03 7.48571E-22
1.15786E-03 6.74298E-22
1.21797E-03 6.08989E-22
1.27961E-03 5.51384E-22
1.34276E-03 5.00414E-22
1.40743E-03 4.55186E-22
1.47362E-03 4.14941E-22
1.54133E-03 3.79037E-22
1.61056E-03 3.46920E-22
1.68131E-03 3.18128E-22
1.75357E-03 2.92252E-22
1.82735E-03 2.68946E-22
1.90265E-03 2.47911E-22
1.97947E-03 2.28886E-22
2.05780E-03 2.11646E-22
2.13765E-03 1.95993E-22
2.21902E-03 1.81756E-22
2.30190E-03 1.68784E-22
2.38630E-03 1.56944E-22
2.47222E-03 1.46121E-22
2.55965E-03 1.36212E-22
2.64859E-03 1.27125E-22
2.73905E-03 1.18780E-22
2.83103E-03 1.11106E-22
2.92452E-03 1.04039E-22
3.01952E-03 9.75230E-23
3.11604E-03 9.15068E-23
3.21407E-03 8.59454E-23
3.31362E-03 8.07981E-23
3.41468E-03 7.60285E-23
3.51725E-03 7.16041E-23
3.62133E-03 6.74952E-23
3.72692E-03 6.36754E-23
3.83403E-03 6.01206E-23
3.94265E-03 5.68091E-23
4.05278E-03 5.37212E-23
4.16442E-03 5.08392E-23
4.27757E-03 4.81467E-23
4.39223E-03 4.56291E-23
4.50840E-03 4.32729E-23
4.62608E-03 4.10659E-23
4.74527E-03 3.89970E-23
4.86597E-03 3.70559E-23
4.98817E-03 3.52333E-23
5.11188E-03 3.35207E-23
5.23711E-03 3.19102E-23
5.36383E-03 3.03945E-23
5.49207E-03 2.89672E-23
5.62181E-03 2.76221E-23
5.75306E-03 2.63535E-23
5.88581E-03 2.51565E-23
6.02007E-03 2.40261E-23
6.15583E-03 2.29580E-23
6.29310E-03 2.19482E-23
6.43187E-03 2.09928E-23
6.57214E-03 2.00884E-23
6.71392E-03 1.92318E-23
6.85720E-03 1.84200E-23
7.00198E-03 1.76502E-23
7.14827E-03 1.69198E-23
7.29605E-03 1.62266E-23
7.44534E-03 1.55681E-23
7.59612E-03 1.49424E-23
7.97965E-03 1.35091E-23
8.37255E-03 1.22421E-23
8.77480E-03 1.11188E-23
9.18641E-03 1.01203E-23
9.60736E-03 9.23018E-24
1.00376E-02 8.43482E-24
1.04773E-02 7.72239E-24
1.09262E-02 7.08277E-24
1.13844E-02 6.50725E-24
1.18520E-02 5.98831E-24
1.23288E-02 5.51945E-24
1.28150E-02 5.09499E-24
1.33104E-02 4.71002E-24
1.38150E-02 4.36022E-24
1.43290E-02 4.04185E-24
1.48521E-02 3.75158E-24
1.53845E-02 3.48651E-24
1.59262E-02 3.24408E-24
1.64770E-02 3.02202E-24
1.70371E-02 2.81833E-24
1.76063E-02 2.63121E-24
1.81848E-02 2.45910E-24
1.87724E-02 2.30058E-24
1.93692E-02 2.15440E-24
1.99751E-02 2.01942E-24
2.05901E-02 1.89464E-24
2.12143E-02 1.77916E-24
2.18476E-02 1.67216E-24
2.24900E-02 1.57292E-24
2.31415E-02 1.48077E-24
2.38021E-02 1.39513E-24
2.44717E-02 1.31544E-24
2.51504E-02 1.24124E-24
2.58382E-02 1.17206E-24
2.65349E-02 1.10753E-24
2.72407E-02 1.04726E-24
2.79555E-02 9.90932E-25
2.86793E-02 9.38243E-25
2.94120E-02 8.88916E-25
3.01537E-02 8.42701E-25
3.09043E-02 7.99368E-25
3.16639E-02 7.58705E-25
3.24324E-02 7.20521E-25
3.32098E-02 6.84638E-25
3.39961E-02 6.50894E-25
3.47912E-02 6.19140E-25
3.55952E-02 5.89238E-25
3.64081E-02 5.61062E-25
3.72297E-02 5.34496E-25
3.80602E-02 5.09432E-25
3.88995E-02 4.85770E-25
3.97476E-02 4.63419E-25
4.06044E-02 4.42294E-25
4.14700E-02 4.22316E-25
4.23443E-02 4.03413E-25
4.32273E-02 3.85517E-25
4.41190E-02 3.68566E-25
4.50194E-02 3.52500E-25
4.59284E-02 3.37266E-25
4.68461E-02 3.22815E-25
4.87074E-02 2.96072E-25
5.06030E-02 2.71935E-25
5.25328E-02 2.50110E-25
5.44967E-02 2.30341E-25
5.64946E-02 2.12405E-25
5.85262E-02 1.96104E-25
6.05914E-02 1.81267E-25
6.26901E-02 1.67741E-25
6.48222E-02 1.55394E-25
6.69873E-02 1.44107E-25
6.91854E-02 1.33775E-25
7.14163E-02 1.24305E-25
7.36799E-02 1.15614E-25
7.59760E-02 1.07628E-25
7.83043E-02 1.00282E-25
8.06647E-02 9.35165E-26
8.30571E-02 8.72789E-26
8.54812E-02 8.15220E-26
8.79369E-02 7.62032E-26
9.04240E-02 7.12843E-26
9.29422E-02 6.67309E-26
9.54915E-02 6.25119E-26
9.80716E-02 5.85991E-26
1.00682E-01 5.49672E-26
1.03323E-01 5.15932E-26
1.05995E-01 4.84560E-26
1.08696E-01 4.55368E-26
1.11427E-01 4.28183E-26
1.14188E-01 4.02847E-26
1.16978E-01 3.79218E-26
1.19797E-01 3.57164E-26
1.22645E-01 3.36566E-26
1.25522E-01 3.17316E-26
1.28428E-01 2.99312E-26
1.31361E-01 2.82464E-26
1.34323E-01 2.66688E-26
1.37313E-01 2.51906E-26
1.40330E-01 2.38047E-26
1.43375E-01 2.25047E-26
1.46447E-01 2.12844E-26
1.49545E-01 2.01385E-26
1.52671E-01 1.90618E-26
1.55823E-01 1.80495E-26
1.59001E-01 1.70974E-26
1.62205E-01 1.62015E-26
1.65435E-01 1.53579E-26
1.68690E-01 1.45633E-26
1.71970E-01 1.38145E-26
1.75276E-01 1.31085E-26
1.78606E-01 1.24426E-26
1.81961E-01 1.18143E-26
1.85340E-01 1.12211E-26
1.88743E-01 1.06609E-26
1.92169E-01 1.01316E-26
1.95619E-01 9.63142E-27
1.99092E-01 9.15845E-27
2.02589E-01 8.71109E-27
2.06107E-01 8.28779E-27
2.09649E-01 7.88712E-27
2.13212E-01 7.50774E-27
2.16797E-01 7.14839E-27
2.20404E-01 6.80791E-27
2.24032E-01 6.48520E-27
2.27680E-01 6.17922E-27
2.31350E-01 5.88904E-27
2.35040E-01 5.61374E-27
2.38751E-01 5.35248E-27
2.42481E-01 5.10448E-27
2.46231E-01 4.86899E-27
2.50000E-01 4.64533E-27
2.53788E-01 4.43283E-27
2.57595E-01 4.23089E-27
2.61421E-01 4.03894E-27
2.65264E-01 3.85642E-27
2.69126E-01 3.68285E-27
2.73005E-01 3.51772E-27
2.76901E-01 3.36060E-27
2.80814E-01 3.21107E-27
2.84744E-01 3.06872E-27
2.88691E-01 2.93317E-27
2.92653E-01 2.80408E-27
2.96632E-01 2.68110E-27
3.00625E-01 2.56393E-27
3.04634E-01 2.45226E-27
3.08658E-01 2.34582E-27
3.12697E-01 2.24434E-27
3.16749E-01 2.14756E-27
3.20816E-01 2.05526E-27
3.24896E-01 1.96721E-27
3.28990E-01 1.88320E-27
3.33097E-01 1.80302E-27
3.37216E-01 1.72650E-27
3.41348E-01 1.65344E-27
3.45492E-01 1.58368E-27
3.49647E-01 1.51706E-27
3.53814E-01 1.45343E-27
3.57992E-01 1.39264E-27
3.62181E-01 1.33456E-27
3.66381E-01 1.27905E-27
3.70590E-01 1.22600E-27
3.74810E-01 1.17529E-27
3.79039E-01 1.12680E-27
3.83277E-01 1.08044E-27
3.87524E-01 1.03610E-27
3.91780E-01 9.93692E-28
3.96044E-01 9.53120E-28
4.00316E-01 9.14303E-28
4.04596E-01 8.77159E-28
4.08882E-01 8.41610E-28
4.13176E-01 8.07585E-28
4.17476E-01 7.75013E-28
4.21783E-01 7.43828E-28
4.26095E-01 7.13967E-28
4.30413E-01 6.85371E-28
4.34737E-01 6.57983E-28
4.39065E-01 6.31747E-28
4.43398E-01 6.06614E-28
4.47736E-01 5.82533E-28
4.52077E-01 5.59458E-28
4.56422E-01 5.37344E-28
4.60770E-01 5.16149E-28
4.65122E-01 4.95833E-28
4.69476E-01 4.76356E-28
4.73832E-01 4.57682E-28
4.78190E-01 4.39777E-28
4.82550E-01 4.22606E-28
4.86912E-01 4.06137E-28
4.91274E-01 3.90341E-28
4.95637E-01 3.75189E-28
5.00000E-01 3.60652E-28
5.04363E-01 3.46705E-28
5.08726E-01 3.33321E-28
5.13088E-01 3.20478E-28
5.17450E-01 3.08152E-28
5.21810E-01 2.96321E-28
5.26168E-01 2.84964E-28
5.30524E-01 2.74061E-28
5.34878E-01 2.63593E-28
5.39230E-01 2.53543E-28
5.43578E-01 2.43891E-28
5.47923E-01 2.34622E-28
5.52264E-01 2.25720E-28
5.56602E-01 2.17170E-28
5.60935E-01 2.08956E-28
5.65263E-01 2.01065E-28
5.69587E-01 1.93484E-28
5.73905E-01 1.86200E-28
5.78217E-01 1.79201E-28
5.82524E-01 1.72474E-28
5.86824E-01 1.66009E-28
5.91118E-01 1.59796E-28
5.95404E-01 1.53824E-28
5.99684E-01 1.48082E-28
6.03956E-01 1.42563E-28
6.08220E-01 1.37256E-28
6.12476E-01 1.32153E-28
6.16723E-01 1.27247E-28
6.20961E-01 1.22529E-28
6.25190E-01 1.17991E-28
6.29410E-01 1.13626E-28
6.33619E-01 1.09428E-28
6.37819E-01 1.05390E-28
6.42008E-01 1.01505E-28
6.46186E-01 9.77679E-29
6.50353E-01 9.41719E-29
6.54508E-01 9.07119E-29
6.58652E-01 8.73824E-29
6.62784E-01 8.41784E-29
6.66903E-01 8.10948E-29
6.71010E-01 7.81269E-29
6.75104E-01 7.52703E-29
6.79184E-01 7.25206E-29
6.83251E-01 6.98735E-29
6.87303E-01 6.73251E-29
6.91342E-01 6.48716E-29
6.95366E-01 6.25093E-29
6.99375E-01 6.02346E-29
7.03368E-01 5.80442E-29
7.07347E-01 5.59347E-29
7.11309E-01 5.39032E-29
7.15256E-01 5.19466E-29
7.19186E-01 5.00619E-29
7.23099E-01 4.82466E-29
7.26995E-01 4.64978E-29
7.30874E-01 4.48131E-29
7.34736E-01 4.31900E-29
7.38579E-01 4.16262E-29
7.42405E-01 4.01194E-29
7.46212E-01 3.86675E-29
7.50000E-01 3.72683E-29
7.53769E-01 3.59199E-29
7.57519E-01 3.46205E-29
7.61249E-01 3.33680E-29
7.64960E-01 3.21608E-29
7.68650E-01 3.09972E-29
7.72320E-01 2.98755E-29
7.75968E-01 2.87941E-29
7.79596E-01 2.77517E-29
7.83203E-01 2.67466E-29
7.86788E-01 2.57775E-29
7.90351E-01 2.48431E-29
7.93893E-01 2.39421E-29
7.97411E-01 2.30732E-29
8.00908E-01 2.22353E-29
8.04381E-01 2.14272E-29
8.07831E-01 2.06479E-29
8.11257E-01 1.98962E-29
8.14660E-01 1.91711E-29
8.18039E-01 1.84717E-29
8.21394E-01 1.77971E-29
8.24724E-01 1.71462E-29
8.28030E-01 1.65183E-29
8.31310E-01 1.59126E-29
8.34565E-01 1.53281E-29
8.37795E-01 1.47642E-29
8.40999E-01 1.42201E-29
8.44177E-01 1.36951E-29
8.47329E-01 1.31884E-29
8.50455E-01 1.26995E-29
8.53553E-01 1.22276E-29
8.56625E-01 1.17723E-29
8.59670E-01 1.13328E-29
8.62687E-01 1.09086E-29
8.65677E-01 1.04992E-29
8.68639E-01 1.01041E-29
8.71572E-01 9.72264E-30
8.74478E-01 9.35446E-30
8.77355E-01 8.99905E-30
8.80203E-01 8.65597E-30
8.83022E-01 8.32478E-30
8.85812E-01 8.00505E-30
8.88573E-01 7.69638E-30
8.91304E-01 7.39840E-30
8.94005E-01 7.11071E-30
8.96677E-01 6.83297E-30
8.99318E-01 6.56482E-30
9.01928E-01 6.30593E-30
9.04508E-01 6.05598E-30
9.07058E-01 5.81466E-30
9.09576E-01 5.58167E-30
9.12063E-01 5.35672E-30
9.14519E-01 5.13954E-30
9.16943E-01 4.92986E-30
9.19335E-01 4.72743E-30
9.21696E-01 4.53199E-30
9.24024E-01 4.34331E-30
9.26320E-01 4.16117E-30
9.28584E-01 3.98533E-30
9.30815E-01 3.81559E-30
9.33013E-01 3.65174E-30
9.35178E-01 3.49359E-30
9.37310E-01 3.34095E-30
9.39409E-01 3.19362E-30
9.41474E-01 3.05145E-30
9.43505E-01 2.91425E-30
9.45503E-01 2.78187E-30
9.47467E-01 2.65414E-30
9.49397E-01 2.53093E-30
9.51293E-01 2.41207E-30
9.53154E-01 2.29743E-30
9.54981E-01 2.18688E-30
9.56773E-01 2.08029E-30
9.58530E-01 1.97753E-30
9.60252E-01 1.87848E-30
9.61940E-01 1.78302E-30
9.63592E-01 1.69106E-30
9.65209E-01 1.60247E-30
9.66790E-01 1.51715E-30
9.68336E-01 1.43502E-30
9.69846E-01 1.35596E-30
9.71321E-01 1.27990E-30
9.72759E-01 1.20674E-30
9.74162E-01 1.13640E-30
9.75528E-01 1.06880E-30
9.76858E-01 1.00386E-30
9.78152E-01 9.41512E-31
9.79410E-01 8.81678E-31
9.80631E-01 8.24293E-31
9.81815E-01 7.69291E-31
9.82963E-01 7.16610E-31
9.84074E-01 6.66189E-31
9.85148E-01 6.17974E-31
9.86185E-01 5.71907E-31
9.87185E-01 5.27939E-31
9.88148E-01 4.86018E-31
9.89074E-01 4.46099E-31
9.89962E-01 4.08136E-31
9.90814E-01 3.72086E-31
9.91627E-01 3.37910E-31
9.92404E-01 3.05568E-31
9.93143E-01 2.75025E-31
9.93844E-01 2.46247E-31
9.94508E-01 2.19201E-31
9.95134E-01 1.93857E-31
9.95722E-01 1.70187E-31
9.96273E-01 1.48165E-31
9.96786E-01 1.27766E-31
9.97261E-01 1.08967E-31
9.97698E-01 9.17487E-32
9.98097E-01 7.60903E-32
9.98459E-01 6.19750E-32
9.98782E-01 4.93874E-32
9.99067E-01 3.83131E-32
9.99315E-01 2.87400E-32
9.99524E-01 2.06575E-32
9.99695E-01 1.40569E-32
9.99829E-01 8.93054E-33
9.99924E-01 5.27287E-33
9.99981E-01 3.07996E-33
1.00000E+00 2.34935E-33
