 #
 # Subroutine ELSEPA. Elastic scattering of electrons and positrons
 #                    by neutral atoms and positive ions
 #
 # Projectile: positron
 # Kinetic energy = 7.00000E+08 eV = 2.57245E+07 a.u.
 #
 # WARNING: High-energy factorization with free-atom DF screening.
 #          Absorption, polarization and exchange corrections are
 #          switched off.
 #          Phase shifts are calculated for the bare nucleus.
 #          Scattering amplitudes are not evaluated.
 #
 # Element: Ca,  Z =  20,  atomic weight = 4.00780E+01 g/mol
 #
 # Nuclear model: Fermi distribution
 #                Average radius = 3.66173E-13 cm
 #                Skin thickness = 5.46000E-14 cm
 #
 # Number of electrons = 20
 #
 # Total elastic cross section = 1.79346E-18 cm**2 = 6.40457E-02 a0**2
 # 1st transport cross section = 1.72783E-27 cm**2 = 6.17019E-11 a0**2
 # 2nd transport cross section = 5.18199E-27 cm**2 = 1.85052E-10 a0**2
 #
 #
 # Differential cross section:                       MU=(1-COS(THETA))/2
 #
 #  THETA        MU          DCS          DCS        Sherman      error
 #  (deg)                 (cm**2/sr)   (a0**2/sr)    function
 #----------------------------------------------------------------------
0.00000E+00 1.83721E-08
7.61557E-13 1.42433E-08
1.18994E-12 1.25035E-08
1.71346E-12 1.07831E-08
2.33225E-12 9.18260E-09
3.04617E-12 7.75971E-09
3.85530E-12 6.56015E-09
4.75964E-12 5.51334E-09
5.75917E-12 4.67323E-09
6.85391E-12 3.96343E-09
8.04379E-12 3.39811E-09
9.32893E-12 2.92518E-09
1.07092E-11 2.54396E-09
1.21847E-11 2.22464E-09
1.37554E-11 1.96139E-09
1.54213E-11 1.73907E-09
1.71823E-11 1.55106E-09
1.90386E-11 1.39039E-09
2.09900E-11 1.25129E-09
2.30367E-11 1.13086E-09
2.51785E-11 1.02460E-09
2.74156E-11 9.31444E-10
2.97478E-11 8.48134E-10
3.21752E-11 7.74273E-10
3.46979E-11 7.07633E-10
3.73157E-11 6.47999E-10
4.00286E-11 5.93913E-10
4.28368E-11 5.45150E-10
4.57402E-11 5.00799E-10
4.87388E-11 4.60578E-10
5.18325E-11 4.23947E-10
5.50215E-11 3.90578E-10
5.83057E-11 3.60169E-10
6.16850E-11 3.32374E-10
6.51595E-11 3.07036E-10
6.87293E-11 2.83815E-10
7.23943E-11 2.62644E-10
7.61544E-11 2.43206E-10
1.18991E-10 1.18810E-10
1.71347E-10 6.41092E-11
2.33223E-10 3.79817E-11
3.04617E-10 2.42933E-11
3.85531E-10 1.64548E-11
4.75965E-10 1.16184E-11
5.75917E-10 8.46248E-12
6.85389E-10 6.31120E-12
8.04380E-10 4.79524E-12
9.32891E-10 3.69548E-12
1.07092E-09 2.88718E-12
1.21847E-09 2.28332E-12
1.37554E-09 1.82584E-12
1.54213E-09 1.47442E-12
1.71823E-09 1.20201E-12
1.90386E-09 9.88800E-13
2.09900E-09 8.20271E-13
2.30367E-09 6.85781E-13
2.51785E-09 5.77540E-13
2.74156E-09 4.89762E-13
2.97478E-09 4.18019E-13
3.21752E-09 3.58946E-13
3.46978E-09 3.09954E-13
3.73156E-09 2.69070E-13
4.00286E-09 2.34740E-13
4.28368E-09 2.05742E-13
4.57402E-09 1.81108E-13
4.87388E-09 1.60075E-13
5.18326E-09 1.42027E-13
5.50215E-09 1.26470E-13
5.83057E-09 1.12998E-13
6.16850E-09 1.01283E-13
6.51596E-09 9.10565E-14
6.87293E-09 8.20966E-14
7.23942E-09 7.42180E-14
7.61544E-09 6.72660E-14
1.18991E-08 2.82420E-14
1.71347E-08 1.38555E-14
2.33223E-08 7.56509E-15
3.04617E-08 4.46855E-15
3.85531E-08 2.80409E-15
4.75965E-08 1.84629E-15
5.75917E-08 1.26417E-15
6.85389E-08 8.94171E-16
8.04380E-08 6.50028E-16
9.32891E-08 4.83736E-16
1.07092E-07 3.67341E-16
1.21847E-07 2.83918E-16
1.37554E-07 2.22876E-16
1.54213E-07 1.77384E-16
1.71823E-07 1.42925E-16
1.90386E-07 1.16438E-16
2.09900E-07 9.58104E-17
2.30367E-07 7.95538E-17
2.51785E-07 6.66025E-17
2.74156E-07 5.61823E-17
2.97478E-07 4.77221E-17
3.21752E-07 4.07958E-17
3.46978E-07 3.50816E-17
3.73156E-07 3.03335E-17
4.00286E-07 2.63622E-17
4.28368E-07 2.30198E-17
4.57402E-07 2.01902E-17
4.87388E-07 1.77821E-17
5.18325E-07 1.57226E-17
5.50215E-07 1.39528E-17
5.83057E-07 1.24251E-17
6.16850E-07 1.11009E-17
6.51596E-07 9.94855E-18
6.87293E-07 8.94188E-18
7.23942E-07 8.05937E-18
7.61543E-07 7.28310E-18
1.18991E-06 2.98290E-18
1.71347E-06 1.43839E-18
2.33223E-06 7.76335E-19
3.04617E-06 4.55032E-19
3.85531E-06 2.84048E-19
4.75964E-06 1.86347E-19
5.75916E-06 1.27266E-19
6.85388E-06 8.98500E-20
8.04378E-06 6.52274E-20
9.32888E-06 4.84899E-20
1.07092E-05 3.67925E-20
1.21846E-05 2.84187E-20
1.37553E-05 2.22971E-20
1.54212E-05 1.77384E-20
1.71822E-05 1.42873E-20
1.90385E-05 1.16352E-20
2.09899E-05 9.57206E-21
2.30365E-05 7.94648E-21
2.51783E-05 6.65159E-21
2.74153E-05 5.60983E-21
2.97475E-05 4.76413E-21
3.21749E-05 4.07189E-21
3.46974E-05 3.50093E-21
3.73152E-05 3.02665E-21
4.00281E-05 2.63006E-21
4.28362E-05 2.29636E-21
4.57395E-05 2.01395E-21
4.87380E-05 1.77362E-21
5.18317E-05 1.56808E-21
5.50205E-05 1.39145E-21
5.83045E-05 1.23898E-21
6.16838E-05 1.10684E-21
6.51582E-05 9.91845E-22
6.87277E-05 8.91407E-22
7.23925E-05 8.03368E-22
7.61524E-05 7.17588E-22
9.21439E-05 4.88615E-22
1.09658E-04 3.43822E-22
1.28695E-04 2.48706E-22
1.49255E-04 1.84165E-22
1.71338E-04 1.39151E-22
1.94942E-04 1.06996E-22
2.20070E-04 8.35437E-23
2.46720E-04 6.61226E-23
2.74892E-04 5.29686E-23
3.04586E-04 4.28918E-23
3.35803E-04 3.50705E-23
3.68542E-04 2.89281E-23
4.02802E-04 2.40522E-23
4.38585E-04 2.01438E-23
4.75889E-04 1.69829E-23
5.14715E-04 1.44054E-23
5.55063E-04 1.22879E-23
5.96931E-04 1.05361E-23
6.40321E-04 9.07736E-24
6.85233E-04 7.85546E-24
7.31665E-04 6.82619E-24
7.79618E-04 5.95466E-24
8.29092E-04 5.21310E-24
8.80086E-04 4.57925E-24
9.32601E-04 4.03515E-24
9.86636E-04 3.56619E-24
1.04219E-03 3.16049E-24
1.09927E-03 2.80825E-24
1.15786E-03 2.50139E-24
1.21797E-03 2.23322E-24
1.27961E-03 1.99816E-24
1.34276E-03 1.79153E-24
1.40743E-03 1.60940E-24
1.47362E-03 1.44845E-24
1.54133E-03 1.30587E-24
1.61056E-03 1.17928E-24
1.68131E-03 1.06663E-24
1.75357E-03 9.66182E-25
1.82735E-03 8.76428E-25
1.90265E-03 7.96079E-25
1.97947E-03 7.24018E-25
2.05780E-03 6.59279E-25
2.13765E-03 6.01020E-25
2.21902E-03 5.48511E-25
2.30190E-03 5.01111E-25
2.38630E-03 4.58262E-25
2.47222E-03 4.19473E-25
2.55965E-03 3.84312E-25
2.64859E-03 3.52400E-25
2.73905E-03 3.23402E-25
2.83103E-03 2.97020E-25
2.92452E-03 2.72991E-25
3.01952E-03 2.51083E-25
3.11604E-03 2.31088E-25
3.21407E-03 2.12820E-25
3.31362E-03 1.96115E-25
3.41468E-03 1.80825E-25
3.51725E-03 1.66818E-25
3.62133E-03 1.53976E-25
3.72692E-03 1.42192E-25
3.83403E-03 1.31372E-25
3.94265E-03 1.21429E-25
4.05278E-03 1.12285E-25
4.16442E-03 1.03871E-25
4.27757E-03 9.61234E-26
4.39223E-03 8.89851E-26
4.50840E-03 8.24042E-26
4.62608E-03 7.63339E-26
4.74527E-03 7.07314E-26
4.86597E-03 6.55582E-26
4.98817E-03 6.07788E-26
5.11188E-03 5.63614E-26
5.23711E-03 5.22765E-26
5.36383E-03 4.84977E-26
5.49207E-03 4.50005E-26
5.62181E-03 4.17627E-26
5.75306E-03 3.87640E-26
5.88581E-03 3.59857E-26
6.02007E-03 3.34108E-26
6.15583E-03 3.10236E-26
6.29310E-03 2.88099E-26
6.43187E-03 2.67564E-26
6.57214E-03 2.48510E-26
6.71392E-03 2.30827E-26
6.85720E-03 2.14411E-26
7.00198E-03 1.99170E-26
7.14827E-03 1.85015E-26
7.29605E-03 1.71868E-26
7.44534E-03 1.59653E-26
7.59612E-03 1.48304E-26
7.97965E-03 1.23318E-26
8.37255E-03 1.02502E-26
8.77480E-03 8.51523E-27
9.18641E-03 7.06864E-27
9.60736E-03 5.86236E-27
1.00376E-02 4.85652E-27
1.04773E-02 4.01805E-27
1.09262E-02 3.31939E-27
1.13844E-02 2.73760E-27
1.18520E-02 2.25353E-27
1.23288E-02 1.85118E-27
1.28150E-02 1.51716E-27
1.33104E-02 1.24026E-27
1.38150E-02 1.01108E-27
1.43290E-02 8.21747E-28
1.48521E-02 6.65667E-28
1.53845E-02 5.37297E-28
1.59262E-02 4.31993E-28
1.64770E-02 3.45863E-28
1.70371E-02 2.75641E-28
1.76063E-02 2.18594E-28
1.81848E-02 1.72435E-28
1.87724E-02 1.35251E-28
1.93692E-02 1.05444E-28
1.99751E-02 8.16829E-29
2.05901E-02 6.28578E-29
2.12143E-02 4.80477E-29
2.18476E-02 3.64888E-29
2.24900E-02 2.75493E-29
2.31415E-02 2.07083E-29
2.38021E-02 1.55376E-29
2.44717E-02 1.16865E-29
2.51504E-02 8.86874E-30
2.58382E-02 6.85218E-30
2.65349E-02 5.44915E-30
2.72407E-02 4.50906E-30
2.79555E-02 3.91184E-30
2.86793E-02 3.56257E-30
2.94120E-02 3.38691E-30
3.01537E-02 3.32733E-30
3.09043E-02 3.33991E-30
3.16639E-02 3.39173E-30
3.24324E-02 3.45866E-30
3.32098E-02 3.52357E-30
3.39961E-02 3.57481E-30
3.47912E-02 3.60503E-30
3.55952E-02 3.61011E-30
3.64081E-02 3.58844E-30
3.72297E-02 3.54017E-30
3.80602E-02 3.46676E-30
3.88995E-02 3.37052E-30
3.97476E-02 3.25432E-30
4.06044E-02 3.12129E-30
4.14700E-02 2.97469E-30
4.23443E-02 2.81771E-30
4.32273E-02 2.65341E-30
4.41190E-02 2.48462E-30
4.50194E-02 2.31390E-30
4.59284E-02 2.14355E-30
4.68461E-02 1.97554E-30
4.87074E-02 1.65300E-30
5.06030E-02 1.35636E-30
5.25328E-02 1.09171E-30
5.44967E-02 8.61830E-31
5.64946E-02 6.66954E-31
5.85262E-02 5.05515E-31
6.05914E-02 3.74736E-31
6.26901E-02 2.71150E-31
6.48222E-02 1.90990E-31
6.69873E-02 1.30485E-31
6.91854E-02 8.60579E-32
7.14163E-02 5.44593E-32
7.36799E-02 3.28340E-32
7.59760E-02 1.87489E-32
7.83043E-02 1.01875E-32
8.06647E-02 5.52305E-33
8.30571E-02 3.47908E-33
8.54812E-02 3.08347E-33
8.79369E-02 3.62031E-33
9.04240E-02 4.58333E-33
9.29422E-02 5.63297E-33
9.54915E-02 6.55814E-33
9.80716E-02 7.24357E-33
1.00682E-01 7.64248E-33
1.03323E-01 7.75456E-33
1.05995E-01 7.60876E-33
1.08696E-01 7.25019E-33
1.11427E-01 6.73059E-33
1.14188E-01 6.10174E-33
1.16978E-01 5.41116E-33
1.19797E-01 4.69970E-33
1.22645E-01 4.00036E-33
1.25522E-01 3.33812E-33
1.28428E-01 2.73045E-33
1.31361E-01 2.18814E-33
1.34323E-01 1.71637E-33
1.37313E-01 1.31585E-33
1.40330E-01 9.83908E-34
1.43375E-01 7.15477E-34
1.46447E-01 5.03982E-34
1.49545E-01 3.42045E-34
1.52671E-01 2.22062E-34
1.55823E-01 1.36627E-34
1.59001E-01 7.88363E-35
1.62205E-01 4.24856E-35
1.65435E-01 2.21730E-35
1.68690E-01 1.33379E-35
1.71970E-01 1.22439E-35
1.75276E-01 1.59268E-35
1.78606E-01 2.21171E-35
1.81961E-01 2.91506E-35
1.85340E-01 3.58727E-35
1.88743E-01 4.15448E-35
1.92169E-01 4.57572E-35
1.95619E-01 4.83488E-35
1.99092E-01 4.93384E-35
2.02589E-01 4.88669E-35
2.06107E-01 4.71497E-35
2.09649E-01 4.44391E-35
2.13212E-01 4.09971E-35
2.16797E-01 3.70743E-35
2.20404E-01 3.28974E-35
2.24032E-01 2.86607E-35
2.27680E-01 2.45227E-35
2.31350E-01 2.06051E-35
2.35040E-01 1.69958E-35
2.38751E-01 1.37511E-35
2.42481E-01 1.09007E-35
2.46231E-01 8.45208E-36
2.50000E-01 6.39528E-36
2.53788E-01 4.70725E-36
2.57595E-01 3.35597E-36
2.61421E-01 2.30386E-36
2.65264E-01 1.51069E-36
2.69126E-01 9.35983E-37
2.73005E-01 5.40709E-37
2.76901E-01 2.88638E-37
2.80814E-01 1.47157E-37
2.84744E-01 8.77063E-38
2.88691E-01 8.60843E-38
2.92653E-01 1.22212E-37
2.96632E-01 1.80026E-37
3.00625E-01 2.47091E-37
3.04634E-01 3.14218E-37
3.08658E-01 3.74927E-37
3.12697E-01 4.25081E-37
3.16749E-01 4.62399E-37
3.20816E-01 4.86071E-37
3.24896E-01 4.96362E-37
3.28990E-01 4.94330E-37
3.33097E-01 4.81536E-37
3.37216E-01 4.59839E-37
3.41348E-01 4.31170E-37
3.45492E-01 3.97486E-37
3.49647E-01 3.60584E-37
3.53814E-01 3.22091E-37
3.57992E-01 2.83396E-37
3.62181E-01 2.45645E-37
3.66381E-01 2.09734E-37
3.70590E-01 1.76339E-37
3.74810E-01 1.45899E-37
3.79039E-01 1.18683E-37
3.83277E-01 9.47985E-38
3.87524E-01 7.42239E-38
3.91780E-01 5.68311E-38
3.96044E-01 4.24213E-38
4.00316E-01 3.07387E-38
4.04596E-01 2.14987E-38
4.08882E-01 1.43985E-38
4.13176E-01 9.13346E-39
4.17476E-01 5.40753E-39
4.21783E-01 2.94041E-39
4.26095E-01 1.00000E-45
4.30413E-01 1.00000E-45
4.34737E-01 1.00000E-45
4.39065E-01 1.00000E-45
4.43398E-01 1.00000E-45
4.47736E-01 1.00000E-45
4.52077E-01 1.00000E-45
4.56422E-01 1.00000E-45
4.60770E-01 1.00000E-45
4.65122E-01 1.00000E-45
4.69476E-01 1.00000E-45
4.73832E-01 1.00000E-45
4.78190E-01 1.00000E-45
4.82550E-01 1.00000E-45
4.86912E-01 1.00000E-45
4.91274E-01 1.00000E-45
4.95637E-01 1.00000E-45
5.00000E-01 1.00000E-45
5.04363E-01 1.00000E-45
5.08726E-01 1.00000E-45
5.13088E-01 1.00000E-45
5.17450E-01 1.00000E-45
5.21810E-01 1.00000E-45
5.26168E-01 1.00000E-45
5.30524E-01 1.00000E-45
5.34878E-01 1.00000E-45
5.39230E-01 1.00000E-45
5.43578E-01 1.00000E-45
5.47923E-01 1.00000E-45
5.52264E-01 1.00000E-45
5.56602E-01 1.00000E-45
5.60935E-01 1.00000E-45
5.65263E-01 1.00000E-45
5.69587E-01 1.00000E-45
5.73905E-01 1.00000E-45
5.78217E-01 1.00000E-45
5.82524E-01 1.00000E-45
5.86824E-01 1.00000E-45
5.91118E-01 1.00000E-45
5.95404E-01 1.00000E-45
5.99684E-01 1.00000E-45
6.03956E-01 1.00000E-45
6.08220E-01 1.00000E-45
6.12476E-01 1.00000E-45
6.16723E-01 1.00000E-45
6.20961E-01 1.00000E-45
6.25190E-01 1.00000E-45
6.29410E-01 1.00000E-45
6.33619E-01 1.00000E-45
6.37819E-01 1.00000E-45
6.42008E-01 1.00000E-45
6.46186E-01 1.00000E-45
6.50353E-01 1.00000E-45
6.54508E-01 1.00000E-45
6.58652E-01 1.00000E-45
6.62784E-01 1.00000E-45
6.66903E-01 1.00000E-45
6.71010E-01 1.00000E-45
6.75104E-01 1.00000E-45
6.79184E-01 1.00000E-45
6.83251E-01 1.00000E-45
6.87303E-01 1.00000E-45
6.91342E-01 1.00000E-45
6.95366E-01 1.00000E-45
6.99375E-01 1.00000E-45
7.03368E-01 1.00000E-45
7.07347E-01 1.00000E-45
7.11309E-01 1.00000E-45
7.15256E-01 1.00000E-45
7.19186E-01 1.00000E-45
7.23099E-01 1.00000E-45
7.26995E-01 1.00000E-45
7.30874E-01 1.00000E-45
7.34736E-01 1.00000E-45
7.38579E-01 1.00000E-45
7.42405E-01 1.00000E-45
7.46212E-01 1.00000E-45
7.50000E-01 1.00000E-45
7.53769E-01 1.00000E-45
7.57519E-01 1.00000E-45
7.61249E-01 1.00000E-45
7.64960E-01 1.00000E-45
7.68650E-01 1.00000E-45
7.72320E-01 1.00000E-45
7.75968E-01 1.00000E-45
7.79596E-01 1.00000E-45
7.83203E-01 1.00000E-45
7.86788E-01 1.00000E-45
7.90351E-01 1.00000E-45
7.93893E-01 1.00000E-45
7.97411E-01 1.00000E-45
8.00908E-01 1.00000E-45
8.04381E-01 1.00000E-45
8.07831E-01 1.00000E-45
8.11257E-01 1.00000E-45
8.14660E-01 1.00000E-45
8.18039E-01 1.00000E-45
8.21394E-01 1.00000E-45
8.24724E-01 1.00000E-45
8.28030E-01 1.00000E-45
8.31310E-01 1.00000E-45
8.34565E-01 1.00000E-45
8.37795E-01 1.00000E-45
8.40999E-01 1.00000E-45
8.44177E-01 1.00000E-45
8.47329E-01 1.00000E-45
8.50455E-01 1.00000E-45
8.53553E-01 1.00000E-45
8.56625E-01 1.00000E-45
8.59670E-01 1.00000E-45
8.62687E-01 1.00000E-45
8.65677E-01 1.00000E-45
8.68639E-01 1.00000E-45
8.71572E-01 1.00000E-45
8.74478E-01 1.00000E-45
8.77355E-01 1.00000E-45
8.80203E-01 1.00000E-45
8.83022E-01 1.00000E-45
8.85812E-01 1.00000E-45
8.88573E-01 1.00000E-45
8.91304E-01 1.00000E-45
8.94005E-01 1.00000E-45
8.96677E-01 1.00000E-45
8.99318E-01 1.00000E-45
9.01928E-01 1.00000E-45
9.04508E-01 1.00000E-45
9.07058E-01 1.00000E-45
9.09576E-01 1.00000E-45
9.12063E-01 1.00000E-45
9.14519E-01 1.00000E-45
9.16943E-01 1.00000E-45
9.19335E-01 1.00000E-45
9.21696E-01 1.00000E-45
9.24024E-01 1.00000E-45
9.26320E-01 1.00000E-45
9.28584E-01 1.00000E-45
9.30815E-01 1.00000E-45
9.33013E-01 1.00000E-45
9.35178E-01 1.00000E-45
9.37310E-01 1.00000E-45
9.39409E-01 1.00000E-45
9.41474E-01 1.00000E-45
9.43505E-01 1.00000E-45
9.45503E-01 1.00000E-45
9.47467E-01 1.00000E-45
9.49397E-01 1.00000E-45
9.51293E-01 1.00000E-45
9.53154E-01 1.00000E-45
9.54981E-01 1.00000E-45
9.56773E-01 1.00000E-45
9.58530E-01 1.00000E-45
9.60252E-01 1.00000E-45
9.61940E-01 1.00000E-45
9.63592E-01 1.00000E-45
9.65209E-01 1.00000E-45
9.66790E-01 1.00000E-45
9.68336E-01 1.00000E-45
9.69846E-01 1.00000E-45
9.71321E-01 1.00000E-45
9.72759E-01 1.00000E-45
9.74162E-01 1.00000E-45
9.75528E-01 1.00000E-45
9.76858E-01 1.00000E-45
9.78152E-01 1.00000E-45
9.79410E-01 1.00000E-45
9.80631E-01 1.00000E-45
9.81815E-01 1.00000E-45
9.82963E-01 1.00000E-45
9.84074E-01 1.00000E-45
9.85148E-01 1.00000E-45
9.86185E-01 1.00000E-45
9.87185E-01 1.00000E-45
9.88148E-01 1.00000E-45
9.89074E-01 1.00000E-45
9.89962E-01 1.00000E-45
9.90814E-01 1.00000E-45
9.91627E-01 1.00000E-45
9.92404E-01 1.00000E-45
9.93143E-01 1.00000E-45
9.93844E-01 1.00000E-45
9.94508E-01 1.00000E-45
9.95134E-01 1.00000E-45
9.95722E-01 1.00000E-45
9.96273E-01 1.00000E-45
9.96786E-01 1.00000E-45
9.97261E-01 1.00000E-45
9.97698E-01 1.00000E-45
9.98097E-01 1.00000E-45
9.98459E-01 1.00000E-45
9.98782E-01 1.00000E-45
9.99067E-01 1.00000E-45
9.99315E-01 1.00000E-45
9.99524E-01 1.00000E-45
9.99695E-01 1.00000E-45
9.99829E-01 1.00000E-45
9.99924E-01 1.00000E-45
9.99981E-01 1.00000E-45
1.00000E+00 1.00000E-45
