 #
 # Subroutine ELSEPA. Elastic scattering of electrons and positrons
 #                    by neutral atoms and positive ions
 #
 # Projectile: positron
 # Kinetic energy = 8.00000E+06 eV = 2.93995E+05 a.u.
 #
 # WARNING: High-energy factorization with free-atom DF screening.
 #          Absorption, polarization and exchange corrections are
 #          switched off.
 #          Phase shifts are calculated for the bare nucleus.
 #          Scattering amplitudes are not evaluated.
 #
 # Element: Ca,  Z =  20,  atomic weight = 4.00780E+01 g/mol
 #
 # Nuclear model: Fermi distribution
 #                Average radius = 3.66173E-13 cm
 #                Skin thickness = 5.46000E-14 cm
 #
 # Number of electrons = 20
 #
 # Total elastic cross section = 1.81766E-18 cm**2 = 6.49097E-02 a0**2
 # 1st transport cross section = 8.66884E-24 cm**2 = 3.09570E-07 a0**2
 # 2nd transport cross section = 2.50523E-23 cm**2 = 8.94633E-07 a0**2
 #
 #
 # Differential cross section:                       MU=(1-COS(THETA))/2
 #
 #  THETA        MU          DCS          DCS        Sherman      error
 #  (deg)                 (cm**2/sr)   (a0**2/sr)    function
 #----------------------------------------------------------------------
0.00000E+00 2.71200E-12
7.61557E-13 2.71188E-12
1.18994E-12 2.71182E-12
1.71346E-12 2.71175E-12
2.33225E-12 2.71166E-12
3.04617E-12 2.71155E-12
3.85530E-12 2.71144E-12
4.75964E-12 2.71131E-12
5.75917E-12 2.71117E-12
6.85391E-12 2.71101E-12
8.04379E-12 2.71084E-12
9.32893E-12 2.71066E-12
1.07092E-11 2.71046E-12
1.21847E-11 2.71025E-12
1.37554E-11 2.71002E-12
1.54213E-11 2.70979E-12
1.71823E-11 2.70954E-12
1.90386E-11 2.70927E-12
2.09900E-11 2.70900E-12
2.30367E-11 2.70870E-12
2.51785E-11 2.70840E-12
2.74156E-11 2.70808E-12
2.97478E-11 2.70775E-12
3.21752E-11 2.70741E-12
3.46979E-11 2.70705E-12
3.73157E-11 2.70668E-12
4.00286E-11 2.70629E-12
4.28368E-11 2.70590E-12
4.57402E-11 2.70549E-12
4.87388E-11 2.70506E-12
5.18325E-11 2.70462E-12
5.50215E-11 2.70417E-12
5.83057E-11 2.70371E-12
6.16850E-11 2.70323E-12
6.51595E-11 2.70274E-12
6.87293E-11 2.70223E-12
7.23943E-11 2.70172E-12
7.61544E-11 2.70119E-12
1.18991E-10 2.69515E-12
1.71347E-10 2.68781E-12
2.33223E-10 2.67917E-12
3.04617E-10 2.66925E-12
3.85531E-10 2.65808E-12
4.75965E-10 2.64567E-12
5.75917E-10 2.63206E-12
6.85389E-10 2.61728E-12
8.04380E-10 2.60134E-12
9.32891E-10 2.58429E-12
1.07092E-09 2.56616E-12
1.21847E-09 2.54699E-12
1.37554E-09 2.52681E-12
1.54213E-09 2.50566E-12
1.71823E-09 2.48359E-12
1.90386E-09 2.46062E-12
2.09900E-09 2.43684E-12
2.30367E-09 2.41223E-12
2.51785E-09 2.38689E-12
2.74156E-09 2.36083E-12
2.97478E-09 2.33410E-12
3.21752E-09 2.30678E-12
3.46978E-09 2.27885E-12
3.73156E-09 2.25043E-12
4.00286E-09 2.22151E-12
4.28368E-09 2.19214E-12
4.57402E-09 2.16242E-12
4.87388E-09 2.13232E-12
5.18326E-09 2.10193E-12
5.50215E-09 2.07128E-12
5.83057E-09 2.04039E-12
6.16850E-09 2.00936E-12
6.51596E-09 1.97816E-12
6.87293E-09 1.94688E-12
7.23942E-09 1.91553E-12
7.61544E-09 1.88414E-12
1.18991E-08 1.57591E-12
1.71347E-08 1.29445E-12
2.33223E-08 1.05554E-12
3.04617E-08 8.57536E-13
3.85531E-08 6.99470E-13
4.75965E-08 5.72796E-13
5.75917E-08 4.76495E-13
6.85389E-08 3.99132E-13
8.04380E-08 3.38701E-13
9.32891E-08 2.90243E-13
1.07092E-07 2.50953E-13
1.21847E-07 2.18903E-13
1.37554E-07 1.92201E-13
1.54213E-07 1.69747E-13
1.71823E-07 1.50592E-13
1.90386E-07 1.34251E-13
2.09900E-07 1.19886E-13
2.30367E-07 1.07492E-13
2.51785E-07 9.65154E-14
2.74156E-07 8.68400E-14
2.97478E-07 7.83367E-14
3.21752E-07 7.06598E-14
3.46978E-07 6.39164E-14
3.73156E-07 5.78371E-14
4.00286E-07 5.24196E-14
4.28368E-07 4.75954E-14
4.57402E-07 4.32227E-14
4.87388E-07 3.93426E-14
5.18325E-07 3.58312E-14
5.50215E-07 3.26847E-14
5.83057E-07 2.98614E-14
6.16850E-07 2.73032E-14
6.51596E-07 2.50145E-14
6.87293E-07 2.29394E-14
7.23942E-07 2.10718E-14
7.61543E-07 1.93868E-14
1.18991E-06 9.12406E-15
1.71347E-06 4.91833E-15
2.33223E-06 2.94180E-15
3.04617E-06 1.89505E-15
3.85531E-06 1.28098E-15
4.75964E-06 8.98146E-16
5.75916E-06 6.45705E-16
6.85388E-06 4.74779E-16
8.04378E-06 3.55275E-16
9.32888E-06 2.70416E-16
1.07092E-05 2.08836E-16
1.21846E-05 1.63571E-16
1.37553E-05 1.29734E-16
1.54212E-05 1.04134E-16
1.71822E-05 8.44966E-17
1.90385E-05 6.92579E-17
2.09899E-05 5.73041E-17
2.30365E-05 4.78242E-17
2.51783E-05 4.02287E-17
2.74153E-05 3.40879E-17
2.97475E-05 2.90797E-17
3.21749E-05 2.49632E-17
3.46974E-05 2.15539E-17
3.73152E-05 1.87111E-17
4.00281E-05 1.63246E-17
4.28362E-05 1.43092E-17
4.57395E-05 1.25970E-17
4.87380E-05 1.11347E-17
5.18317E-05 9.87938E-18
5.50205E-05 8.79676E-18
5.83045E-05 7.85889E-18
6.16838E-05 7.04315E-18
6.51582E-05 6.33083E-18
6.87277E-05 5.70656E-18
7.23925E-05 5.15753E-18
7.61524E-05 4.67306E-18
9.21439E-05 3.22174E-18
1.09658E-04 2.29226E-18
1.28695E-04 1.67471E-18
1.49255E-04 1.25141E-18
1.71338E-04 9.53517E-19
1.94942E-04 7.39008E-19
2.20070E-04 5.81413E-19
2.46720E-04 4.63583E-19
2.74892E-04 3.74065E-19
3.04586E-04 3.05103E-19
3.35803E-04 2.51285E-19
3.68542E-04 2.08801E-19
4.02802E-04 1.74909E-19
4.38585E-04 1.47608E-19
4.75889E-04 1.25421E-19
5.14715E-04 1.07243E-19
5.55063E-04 9.22354E-20
5.96931E-04 7.97589E-20
6.40321E-04 6.93187E-20
6.85233E-04 6.05294E-20
7.31665E-04 5.30875E-20
7.79618E-04 4.67532E-20
8.29092E-04 4.13345E-20
8.80086E-04 3.66774E-20
9.32601E-04 3.26570E-20
9.86636E-04 2.91718E-20
1.04219E-03 2.61387E-20
1.09927E-03 2.34891E-20
1.15786E-03 2.11663E-20
1.21797E-03 1.91233E-20
1.27961E-03 1.73205E-20
1.34276E-03 1.57249E-20
1.40743E-03 1.43086E-20
1.47362E-03 1.30480E-20
1.54133E-03 1.19230E-20
1.61056E-03 1.09164E-20
1.68131E-03 1.00137E-20
1.75357E-03 9.20227E-21
1.82735E-03 8.47124E-21
1.90265E-03 7.81125E-21
1.97947E-03 7.21420E-21
2.05780E-03 6.67301E-21
2.13765E-03 6.18155E-21
2.21902E-03 5.73443E-21
2.30190E-03 5.32694E-21
2.38630E-03 4.95495E-21
2.47222E-03 4.61481E-21
2.55965E-03 4.30331E-21
2.64859E-03 4.01760E-21
2.73905E-03 3.75517E-21
2.83103E-03 3.51378E-21
2.92452E-03 3.29143E-21
3.01952E-03 3.08632E-21
3.11604E-03 2.89690E-21
3.21407E-03 2.72177E-21
3.31362E-03 2.55964E-21
3.41468E-03 2.40938E-21
3.51725E-03 2.26997E-21
3.62133E-03 2.14047E-21
3.72692E-03 2.02006E-21
3.83403E-03 1.90798E-21
3.94265E-03 1.80355E-21
4.05278E-03 1.70615E-21
4.16442E-03 1.61522E-21
4.27757E-03 1.53026E-21
4.39223E-03 1.45080E-21
4.50840E-03 1.37641E-21
4.62608E-03 1.30673E-21
4.74527E-03 1.24138E-21
4.86597E-03 1.18006E-21
4.98817E-03 1.12247E-21
5.11188E-03 1.06834E-21
5.23711E-03 1.01743E-21
5.36383E-03 9.69508E-22
5.49207E-03 9.24366E-22
5.62181E-03 8.81814E-22
5.75306E-03 8.41676E-22
5.88581E-03 8.03789E-22
6.02007E-03 7.68005E-22
6.15583E-03 7.34185E-22
6.29310E-03 7.02200E-22
6.43187E-03 6.71934E-22
6.57214E-03 6.43275E-22
6.71392E-03 6.16125E-22
6.85720E-03 5.90387E-22
7.00198E-03 5.65975E-22
7.14827E-03 5.42809E-22
7.29605E-03 5.20812E-22
7.44534E-03 4.99914E-22
7.59612E-03 4.80051E-22
7.97965E-03 4.34531E-22
8.37255E-03 3.94264E-22
8.77480E-03 3.58541E-22
9.18641E-03 3.26761E-22
9.60736E-03 2.98414E-22
1.00376E-02 2.73065E-22
1.04773E-02 2.50342E-22
1.09262E-02 2.29927E-22
1.13844E-02 2.11543E-22
1.18520E-02 1.94953E-22
1.23288E-02 1.79953E-22
1.28150E-02 1.66362E-22
1.33104E-02 1.54025E-22
1.38150E-02 1.42806E-22
1.43290E-02 1.32587E-22
1.48521E-02 1.23261E-22
1.53845E-02 1.14738E-22
1.59262E-02 1.06935E-22
1.64770E-02 9.97819E-23
1.70371E-02 9.32142E-23
1.76063E-02 8.71755E-23
1.81848E-02 8.16157E-23
1.87724E-02 7.64900E-23
1.93692E-02 7.17584E-23
1.99751E-02 6.73853E-23
2.05901E-02 6.33386E-23
2.12143E-02 5.95896E-23
2.18476E-02 5.61125E-23
2.24900E-02 5.28839E-23
2.31415E-02 4.98830E-23
2.38021E-02 4.70907E-23
2.44717E-02 4.44900E-23
2.51504E-02 4.20654E-23
2.58382E-02 3.98027E-23
2.65349E-02 3.76892E-23
2.72407E-02 3.57134E-23
2.79555E-02 3.38645E-23
2.86793E-02 3.21330E-23
2.94120E-02 3.05100E-23
3.01537E-02 2.89876E-23
3.09043E-02 2.75583E-23
3.16639E-02 2.62155E-23
3.24324E-02 2.49529E-23
3.32098E-02 2.37649E-23
3.39961E-02 2.26462E-23
3.47912E-02 2.15922E-23
3.55952E-02 2.05983E-23
3.64081E-02 1.96605E-23
3.72297E-02 1.87751E-23
3.80602E-02 1.79386E-23
3.88995E-02 1.71479E-23
3.97476E-02 1.63999E-23
4.06044E-02 1.56919E-23
4.14700E-02 1.50214E-23
4.23443E-02 1.43860E-23
4.32273E-02 1.37837E-23
4.41190E-02 1.32122E-23
4.50194E-02 1.26698E-23
4.59284E-02 1.21547E-23
4.68461E-02 1.16654E-23
4.87074E-02 1.07577E-23
5.06030E-02 9.93583E-24
5.25328E-02 9.19031E-24
5.44967E-02 8.51279E-24
5.64946E-02 7.89600E-24
5.85262E-02 7.33354E-24
6.05914E-02 6.81980E-24
6.26901E-02 6.34982E-24
6.48222E-02 5.91922E-24
6.69873E-02 5.52413E-24
6.91854E-02 5.16111E-24
7.14163E-02 4.82710E-24
7.36799E-02 4.51937E-24
7.59760E-02 4.23549E-24
7.83043E-02 3.97329E-24
8.06647E-02 3.73083E-24
8.30571E-02 3.50635E-24
8.54812E-02 3.29829E-24
8.79369E-02 3.10523E-24
9.04240E-02 2.92591E-24
9.29422E-02 2.75917E-24
9.54915E-02 2.60397E-24
9.80716E-02 2.45938E-24
1.00682E-01 2.32454E-24
1.03323E-01 2.19867E-24
1.05995E-01 2.08109E-24
1.08696E-01 1.97113E-24
1.11427E-01 1.86823E-24
1.14188E-01 1.77184E-24
1.16978E-01 1.68149E-24
1.19797E-01 1.59673E-24
1.22645E-01 1.51715E-24
1.25522E-01 1.44237E-24
1.28428E-01 1.37207E-24
1.31361E-01 1.30591E-24
1.34323E-01 1.24362E-24
1.37313E-01 1.18493E-24
1.40330E-01 1.12959E-24
1.43375E-01 1.07738E-24
1.46447E-01 1.02809E-24
1.49545E-01 9.81524E-25
1.52671E-01 9.37510E-25
1.55823E-01 8.95882E-25
1.59001E-01 8.56487E-25
1.62205E-01 8.19185E-25
1.65435E-01 7.83844E-25
1.68690E-01 7.50344E-25
1.71970E-01 7.18570E-25
1.75276E-01 6.88420E-25
1.78606E-01 6.59794E-25
1.81961E-01 6.32602E-25
1.85340E-01 6.06760E-25
1.88743E-01 5.82189E-25
1.92169E-01 5.58816E-25
1.95619E-01 5.36571E-25
1.99092E-01 5.15390E-25
2.02589E-01 4.95214E-25
2.06107E-01 4.75987E-25
2.09649E-01 4.57656E-25
2.13212E-01 4.40171E-25
2.16797E-01 4.23488E-25
2.20404E-01 4.07563E-25
2.24032E-01 3.92354E-25
2.27680E-01 3.77825E-25
2.31350E-01 3.63940E-25
2.35040E-01 3.50665E-25
2.38751E-01 3.37969E-25
2.42481E-01 3.25821E-25
2.46231E-01 3.14195E-25
2.50000E-01 3.03063E-25
2.53788E-01 2.92401E-25
2.57595E-01 2.82186E-25
2.61421E-01 2.72396E-25
2.65264E-01 2.63010E-25
2.69126E-01 2.54008E-25
2.73005E-01 2.45373E-25
2.76901E-01 2.37085E-25
2.80814E-01 2.29130E-25
2.84744E-01 2.21491E-25
2.88691E-01 2.14153E-25
2.92653E-01 2.07103E-25
2.96632E-01 2.00328E-25
3.00625E-01 1.93814E-25
3.04634E-01 1.87550E-25
3.08658E-01 1.81525E-25
3.12697E-01 1.75728E-25
3.16749E-01 1.70149E-25
3.20816E-01 1.64779E-25
3.24896E-01 1.59607E-25
3.28990E-01 1.54626E-25
3.33097E-01 1.49827E-25
3.37216E-01 1.45203E-25
3.41348E-01 1.40746E-25
3.45492E-01 1.36449E-25
3.49647E-01 1.32305E-25
3.53814E-01 1.28308E-25
3.57992E-01 1.24452E-25
3.62181E-01 1.20730E-25
3.66381E-01 1.17138E-25
3.70590E-01 1.13671E-25
3.74810E-01 1.10322E-25
3.79039E-01 1.07088E-25
3.83277E-01 1.03963E-25
3.87524E-01 1.00944E-25
3.91780E-01 9.80267E-26
3.96044E-01 9.52062E-26
4.00316E-01 9.24793E-26
4.04596E-01 8.98422E-26
4.08882E-01 8.72916E-26
4.13176E-01 8.48241E-26
4.17476E-01 8.24366E-26
4.21783E-01 8.01260E-26
4.26095E-01 7.78894E-26
4.30413E-01 7.57241E-26
4.34737E-01 7.36275E-26
4.39065E-01 7.15969E-26
4.43398E-01 6.96300E-26
4.47736E-01 6.77244E-26
4.52077E-01 6.58779E-26
4.56422E-01 6.40884E-26
4.60770E-01 6.23538E-26
4.65122E-01 6.06721E-26
4.69476E-01 5.90416E-26
4.73832E-01 5.74603E-26
4.78190E-01 5.59266E-26
4.82550E-01 5.44387E-26
4.86912E-01 5.29951E-26
4.91274E-01 5.15943E-26
4.95637E-01 5.02347E-26
5.00000E-01 4.89151E-26
5.04363E-01 4.76339E-26
5.08726E-01 4.63899E-26
5.13088E-01 4.51819E-26
5.17450E-01 4.40087E-26
5.21810E-01 4.28690E-26
5.26168E-01 4.17618E-26
5.30524E-01 4.06861E-26
5.34878E-01 3.96406E-26
5.39230E-01 3.86246E-26
5.43578E-01 3.76370E-26
5.47923E-01 3.66769E-26
5.52264E-01 3.57434E-26
5.56602E-01 3.48357E-26
5.60935E-01 3.39529E-26
5.65263E-01 3.30943E-26
5.69587E-01 3.22591E-26
5.73905E-01 3.14465E-26
5.78217E-01 3.06559E-26
5.82524E-01 2.98866E-26
5.86824E-01 2.91378E-26
5.91118E-01 2.84091E-26
5.95404E-01 2.76996E-26
5.99684E-01 2.70090E-26
6.03956E-01 2.63366E-26
6.08220E-01 2.56818E-26
6.12476E-01 2.50441E-26
6.16723E-01 2.44230E-26
6.20961E-01 2.38180E-26
6.25190E-01 2.32287E-26
6.29410E-01 2.26545E-26
6.33619E-01 2.20950E-26
6.37819E-01 2.15499E-26
6.42008E-01 2.10186E-26
6.46186E-01 2.05007E-26
6.50353E-01 1.99960E-26
6.54508E-01 1.95039E-26
6.58652E-01 1.90242E-26
6.62784E-01 1.85565E-26
6.66903E-01 1.81005E-26
6.71010E-01 1.76557E-26
6.75104E-01 1.72220E-26
6.79184E-01 1.67989E-26
6.83251E-01 1.63862E-26
6.87303E-01 1.59837E-26
6.91342E-01 1.55909E-26
6.95366E-01 1.52078E-26
6.99375E-01 1.48339E-26
7.03368E-01 1.44690E-26
7.07347E-01 1.41130E-26
7.11309E-01 1.37655E-26
7.15256E-01 1.34263E-26
7.19186E-01 1.30952E-26
7.23099E-01 1.27721E-26
7.26995E-01 1.24565E-26
7.30874E-01 1.21485E-26
7.34736E-01 1.18477E-26
7.38579E-01 1.15541E-26
7.42405E-01 1.12673E-26
7.46212E-01 1.09872E-26
7.50000E-01 1.07137E-26
7.53769E-01 1.04466E-26
7.57519E-01 1.01856E-26
7.61249E-01 9.93075E-27
7.64960E-01 9.68178E-27
7.68650E-01 9.43855E-27
7.72320E-01 9.20093E-27
7.75968E-01 8.96877E-27
7.79596E-01 8.74194E-27
7.83203E-01 8.52030E-27
7.86788E-01 8.30373E-27
7.90351E-01 8.09210E-27
7.93893E-01 7.88529E-27
7.97411E-01 7.68318E-27
8.00908E-01 7.48565E-27
8.04381E-01 7.29260E-27
8.07831E-01 7.10392E-27
8.11257E-01 6.91950E-27
8.14660E-01 6.73924E-27
8.18039E-01 6.56304E-27
8.21394E-01 6.39081E-27
8.24724E-01 6.22244E-27
8.28030E-01 6.05786E-27
8.31310E-01 5.89697E-27
8.34565E-01 5.73969E-27
8.37795E-01 5.58593E-27
8.40999E-01 5.43561E-27
8.44177E-01 5.28865E-27
8.47329E-01 5.14498E-27
8.50455E-01 5.00453E-27
8.53553E-01 4.86721E-27
8.56625E-01 4.73296E-27
8.59670E-01 4.60171E-27
8.62687E-01 4.47340E-27
8.65677E-01 4.34796E-27
8.68639E-01 4.22532E-27
8.71572E-01 4.10543E-27
8.74478E-01 3.98822E-27
8.77355E-01 3.87364E-27
8.80203E-01 3.76163E-27
8.83022E-01 3.65214E-27
8.85812E-01 3.54512E-27
8.88573E-01 3.44050E-27
8.91304E-01 3.33825E-27
8.94005E-01 3.23830E-27
8.96677E-01 3.14062E-27
8.99318E-01 3.04516E-27
9.01928E-01 2.95188E-27
9.04508E-01 2.86072E-27
9.07058E-01 2.77164E-27
9.09576E-01 2.68461E-27
9.12063E-01 2.59959E-27
9.14519E-01 2.51653E-27
9.16943E-01 2.43540E-27
9.19335E-01 2.35615E-27
9.21696E-01 2.27876E-27
9.24024E-01 2.20319E-27
9.26320E-01 2.12940E-27
9.28584E-01 2.05737E-27
9.30815E-01 1.98705E-27
9.33013E-01 1.91841E-27
9.35178E-01 1.85144E-27
9.37310E-01 1.78609E-27
9.39409E-01 1.72233E-27
9.41474E-01 1.66015E-27
9.43505E-01 1.59951E-27
9.45503E-01 1.54038E-27
9.47467E-01 1.48275E-27
9.49397E-01 1.42658E-27
9.51293E-01 1.37185E-27
9.53154E-01 1.31853E-27
9.54981E-01 1.26661E-27
9.56773E-01 1.21607E-27
9.58530E-01 1.16687E-27
9.60252E-01 1.11900E-27
9.61940E-01 1.07244E-27
9.63592E-01 1.02717E-27
9.65209E-01 9.83175E-28
9.66790E-01 9.40427E-28
9.68336E-01 8.98913E-28
9.69846E-01 8.58615E-28
9.71321E-01 8.19517E-28
9.72759E-01 7.81603E-28
9.74162E-01 7.44855E-28
9.75528E-01 7.09260E-28
9.76858E-01 6.74803E-28
9.78152E-01 6.41469E-28
9.79410E-01 6.09245E-28
9.80631E-01 5.78117E-28
9.81815E-01 5.48074E-28
9.82963E-01 5.19101E-28
9.84074E-01 4.91189E-28
9.85148E-01 4.64325E-28
9.86185E-01 4.38498E-28
9.87185E-01 4.13699E-28
9.88148E-01 3.89916E-28
9.89074E-01 3.67141E-28
9.89962E-01 3.45364E-28
9.90814E-01 3.24577E-28
9.91627E-01 3.04771E-28
9.92404E-01 2.85938E-28
9.93143E-01 2.68070E-28
9.93844E-01 2.51161E-28
9.94508E-01 2.35204E-28
9.95134E-01 2.20192E-28
9.95722E-01 2.06120E-28
9.96273E-01 1.92981E-28
9.96786E-01 1.80771E-28
9.97261E-01 1.69485E-28
9.97698E-01 1.59118E-28
9.98097E-01 1.49666E-28
9.98459E-01 1.41126E-28
9.98782E-01 1.33494E-28
9.99067E-01 1.26766E-28
9.99315E-01 1.20941E-28
9.99524E-01 1.16016E-28
9.99695E-01 1.11989E-28
9.99829E-01 1.08859E-28
9.99924E-01 1.06624E-28
9.99981E-01 1.05283E-28
1.00000E+00 1.04836E-28
