 #
 # Subroutine ELSEPA. Elastic scattering of electrons and positrons
 #                    by neutral atoms and positive ions
 #
 # Projectile: positron
 # Kinetic energy = 4.50000E+08 eV = 1.65372E+07 a.u.
 #
 # WARNING: High-energy factorization with free-atom DF screening.
 #          Absorption, polarization and exchange corrections are
 #          switched off.
 #          Phase shifts are calculated for the bare nucleus.
 #          Scattering amplitudes are not evaluated.
 #
 # Element: Ca,  Z =  20,  atomic weight = 4.00780E+01 g/mol
 #
 # Nuclear model: Fermi distribution
 #                Average radius = 3.66173E-13 cm
 #                Skin thickness = 5.46000E-14 cm
 #
 # Number of electrons = 20
 #
 # Total elastic cross section = 1.80750E-18 cm**2 = 6.45469E-02 a0**2
 # 1st transport cross section = 4.17194E-27 cm**2 = 1.48983E-10 a0**2
 # 2nd transport cross section = 1.25071E-26 cm**2 = 4.46635E-10 a0**2
 #
 #
 # Differential cross section:                       MU=(1-COS(THETA))/2
 #
 #  THETA        MU          DCS          DCS        Sherman      error
 #  (deg)                 (cm**2/sr)   (a0**2/sr)    function
 #----------------------------------------------------------------------
0.00000E+00 7.59870E-09
7.61557E-13 6.81345E-09
1.18994E-12 6.42340E-09
1.71346E-12 5.99014E-09
2.33225E-12 5.53225E-09
3.04617E-12 5.06668E-09
3.85530E-12 4.60771E-09
4.75964E-12 4.16660E-09
5.75917E-12 3.75145E-09
6.85391E-12 3.36742E-09
8.04379E-12 3.02187E-09
9.32893E-12 2.71158E-09
1.07092E-11 2.42631E-09
1.21847E-11 2.17073E-09
1.37554E-11 1.95422E-09
1.54213E-11 1.75803E-09
1.71823E-11 1.58183E-09
1.90386E-11 1.43497E-09
2.09900E-11 1.30258E-09
2.30367E-11 1.18345E-09
2.51785E-11 1.08249E-09
2.74156E-11 9.92121E-10
2.97478E-11 9.10687E-10
3.21752E-11 8.39567E-10
3.46979E-11 7.76062E-10
3.73157E-11 7.18659E-10
4.00286E-11 6.67230E-10
4.28368E-11 6.20961E-10
4.57402E-11 5.78986E-10
4.87388E-11 5.40734E-10
5.18325E-11 5.05798E-10
5.50215E-11 4.73987E-10
5.83057E-11 4.44764E-10
6.16850E-11 4.17558E-10
6.51595E-11 3.92702E-10
6.87293E-11 3.69844E-10
7.23943E-11 3.48139E-10
7.61544E-11 3.28246E-10
1.18991E-10 1.88077E-10
1.71347E-10 1.12207E-10
2.33223E-10 6.93775E-11
3.04617E-10 4.46599E-11
3.85531E-10 2.99721E-11
4.75965E-10 2.09341E-11
5.75917E-10 1.51601E-11
6.85389E-10 1.13255E-11
8.04380E-10 8.67691E-12
9.32891E-10 6.79652E-12
1.07092E-09 5.41381E-12
1.21847E-09 4.37151E-12
1.37554E-09 3.57232E-12
1.54213E-09 2.94881E-12
1.71823E-09 2.45507E-12
1.90386E-09 2.05704E-12
2.09900E-09 1.73476E-12
2.30367E-09 1.47200E-12
2.51785E-09 1.25605E-12
2.74156E-09 1.07729E-12
2.97478E-09 9.27768E-13
3.21752E-09 8.02756E-13
3.46978E-09 6.97674E-13
3.73156E-09 6.08884E-13
4.00286E-09 5.33472E-13
4.28368E-09 4.69052E-13
4.57402E-09 4.13947E-13
4.87388E-09 3.66606E-13
5.18326E-09 3.25772E-13
5.50215E-09 2.90400E-13
5.83057E-09 2.59648E-13
6.16850E-09 2.32845E-13
6.51596E-09 2.09403E-13
6.87293E-09 1.88832E-13
7.23942E-09 1.70719E-13
7.61544E-09 1.54725E-13
1.18991E-08 6.49669E-14
1.71347E-08 3.19915E-14
2.33223E-08 1.75747E-14
3.04617E-08 1.04494E-14
3.85531E-08 6.59658E-15
4.75965E-08 4.36545E-15
5.75917E-08 3.00148E-15
6.85389E-08 2.13009E-15
8.04380E-08 1.55260E-15
9.32891E-08 1.15786E-15
1.07092E-07 8.80750E-16
1.21847E-07 6.81661E-16
1.37554E-07 5.35694E-16
1.54213E-07 4.26731E-16
1.71823E-07 3.44082E-16
1.90386E-07 2.80485E-16
2.09900E-07 2.30910E-16
2.30367E-07 1.91810E-16
2.51785E-07 1.60639E-16
2.74156E-07 1.35546E-16
2.97478E-07 1.15163E-16
3.21752E-07 9.84693E-17
3.46978E-07 8.46920E-17
3.73156E-07 7.32409E-17
4.00286E-07 6.36605E-17
4.28368E-07 5.55959E-17
4.57402E-07 4.87683E-17
4.87388E-07 4.29570E-17
5.18325E-07 3.79858E-17
5.50215E-07 3.37132E-17
5.83057E-07 3.00245E-17
6.16850E-07 2.68267E-17
6.51596E-07 2.40434E-17
6.87293E-07 2.16118E-17
7.23942E-07 1.94799E-17
7.61543E-07 1.76045E-17
1.18991E-06 7.21193E-18
1.71347E-06 3.47768E-18
2.33223E-06 1.87700E-18
3.04617E-06 1.10017E-18
3.85531E-06 6.86768E-19
4.75964E-06 4.50548E-19
5.75916E-06 3.07702E-19
6.85388E-06 2.17238E-19
8.04378E-06 1.57706E-19
9.32888E-06 1.17239E-19
1.07092E-05 8.89566E-20
1.21846E-05 6.87106E-20
1.37553E-05 5.39098E-20
1.54212E-05 4.28878E-20
1.71822E-05 3.45438E-20
1.90385E-05 2.81316E-20
2.09899E-05 2.31433E-20
2.30365E-05 1.92130E-20
2.51783E-05 1.60822E-20
2.74153E-05 1.35634E-20
2.97475E-05 1.15187E-20
3.21749E-05 9.84499E-21
3.46974E-05 8.46453E-21
3.73152E-05 7.31782E-21
4.00281E-05 6.35894E-21
4.28362E-05 5.55214E-21
4.57395E-05 4.86931E-21
4.87380E-05 4.28826E-21
5.18317E-05 3.79130E-21
5.50205E-05 3.36424E-21
5.83045E-05 2.99561E-21
6.16838E-05 2.67610E-21
6.51582E-05 2.39808E-21
6.87277E-05 2.15524E-21
7.23925E-05 1.94238E-21
7.61524E-05 1.74780E-21
9.21439E-05 1.19213E-21
1.09658E-04 8.40451E-22
1.28695E-04 6.09208E-22
1.49255E-04 4.52134E-22
1.71338E-04 3.42458E-22
1.94942E-04 2.64017E-22
2.20070E-04 2.06729E-22
2.46720E-04 1.64112E-22
2.74892E-04 1.31885E-22
3.04586E-04 1.07156E-22
3.35803E-04 8.79287E-23
3.68542E-04 7.28007E-23
4.02802E-04 6.07687E-23
4.38585E-04 5.11042E-23
4.75889E-04 4.32712E-23
5.14715E-04 3.68695E-23
5.55063E-04 3.15975E-23
5.96931E-04 2.72251E-23
6.40321E-04 2.35748E-23
6.85233E-04 2.05088E-23
7.31665E-04 1.79188E-23
7.79618E-04 1.57192E-23
8.29092E-04 1.38419E-23
8.80086E-04 1.22321E-23
9.32601E-04 1.08456E-23
9.86636E-04 9.64658E-24
1.04219E-03 8.60553E-24
1.09927E-03 7.69832E-24
1.15786E-03 6.90500E-24
1.21797E-03 6.20895E-24
1.27961E-03 5.59633E-24
1.34276E-03 5.05554E-24
1.40743E-03 4.57680E-24
1.47362E-03 4.15184E-24
1.54133E-03 3.77365E-24
1.61056E-03 3.43625E-24
1.68131E-03 3.13455E-24
1.75357E-03 2.86415E-24
1.82735E-03 2.62129E-24
1.90265E-03 2.40272E-24
1.97947E-03 2.20562E-24
2.05780E-03 2.02754E-24
2.13765E-03 1.86637E-24
2.21902E-03 1.72023E-24
2.30190E-03 1.58751E-24
2.38630E-03 1.46678E-24
2.47222E-03 1.35679E-24
2.55965E-03 1.25643E-24
2.64859E-03 1.16472E-24
2.73905E-03 1.08082E-24
2.83103E-03 1.00394E-24
2.92452E-03 9.33417E-25
3.01952E-03 8.68637E-25
3.11604E-03 8.09064E-25
3.21407E-03 7.54215E-25
3.31362E-03 7.03660E-25
3.41468E-03 6.57011E-25
3.51725E-03 6.13921E-25
3.62133E-03 5.74080E-25
3.72692E-03 5.37206E-25
3.83403E-03 5.03045E-25
3.94265E-03 4.71368E-25
4.05278E-03 4.41970E-25
4.16442E-03 4.14662E-25
4.27757E-03 3.89275E-25
4.39223E-03 3.65654E-25
4.50840E-03 3.43659E-25
4.62608E-03 3.23162E-25
4.74527E-03 3.04048E-25
4.86597E-03 2.86210E-25
4.98817E-03 2.69552E-25
5.11188E-03 2.53984E-25
5.23711E-03 2.39426E-25
5.36383E-03 2.25803E-25
5.49207E-03 2.13048E-25
5.62181E-03 2.01098E-25
5.75306E-03 1.89896E-25
5.88581E-03 1.79388E-25
6.02007E-03 1.69527E-25
6.15583E-03 1.60267E-25
6.29310E-03 1.51568E-25
6.43187E-03 1.43390E-25
6.57214E-03 1.35700E-25
6.71392E-03 1.28464E-25
6.85720E-03 1.21653E-25
7.00198E-03 1.15238E-25
7.14827E-03 1.09194E-25
7.29605E-03 1.03496E-25
7.44534E-03 9.81238E-26
7.59612E-03 9.30553E-26
7.97965E-03 8.15924E-26
8.37255E-03 7.16502E-26
8.77480E-03 6.30074E-26
9.18641E-03 5.54787E-26
9.60736E-03 4.89075E-26
1.00376E-02 4.31616E-26
1.04773E-02 3.81287E-26
1.09262E-02 3.37134E-26
1.13844E-02 2.98340E-26
1.18520E-02 2.64209E-26
1.23288E-02 2.34141E-26
1.28150E-02 2.07620E-26
1.33104E-02 1.84202E-26
1.38150E-02 1.63503E-26
1.43290E-02 1.45190E-26
1.48521E-02 1.28973E-26
1.53845E-02 1.14601E-26
1.59262E-02 1.01855E-26
1.64770E-02 9.05431E-27
1.70371E-02 8.04982E-27
1.76063E-02 7.15733E-27
1.81848E-02 6.36399E-27
1.87724E-02 5.65848E-27
1.93692E-02 5.03084E-27
1.99751E-02 4.47231E-27
2.05901E-02 3.97514E-27
2.12143E-02 3.53251E-27
2.18476E-02 3.13837E-27
2.24900E-02 2.78737E-27
2.31415E-02 2.47478E-27
2.38021E-02 2.19638E-27
2.44717E-02 1.94844E-27
2.51504E-02 1.72766E-27
2.58382E-02 1.53108E-27
2.65349E-02 1.35609E-27
2.72407E-02 1.20034E-27
2.79555E-02 1.06177E-27
2.86793E-02 9.38511E-28
2.94120E-02 8.28919E-28
3.01537E-02 7.31517E-28
3.09043E-02 6.44991E-28
3.16639E-02 5.68167E-28
3.24324E-02 4.99996E-28
3.32098E-02 4.39540E-28
3.39961E-02 3.85963E-28
3.47912E-02 3.38518E-28
3.55952E-02 2.96536E-28
3.64081E-02 2.59419E-28
3.72297E-02 2.26634E-28
3.80602E-02 1.97704E-28
3.88995E-02 1.72202E-28
3.97476E-02 1.49748E-28
4.06044E-02 1.30001E-28
4.14700E-02 1.12656E-28
4.23443E-02 9.74430E-29
4.32273E-02 8.41189E-29
4.41190E-02 7.24675E-29
4.50194E-02 6.22957E-29
4.59284E-02 5.34316E-29
4.68461E-02 4.57218E-29
4.87074E-02 3.32340E-29
5.06030E-02 2.39103E-29
5.25328E-02 1.70226E-29
5.44967E-02 1.19972E-29
5.64946E-02 8.38447E-30
5.85262E-02 5.83311E-30
6.05914E-02 4.07047E-30
6.26901E-02 2.88612E-30
6.48222E-02 2.11887E-30
6.69873E-02 1.64633E-30
6.91854E-02 1.37648E-30
7.14163E-02 1.24106E-30
7.36799E-02 1.19014E-30
7.59760E-02 1.18795E-30
7.83043E-02 1.20946E-30
8.06647E-02 1.23780E-30
8.30571E-02 1.26211E-30
8.54812E-02 1.27598E-30
8.79369E-02 1.27617E-30
9.04240E-02 1.26165E-30
9.29422E-02 1.23288E-30
9.54915E-02 1.19127E-30
9.80716E-02 1.13876E-30
1.00682E-01 1.07754E-30
1.03323E-01 1.00986E-30
1.05995E-01 9.37853E-31
1.08696E-01 8.63481E-31
1.11427E-01 7.88472E-31
1.14188E-01 7.14298E-31
1.16978E-01 6.42170E-31
1.19797E-01 5.73048E-31
1.22645E-01 5.07656E-31
1.25522E-01 4.46509E-31
1.28428E-01 3.89939E-31
1.31361E-01 3.38116E-31
1.34323E-01 2.91082E-31
1.37313E-01 2.48770E-31
1.40330E-01 2.11028E-31
1.43375E-01 1.77641E-31
1.46447E-01 1.48346E-31
1.49545E-01 1.22852E-31
1.52671E-01 1.00846E-31
1.55823E-01 8.20100E-32
1.59001E-01 6.60259E-32
1.62205E-01 5.25843E-32
1.65435E-01 4.13884E-32
1.68690E-01 3.21585E-32
1.71970E-01 2.46341E-32
1.75276E-01 1.85761E-32
1.78606E-01 1.37666E-32
1.81961E-01 1.00098E-32
1.85340E-01 7.13124E-33
1.88743E-01 4.97701E-33
1.92169E-01 3.41258E-33
1.95619E-01 2.32154E-33
1.99092E-01 1.60417E-33
2.02589E-01 1.17588E-33
2.06107E-01 9.65727E-34
2.09649E-01 9.14932E-34
2.13212E-01 9.75413E-34
2.16797E-01 1.10844E-33
2.20404E-01 1.28336E-33
2.24032E-01 1.47641E-33
2.27680E-01 1.66969E-33
2.31350E-01 1.85014E-33
2.35040E-01 2.00876E-33
2.38751E-01 2.13980E-33
2.42481E-01 2.24012E-33
2.46231E-01 2.30863E-33
2.50000E-01 2.34579E-33
2.53788E-01 2.35323E-33
2.57595E-01 2.33336E-33
2.61421E-01 2.28916E-33
2.65264E-01 2.22387E-33
2.69126E-01 2.14088E-33
2.73005E-01 2.04356E-33
2.76901E-01 1.93513E-33
2.80814E-01 1.81864E-33
2.84744E-01 1.69688E-33
2.88691E-01 1.57234E-33
2.92653E-01 1.44722E-33
2.96632E-01 1.32342E-33
3.00625E-01 1.20251E-33
3.04634E-01 1.08581E-33
3.08658E-01 9.74334E-34
3.12697E-01 8.68880E-34
3.16749E-01 7.70006E-34
3.20816E-01 6.78076E-34
3.24896E-01 5.93282E-34
3.28990E-01 5.15670E-34
3.33097E-01 4.45159E-34
3.37216E-01 3.81570E-34
3.41348E-01 3.24640E-34
3.45492E-01 2.74045E-34
3.49647E-01 2.29412E-34
3.53814E-01 1.90340E-34
3.57992E-01 1.56406E-34
3.62181E-01 1.27179E-34
3.66381E-01 1.02229E-34
3.70590E-01 8.11329E-35
3.74810E-01 6.34824E-35
3.79039E-01 4.88869E-35
3.83277E-01 3.69774E-35
3.87524E-01 2.74094E-35
3.91780E-01 1.98639E-35
3.96044E-01 1.40483E-35
4.00316E-01 9.69716E-36
4.04596E-01 6.57070E-36
4.08882E-01 4.45518E-36
4.13176E-01 3.16103E-36
4.17476E-01 2.52213E-36
4.21783E-01 2.39375E-36
4.26095E-01 2.65158E-36
4.30413E-01 3.18971E-36
4.34737E-01 3.91877E-36
4.39065E-01 4.76461E-36
4.43398E-01 5.66669E-36
4.47736E-01 6.57634E-36
4.52077E-01 7.45526E-36
4.56422E-01 8.27439E-36
4.60770E-01 9.01237E-36
4.65122E-01 9.65474E-36
4.69476E-01 1.01923E-35
4.73832E-01 1.06207E-35
4.78190E-01 1.09392E-35
4.82550E-01 1.11502E-35
4.86912E-01 1.12585E-35
4.91274E-01 1.12704E-35
4.95637E-01 1.11938E-35
5.00000E-01 1.10371E-35
5.04363E-01 1.08095E-35
5.08726E-01 1.05201E-35
5.13088E-01 1.01783E-35
5.17450E-01 9.79291E-36
5.21810E-01 9.37254E-36
5.26168E-01 8.92528E-36
5.30524E-01 8.45865E-36
5.34878E-01 7.97945E-36
5.39230E-01 7.49392E-36
5.43578E-01 7.00753E-36
5.47923E-01 6.52515E-36
5.52264E-01 6.05096E-36
5.56602E-01 5.58853E-36
5.60935E-01 5.14079E-36
5.65263E-01 4.71021E-36
5.69587E-01 4.29864E-36
5.73905E-01 3.90756E-36
5.78217E-01 3.53794E-36
5.82524E-01 3.19046E-36
5.86824E-01 2.86542E-36
5.91118E-01 2.56283E-36
5.95404E-01 2.28249E-36
5.99684E-01 2.02394E-36
6.03956E-01 1.78660E-36
6.08220E-01 1.56970E-36
6.12476E-01 1.37239E-36
6.16723E-01 1.19372E-36
6.20961E-01 1.03269E-36
6.25190E-01 8.88251E-37
6.29410E-01 7.59322E-37
6.33619E-01 6.44827E-37
6.37819E-01 5.43698E-37
6.42008E-01 4.54867E-37
6.46186E-01 3.77322E-37
6.50353E-01 3.10052E-37
6.54508E-01 2.52111E-37
6.58652E-01 2.02592E-37
6.62784E-01 1.60642E-37
6.66903E-01 1.25454E-37
6.71010E-01 9.62698E-38
6.75104E-01 7.23903E-38
6.79184E-01 5.31710E-38
6.83251E-01 3.80239E-38
6.87303E-01 2.63964E-38
6.91342E-01 1.77994E-38
6.95366E-01 1.17772E-38
6.99375E-01 7.93551E-39
7.03368E-01 5.91046E-39
7.07347E-01 5.37105E-39
7.11309E-01 6.04621E-39
7.15256E-01 7.66902E-39
7.19186E-01 1.00339E-38
7.23099E-01 1.29408E-38
7.26995E-01 1.62272E-38
7.30874E-01 1.97461E-38
7.34736E-01 2.33861E-38
7.38579E-01 2.70398E-38
7.42405E-01 3.06334E-38
7.46212E-01 3.40887E-38
7.50000E-01 3.73551E-38
7.53769E-01 4.03975E-38
7.57519E-01 4.31779E-38
7.61249E-01 4.56821E-38
7.64960E-01 4.78916E-38
7.68650E-01 4.98019E-38
7.72320E-01 5.14092E-38
7.75968E-01 5.27219E-38
7.79596E-01 5.37429E-38
7.83203E-01 5.44885E-38
7.86788E-01 5.49665E-38
7.90351E-01 5.51941E-38
7.93893E-01 5.51919E-38
7.97411E-01 5.49694E-38
8.00908E-01 5.45497E-38
8.04381E-01 5.39494E-38
8.07831E-01 5.31845E-38
8.11257E-01 5.22736E-38
8.14660E-01 5.12349E-38
8.18039E-01 5.00808E-38
8.21394E-01 4.88294E-38
8.24724E-01 4.74954E-38
8.28030E-01 4.60933E-38
8.31310E-01 4.46351E-38
8.34565E-01 4.31326E-38
8.37795E-01 4.15992E-38
8.40999E-01 4.00444E-38
8.44177E-01 3.84778E-38
8.47329E-01 3.69092E-38
8.50455E-01 3.53448E-38
8.53553E-01 3.37935E-38
8.56625E-01 3.22613E-38
8.59670E-01 3.07542E-38
8.62687E-01 2.92759E-38
8.65677E-01 2.78318E-38
8.68639E-01 2.64242E-38
8.71572E-01 2.50583E-38
8.74478E-01 2.37333E-38
8.77355E-01 2.24529E-38
8.80203E-01 2.12182E-38
8.83022E-01 2.00298E-38
8.85812E-01 1.88871E-38
8.88573E-01 1.77920E-38
8.91304E-01 1.67435E-38
8.94005E-01 1.57414E-38
8.96677E-01 1.47839E-38
8.99318E-01 1.38716E-38
9.01928E-01 1.30030E-38
9.04508E-01 1.21782E-38
9.07058E-01 1.13950E-38
9.09576E-01 1.06524E-38
9.12063E-01 9.94918E-39
9.14519E-01 9.28410E-39
9.16943E-01 8.65627E-39
9.19335E-01 8.06427E-39
9.21696E-01 7.50650E-39
9.24024E-01 6.98230E-39
9.26320E-01 6.48870E-39
9.28584E-01 6.02668E-39
9.30815E-01 5.59247E-39
9.33013E-01 5.18650E-39
9.35178E-01 4.80647E-39
9.37310E-01 4.45188E-39
9.39409E-01 4.12076E-39
9.41474E-01 3.81190E-39
9.43505E-01 3.52368E-39
9.45503E-01 3.25518E-39
9.47467E-01 3.00576E-39
9.49397E-01 2.77335E-39
9.51293E-01 2.55715E-39
9.53154E-01 2.35561E-39
9.54981E-01 2.16873E-39
9.56773E-01 1.99514E-39
9.58530E-01 1.83410E-39
9.60252E-01 1.68421E-39
9.61940E-01 1.54572E-39
9.63592E-01 1.41715E-39
9.65209E-01 1.29813E-39
9.66790E-01 1.18791E-39
9.68336E-01 1.08644E-39
9.69846E-01 9.92624E-40
9.71321E-01 9.05717E-40
9.72759E-01 8.26054E-40
9.74162E-01 7.52569E-40
9.75528E-01 6.85042E-40
9.76858E-01 6.23038E-40
9.78152E-01 5.65879E-40
9.79410E-01 5.13711E-40
9.80631E-01 4.65833E-40
9.81815E-01 4.21869E-40
9.82963E-01 3.81731E-40
9.84074E-01 3.44795E-40
9.85148E-01 3.11276E-40
9.86185E-01 2.80437E-40
9.87185E-01 2.52258E-40
9.88148E-01 2.26249E-40
9.89074E-01 2.02759E-40
9.89962E-01 1.81053E-40
9.90814E-01 1.61131E-40
9.91627E-01 1.43041E-40
9.92404E-01 1.26442E-40
9.93143E-01 1.11153E-40
9.93844E-01 9.70832E-41
9.94508E-01 8.45415E-41
9.95134E-01 7.30619E-41
9.95722E-01 6.26453E-41
9.96273E-01 5.33709E-41
9.96786E-01 4.49553E-41
9.97261E-01 3.74029E-41
9.97698E-01 3.06852E-41
9.98097E-01 2.49091E-41
9.98459E-01 1.98199E-41
9.98782E-01 1.52762E-41
9.99067E-01 1.15899E-41
9.99315E-01 8.35910E-42
9.99524E-01 5.85031E-42
9.99695E-01 3.81235E-42
9.99829E-01 2.31695E-42
9.99924E-01 1.28171E-42
9.99981E-01 5.54666E-43
1.00000E+00 9.09241E-43
