 #
 # Subroutine ELSEPA. Elastic scattering of electrons and positrons
 #                    by neutral atoms and positive ions
 #
 # Projectile: positron
 # Kinetic energy = 6.00000E+08 eV = 2.20496E+07 a.u.
 #
 # WARNING: High-energy factorization with free-atom DF screening.
 #          Absorption, polarization and exchange corrections are
 #          switched off.
 #          Phase shifts are calculated for the bare nucleus.
 #          Scattering amplitudes are not evaluated.
 #
 # Element: Ca,  Z =  20,  atomic weight = 4.00780E+01 g/mol
 #
 # Nuclear model: Fermi distribution
 #                Average radius = 3.66173E-13 cm
 #                Skin thickness = 5.46000E-14 cm
 #
 # Number of electrons = 20
 #
 # Total elastic cross section = 1.80094E-18 cm**2 = 6.43127E-02 a0**2
 # 1st transport cross section = 2.35015E-27 cm**2 = 8.39254E-11 a0**2
 # 2nd transport cross section = 7.04768E-27 cm**2 = 2.51677E-10 a0**2
 #
 #
 # Differential cross section:                       MU=(1-COS(THETA))/2
 #
 #  THETA        MU          DCS          DCS        Sherman      error
 #  (deg)                 (cm**2/sr)   (a0**2/sr)    function
 #----------------------------------------------------------------------
0.00000E+00 1.35011E-08
7.61557E-13 1.11643E-08
1.18994E-12 1.01051E-08
1.71346E-12 9.00421E-09
2.33225E-12 7.92329E-09
3.04617E-12 6.90775E-09
3.85530E-12 5.98537E-09
4.75964E-12 5.18265E-09
5.75917E-12 4.47706E-09
6.85391E-12 3.85870E-09
8.04379E-12 3.35383E-09
9.32893E-12 2.91191E-09
1.07092E-11 2.55101E-09
1.21847E-11 2.24263E-09
1.37554E-11 1.98180E-09
1.54213E-11 1.76380E-09
1.71823E-11 1.57448E-09
1.90386E-11 1.41607E-09
2.09900E-11 1.27766E-09
2.30367E-11 1.15791E-09
2.51785E-11 1.05343E-09
2.74156E-11 9.61351E-10
2.97478E-11 8.79800E-10
3.21752E-11 8.07787E-10
3.46979E-11 7.42375E-10
3.73157E-11 6.84306E-10
4.00286E-11 6.31461E-10
4.28368E-11 5.83602E-10
4.57402E-11 5.40462E-10
4.87388E-11 5.00396E-10
5.18325E-11 4.64539E-10
5.50215E-11 4.30920E-10
5.83057E-11 4.00493E-10
6.16850E-11 3.72425E-10
6.51595E-11 3.46441E-10
6.87293E-11 3.22862E-10
7.23943E-11 3.00586E-10
7.61544E-11 2.80432E-10
1.18991E-10 1.44207E-10
1.71347E-10 7.94261E-11
2.33223E-10 4.70926E-11
3.04617E-10 2.99124E-11
3.85531E-10 2.01419E-11
4.75965E-10 1.41909E-11
5.75917E-10 1.03634E-11
6.85389E-10 7.77446E-12
8.04380E-10 5.95447E-12
9.32891E-10 4.63602E-12
1.07092E-09 3.65846E-12
1.21847E-09 2.92034E-12
1.37554E-09 2.35477E-12
1.54213E-09 1.91610E-12
1.71823E-09 1.57203E-12
1.90386E-09 1.29998E-12
2.09900E-09 1.08301E-12
2.30367E-09 9.08592E-13
2.51785E-09 7.67324E-13
2.74156E-09 6.52088E-13
2.97478E-09 5.57451E-13
3.21752E-09 4.79227E-13
3.46978E-09 4.14169E-13
3.73156E-09 3.59742E-13
4.00286E-09 3.13950E-13
4.28368E-09 2.75216E-13
4.57402E-09 2.42282E-13
4.87388E-09 2.14143E-13
5.18326E-09 1.89987E-13
5.50215E-09 1.69158E-13
5.83057E-09 1.51122E-13
6.16850E-09 1.35440E-13
6.51596E-09 1.21752E-13
6.87293E-09 1.09761E-13
7.23942E-09 9.92197E-14
7.61544E-09 8.99222E-14
1.18991E-08 3.77905E-14
1.71347E-08 1.85870E-14
2.33223E-08 1.01771E-14
3.04617E-08 6.02615E-15
3.85531E-08 3.78901E-15
4.75965E-08 2.49857E-15
5.75917E-08 1.71279E-15
6.85389E-08 1.21256E-15
8.04380E-08 8.82088E-16
9.32891E-08 6.56772E-16
1.07092E-07 4.98943E-16
1.21847E-07 3.85757E-16
1.37554E-07 3.02896E-16
1.54213E-07 2.41120E-16
1.71823E-07 1.94310E-16
1.90386E-07 1.58321E-16
2.09900E-07 1.30288E-16
2.30367E-07 1.08191E-16
2.51785E-07 9.05844E-17
2.74156E-07 7.64168E-17
2.97478E-07 6.49130E-17
3.21752E-07 5.54941E-17
3.46978E-07 4.77229E-17
3.73156E-07 4.12653E-17
4.00286E-07 3.58637E-17
4.28368E-07 3.13175E-17
4.57402E-07 2.74693E-17
4.87388E-07 2.41943E-17
5.18325E-07 2.13931E-17
5.50215E-07 1.89858E-17
5.83057E-07 1.69077E-17
6.16850E-07 1.51058E-17
6.51596E-07 1.35377E-17
6.87293E-07 1.21678E-17
7.23942E-07 1.09670E-17
7.61543E-07 9.91063E-18
1.18991E-06 4.05906E-18
1.71347E-06 1.95732E-18
2.33223E-06 1.05642E-18
3.04617E-06 6.19198E-19
3.85531E-06 3.86527E-19
4.75964E-06 2.53577E-19
5.75916E-06 1.73181E-19
6.85388E-06 1.22266E-19
8.04378E-06 8.87601E-20
9.32888E-06 6.59841E-20
1.07092E-05 5.00665E-20
1.21846E-05 3.86716E-20
1.37553E-05 3.03415E-20
1.54212E-05 2.41381E-20
1.71822E-05 1.94419E-20
1.90385E-05 1.58330E-20
2.09899E-05 1.30255E-20
2.30365E-05 1.08134E-20
2.51783E-05 9.05135E-21
2.74153E-05 7.63374E-21
2.97475E-05 6.48293E-21
3.21749E-05 5.54094E-21
3.46974E-05 4.76400E-21
3.73152E-05 4.11861E-21
4.00281E-05 3.57893E-21
4.28362E-05 3.12485E-21
4.57395E-05 2.74054E-21
4.87380E-05 2.41351E-21
5.18317E-05 2.13381E-21
5.50205E-05 1.89345E-21
5.83045E-05 1.68599E-21
6.16838E-05 1.50616E-21
6.51582E-05 1.34968E-21
6.87277E-05 1.21301E-21
7.23925E-05 1.09321E-21
7.61524E-05 9.79817E-22
9.21439E-05 6.67695E-22
1.09658E-04 4.70243E-22
1.28695E-04 3.40478E-22
1.49255E-04 2.52383E-22
1.71338E-04 1.90909E-22
1.94942E-04 1.46971E-22
2.20070E-04 1.14905E-22
2.46720E-04 9.10690E-23
2.74892E-04 7.30589E-23
3.04586E-04 5.92515E-23
3.35803E-04 4.85260E-23
3.68542E-04 4.00955E-23
4.02802E-04 3.33974E-23
4.38585E-04 2.80231E-23
4.75889E-04 2.36724E-23
5.14715E-04 2.01210E-23
5.55063E-04 1.72000E-23
5.96931E-04 1.47807E-23
6.40321E-04 1.27638E-23
6.85233E-04 1.10722E-23
7.31665E-04 9.64532E-24
7.79618E-04 8.43549E-24
8.29092E-04 7.40461E-24
8.80086E-04 6.52214E-24
9.32601E-04 5.76344E-24
9.86636E-04 5.10849E-24
1.04219E-03 4.54093E-24
1.09927E-03 4.04731E-24
1.15786E-03 3.61652E-24
1.21797E-03 3.23936E-24
1.27961E-03 2.90812E-24
1.34276E-03 2.61636E-24
1.40743E-03 2.35868E-24
1.47362E-03 2.13049E-24
1.54133E-03 1.92791E-24
1.61056E-03 1.74764E-24
1.68131E-03 1.58685E-24
1.75357E-03 1.44313E-24
1.82735E-03 1.31440E-24
1.90265E-03 1.19887E-24
1.97947E-03 1.09499E-24
2.05780E-03 1.00142E-24
2.13765E-03 9.16981E-25
2.21902E-03 8.40663E-25
2.30190E-03 7.71572E-25
2.38630E-03 7.08930E-25
2.47222E-03 6.52050E-25
2.55965E-03 6.00331E-25
2.64859E-03 5.53241E-25
2.73905E-03 5.10308E-25
2.83103E-03 4.71119E-25
2.92452E-03 4.35303E-25
3.01952E-03 4.02532E-25
3.11604E-03 3.72513E-25
3.21407E-03 3.44988E-25
3.31362E-03 3.19721E-25
3.41468E-03 2.96506E-25
3.51725E-03 2.75154E-25
3.62133E-03 2.55499E-25
3.72692E-03 2.37389E-25
3.83403E-03 2.20690E-25
3.94265E-03 2.05277E-25
4.05278E-03 1.91041E-25
4.16442E-03 1.77882E-25
4.27757E-03 1.65709E-25
4.39223E-03 1.54441E-25
4.50840E-03 1.44002E-25
4.62608E-03 1.34326E-25
4.74527E-03 1.25352E-25
4.86597E-03 1.17022E-25
4.98817E-03 1.09286E-25
5.11188E-03 1.02098E-25
5.23711E-03 9.54157E-26
5.36383E-03 8.91993E-26
5.49207E-03 8.34137E-26
5.62181E-03 7.80265E-26
5.75306E-03 7.30077E-26
5.88581E-03 6.83300E-26
6.02007E-03 6.39684E-26
6.15583E-03 5.98996E-26
6.29310E-03 5.61025E-26
6.43187E-03 5.25576E-26
6.57214E-03 4.92468E-26
6.71392E-03 4.61535E-26
6.85720E-03 4.32625E-26
7.00198E-03 4.05595E-26
7.14827E-03 3.80316E-26
7.29605E-03 3.56666E-26
7.44534E-03 3.34534E-26
7.59612E-03 3.13817E-26
7.97965E-03 2.67601E-26
8.37255E-03 2.28332E-26
8.77480E-03 1.94917E-26
9.18641E-03 1.66449E-26
9.60736E-03 1.42169E-26
1.00376E-02 1.21441E-26
1.04773E-02 1.03732E-26
1.09262E-02 8.85909E-27
1.13844E-02 7.56397E-27
1.18520E-02 6.45570E-27
1.23288E-02 5.50707E-27
1.28150E-02 4.69495E-27
1.33104E-02 3.99970E-27
1.38150E-02 3.40454E-27
1.43290E-02 2.89517E-27
1.48521E-02 2.45937E-27
1.53845E-02 2.08668E-27
1.59262E-02 1.76814E-27
1.64770E-02 1.49606E-27
1.70371E-02 1.26386E-27
1.76063E-02 1.06587E-27
1.81848E-02 8.97237E-28
1.87724E-02 7.53770E-28
1.93692E-02 6.31877E-28
1.99751E-02 5.28466E-28
2.05901E-02 4.40876E-28
2.12143E-02 3.66820E-28
2.18476E-02 3.04327E-28
2.24900E-02 2.51705E-28
2.31415E-02 2.07499E-28
2.38021E-02 1.70456E-28
2.44717E-02 1.39503E-28
2.51504E-02 1.13718E-28
2.58382E-02 9.23092E-29
2.65349E-02 7.45993E-29
2.72407E-02 6.00084E-29
2.79555E-02 4.80407E-29
2.86793E-02 3.82732E-29
2.94120E-02 3.03451E-29
3.01537E-02 2.39496E-29
3.09043E-02 1.88262E-29
3.16639E-02 1.47541E-29
3.24324E-02 1.15468E-29
3.32098E-02 9.04678E-30
3.39961E-02 7.12196E-30
3.47912E-02 5.66150E-30
3.55952E-02 4.57291E-30
3.64081E-02 3.77929E-30
3.72297E-02 3.21701E-30
3.80602E-02 2.83370E-30
3.88995E-02 2.58649E-30
3.97476E-02 2.44054E-30
4.06044E-02 2.36776E-30
4.14700E-02 2.34572E-30
4.23443E-02 2.35671E-30
4.32273E-02 2.38692E-30
4.41190E-02 2.42579E-30
4.50194E-02 2.46543E-30
4.59284E-02 2.50008E-30
4.68461E-02 2.52576E-30
4.87074E-02 2.54100E-30
5.06030E-02 2.50232E-30
5.25328E-02 2.41183E-30
5.44967E-02 2.27752E-30
5.64946E-02 2.10999E-30
5.85262E-02 1.92039E-30
6.05914E-02 1.71910E-30
6.26901E-02 1.51510E-30
6.48222E-02 1.31565E-30
6.69873E-02 1.12625E-30
6.91854E-02 9.50767E-31
7.14163E-02 7.91646E-31
7.36799E-02 6.50114E-31
7.59760E-02 5.26443E-31
7.83043E-02 4.20171E-31
8.06647E-02 3.30314E-31
8.30571E-02 2.55535E-31
8.54812E-02 1.94295E-31
8.79369E-02 1.44966E-31
9.04240E-02 1.05917E-31
9.29422E-02 7.55843E-32
9.54915E-02 5.25110E-32
9.80716E-02 3.53762E-32
1.00682E-01 2.30095E-32
1.03323E-01 1.43953E-32
1.05995E-01 8.66899E-33
1.08696E-01 5.10891E-33
1.11427E-01 3.12410E-33
1.14188E-01 2.24042E-33
1.16978E-01 2.08573E-33
1.19797E-01 2.37519E-33
1.22645E-01 2.89708E-33
1.25522E-01 3.49978E-33
1.28428E-01 4.07996E-33
1.31361E-01 4.57225E-33
1.34323E-01 4.94025E-33
1.37313E-01 5.16908E-33
1.40330E-01 5.25910E-33
1.43375E-01 5.22097E-33
1.46447E-01 5.07164E-33
1.49545E-01 4.83133E-33
1.52671E-01 4.52129E-33
1.55823E-01 4.16219E-33
1.59001E-01 3.77304E-33
1.62205E-01 3.37054E-33
1.65435E-01 2.96876E-33
1.68690E-01 2.57902E-33
1.71970E-01 2.20999E-33
1.75276E-01 1.86790E-33
1.78606E-01 1.55679E-33
1.81961E-01 1.27884E-33
1.85340E-01 1.03469E-33
1.88743E-01 8.23728E-34
1.92169E-01 6.44438E-34
1.95619E-01 4.94613E-34
1.99092E-01 3.71604E-34
2.02589E-01 2.72515E-34
2.06107E-01 1.94360E-34
2.09649E-01 1.34184E-34
2.13212E-01 8.91597E-35
2.16797E-01 5.66565E-35
2.20404E-01 3.42815E-35
2.24032E-01 1.99063E-35
2.27680E-01 1.16765E-35
2.31350E-01 8.00819E-36
2.35040E-01 7.57701E-36
2.38751E-01 9.29947E-36
2.42481E-01 1.23108E-35
2.46231E-01 1.59403E-35
2.50000E-01 1.96852E-35
2.53788E-01 2.31859E-35
2.57595E-01 2.62014E-35
2.61421E-01 2.85873E-35
2.65264E-01 3.02750E-35
2.69126E-01 3.12540E-35
2.73005E-01 3.15567E-35
2.76901E-01 3.12447E-35
2.80814E-01 3.03981E-35
2.84744E-01 2.91076E-35
2.88691E-01 2.74661E-35
2.92653E-01 2.55649E-35
2.96632E-01 2.34896E-35
3.00625E-01 2.13171E-35
3.04634E-01 1.91148E-35
3.08658E-01 1.69395E-35
3.12697E-01 1.48375E-35
3.16749E-01 1.28448E-35
3.20816E-01 1.09879E-35
3.24896E-01 9.28477E-36
3.28990E-01 7.74600E-36
3.33097E-01 6.37563E-36
3.37216E-01 5.17252E-36
3.41348E-01 4.13129E-36
3.45492E-01 3.24331E-36
3.49647E-01 2.49767E-36
3.53814E-01 1.88185E-36
3.57992E-01 1.38250E-36
3.62181E-01 9.85955E-37
3.66381E-01 6.78679E-37
3.70590E-01 4.47655E-37
3.74810E-01 2.80613E-37
3.79039E-01 1.66248E-37
3.83277E-01 9.43466E-38
3.87524E-01 5.58097E-38
3.91780E-01 4.26918E-38
3.96044E-01 4.81844E-38
4.00316E-01 6.65034E-38
4.04596E-01 9.29224E-38
4.08882E-01 1.23583E-37
4.13176E-01 1.55476E-37
4.17476E-01 1.86288E-37
4.21783E-01 2.14359E-37
4.26095E-01 2.38529E-37
4.30413E-01 2.58090E-37
4.34737E-01 2.72711E-37
4.39065E-01 2.82343E-37
4.43398E-01 2.87146E-37
4.47736E-01 2.87451E-37
4.52077E-01 2.83714E-37
4.56422E-01 2.76447E-37
4.60770E-01 2.66209E-37
4.65122E-01 2.53549E-37
4.69476E-01 2.39027E-37
4.73832E-01 2.23154E-37
4.78190E-01 2.06405E-37
4.82550E-01 1.89207E-37
4.86912E-01 1.71931E-37
4.91274E-01 1.54892E-37
4.95637E-01 1.38354E-37
5.00000E-01 1.22524E-37
5.04363E-01 1.07566E-37
5.08726E-01 9.35991E-38
5.13088E-01 8.07043E-38
5.17450E-01 6.89233E-38
5.21810E-01 5.82758E-38
5.26168E-01 4.87505E-38
5.30524E-01 4.03174E-38
5.34878E-01 3.29325E-38
5.39230E-01 2.65358E-38
5.43578E-01 2.10606E-38
5.47923E-01 1.64315E-38
5.52264E-01 1.25718E-38
5.56602E-01 9.40159E-39
5.60935E-01 6.84350E-39
5.65263E-01 4.82230E-39
5.69587E-01 3.26353E-39
5.73905E-01 2.10127E-39
5.78217E-01 1.27277E-39
5.82524E-01 1.00000E-45
5.86824E-01 1.00000E-45
5.91118E-01 1.00000E-45
5.95404E-01 1.00000E-45
5.99684E-01 1.00000E-45
6.03956E-01 1.00000E-45
6.08220E-01 1.00000E-45
6.12476E-01 1.00000E-45
6.16723E-01 1.00000E-45
6.20961E-01 1.00000E-45
6.25190E-01 1.00000E-45
6.29410E-01 1.00000E-45
6.33619E-01 1.00000E-45
6.37819E-01 1.00000E-45
6.42008E-01 1.00000E-45
6.46186E-01 1.00000E-45
6.50353E-01 1.00000E-45
6.54508E-01 1.00000E-45
6.58652E-01 1.00000E-45
6.62784E-01 1.00000E-45
6.66903E-01 1.00000E-45
6.71010E-01 1.00000E-45
6.75104E-01 1.00000E-45
6.79184E-01 1.00000E-45
6.83251E-01 1.00000E-45
6.87303E-01 1.00000E-45
6.91342E-01 1.00000E-45
6.95366E-01 1.00000E-45
6.99375E-01 1.00000E-45
7.03368E-01 1.00000E-45
7.07347E-01 1.00000E-45
7.11309E-01 1.00000E-45
7.15256E-01 1.00000E-45
7.19186E-01 1.00000E-45
7.23099E-01 1.00000E-45
7.26995E-01 1.00000E-45
7.30874E-01 1.00000E-45
7.34736E-01 1.00000E-45
7.38579E-01 1.00000E-45
7.42405E-01 1.00000E-45
7.46212E-01 1.00000E-45
7.50000E-01 1.00000E-45
7.53769E-01 1.00000E-45
7.57519E-01 1.00000E-45
7.61249E-01 1.00000E-45
7.64960E-01 1.00000E-45
7.68650E-01 1.00000E-45
7.72320E-01 1.00000E-45
7.75968E-01 1.00000E-45
7.79596E-01 1.00000E-45
7.83203E-01 1.00000E-45
7.86788E-01 1.00000E-45
7.90351E-01 1.00000E-45
7.93893E-01 1.00000E-45
7.97411E-01 1.00000E-45
8.00908E-01 1.00000E-45
8.04381E-01 1.00000E-45
8.07831E-01 1.00000E-45
8.11257E-01 1.00000E-45
8.14660E-01 1.00000E-45
8.18039E-01 1.00000E-45
8.21394E-01 1.00000E-45
8.24724E-01 1.00000E-45
8.28030E-01 1.00000E-45
8.31310E-01 1.00000E-45
8.34565E-01 1.00000E-45
8.37795E-01 1.00000E-45
8.40999E-01 1.00000E-45
8.44177E-01 1.00000E-45
8.47329E-01 1.00000E-45
8.50455E-01 1.00000E-45
8.53553E-01 1.00000E-45
8.56625E-01 1.00000E-45
8.59670E-01 1.00000E-45
8.62687E-01 1.00000E-45
8.65677E-01 1.00000E-45
8.68639E-01 1.00000E-45
8.71572E-01 1.00000E-45
8.74478E-01 1.00000E-45
8.77355E-01 1.00000E-45
8.80203E-01 1.00000E-45
8.83022E-01 1.00000E-45
8.85812E-01 1.00000E-45
8.88573E-01 1.00000E-45
8.91304E-01 1.00000E-45
8.94005E-01 1.00000E-45
8.96677E-01 1.00000E-45
8.99318E-01 1.00000E-45
9.01928E-01 1.00000E-45
9.04508E-01 1.00000E-45
9.07058E-01 1.00000E-45
9.09576E-01 1.00000E-45
9.12063E-01 1.00000E-45
9.14519E-01 1.00000E-45
9.16943E-01 1.00000E-45
9.19335E-01 1.00000E-45
9.21696E-01 1.00000E-45
9.24024E-01 1.00000E-45
9.26320E-01 1.00000E-45
9.28584E-01 1.00000E-45
9.30815E-01 1.00000E-45
9.33013E-01 1.00000E-45
9.35178E-01 1.00000E-45
9.37310E-01 1.00000E-45
9.39409E-01 1.00000E-45
9.41474E-01 1.00000E-45
9.43505E-01 1.00000E-45
9.45503E-01 1.00000E-45
9.47467E-01 1.00000E-45
9.49397E-01 1.00000E-45
9.51293E-01 1.00000E-45
9.53154E-01 1.00000E-45
9.54981E-01 1.00000E-45
9.56773E-01 1.00000E-45
9.58530E-01 1.00000E-45
9.60252E-01 1.00000E-45
9.61940E-01 1.00000E-45
9.63592E-01 1.00000E-45
9.65209E-01 1.00000E-45
9.66790E-01 1.00000E-45
9.68336E-01 1.00000E-45
9.69846E-01 1.00000E-45
9.71321E-01 1.00000E-45
9.72759E-01 1.00000E-45
9.74162E-01 1.00000E-45
9.75528E-01 1.00000E-45
9.76858E-01 1.00000E-45
9.78152E-01 1.00000E-45
9.79410E-01 1.00000E-45
9.80631E-01 1.00000E-45
9.81815E-01 1.00000E-45
9.82963E-01 1.00000E-45
9.84074E-01 1.00000E-45
9.85148E-01 1.00000E-45
9.86185E-01 1.00000E-45
9.87185E-01 1.00000E-45
9.88148E-01 1.00000E-45
9.89074E-01 1.00000E-45
9.89962E-01 1.00000E-45
9.90814E-01 1.00000E-45
9.91627E-01 1.00000E-45
9.92404E-01 1.00000E-45
9.93143E-01 1.00000E-45
9.93844E-01 1.00000E-45
9.94508E-01 1.00000E-45
9.95134E-01 1.00000E-45
9.95722E-01 1.00000E-45
9.96273E-01 1.00000E-45
9.96786E-01 1.00000E-45
9.97261E-01 1.00000E-45
9.97698E-01 1.00000E-45
9.98097E-01 1.00000E-45
9.98459E-01 1.00000E-45
9.98782E-01 1.00000E-45
9.99067E-01 1.00000E-45
9.99315E-01 1.00000E-45
9.99524E-01 1.00000E-45
9.99695E-01 1.00000E-45
9.99829E-01 1.00000E-45
9.99924E-01 1.00000E-45
9.99981E-01 1.00000E-45
1.00000E+00 1.00000E-45
