 #
 # Subroutine ELSEPA. Elastic scattering of electrons and positrons
 #                    by neutral atoms and positive ions
 #
 # Projectile: positron
 # Kinetic energy = 2.50000E+08 eV = 9.18733E+06 a.u.
 #
 # WARNING: High-energy factorization with free-atom DF screening.
 #          Absorption, polarization and exchange corrections are
 #          switched off.
 #          Phase shifts are calculated for the bare nucleus.
 #          Scattering amplitudes are not evaluated.
 #
 # Element: Ca,  Z =  20,  atomic weight = 4.00780E+01 g/mol
 #
 # Nuclear model: Fermi distribution
 #                Average radius = 3.66173E-13 cm
 #                Skin thickness = 5.46000E-14 cm
 #
 # Number of electrons = 20
 #
 # Total elastic cross section = 1.81152E-18 cm**2 = 6.46904E-02 a0**2
 # 1st transport cross section = 1.34507E-26 cm**2 = 4.80333E-10 a0**2
 # 2nd transport cross section = 4.02621E-26 cm**2 = 1.43778E-09 a0**2
 #
 #
 # Differential cross section:                       MU=(1-COS(THETA))/2
 #
 #  THETA        MU          DCS          DCS        Sherman      error
 #  (deg)                 (cm**2/sr)   (a0**2/sr)    function
 #----------------------------------------------------------------------
0.00000E+00 2.34954E-09
7.61557E-13 2.27020E-09
1.18994E-12 2.22733E-09
1.71346E-12 2.17654E-09
2.33225E-12 2.11867E-09
3.04617E-12 2.05468E-09
3.85530E-12 1.98555E-09
4.75964E-12 1.91232E-09
5.75917E-12 1.83595E-09
6.85391E-12 1.75743E-09
8.04379E-12 1.67768E-09
9.32893E-12 1.59757E-09
1.07092E-11 1.51783E-09
1.21847E-11 1.43912E-09
1.37554E-11 1.36204E-09
1.54213E-11 1.28712E-09
1.71823E-11 1.21468E-09
1.90386E-11 1.14504E-09
2.09900E-11 1.07842E-09
2.30367E-11 1.01503E-09
2.51785E-11 9.55542E-10
2.74156E-11 9.00367E-10
2.97478E-11 8.47539E-10
3.21752E-11 7.97104E-10
3.46979E-11 7.49075E-10
3.73157E-11 7.03447E-10
4.00286E-11 6.62421E-10
4.28368E-11 6.24854E-10
4.57402E-11 5.89264E-10
4.87388E-11 5.55594E-10
5.18325E-11 5.23780E-10
5.50215E-11 4.93751E-10
5.83057E-11 4.67541E-10
6.16850E-11 4.42914E-10
6.51595E-11 4.19669E-10
6.87293E-11 3.97740E-10
7.23943E-11 3.77062E-10
7.61544E-11 3.57898E-10
1.18991E-10 2.25569E-10
1.71347E-10 1.52711E-10
2.33223E-10 1.08134E-10
3.04617E-10 7.86133E-11
3.85531E-10 5.80155E-11
4.75965E-10 4.33190E-11
5.75917E-10 3.27205E-11
6.85389E-10 2.50003E-11
8.04380E-10 1.93261E-11
9.32891E-10 1.51279E-11
1.07092E-09 1.19977E-11
1.21847E-09 9.63836E-12
1.37554E-09 7.83977E-12
1.54213E-09 6.45293E-12
1.71823E-09 5.37144E-12
1.90386E-09 4.51773E-12
2.09900E-09 3.83569E-12
2.30367E-09 3.28422E-12
2.51785E-09 2.83278E-12
2.74156E-09 2.45987E-12
2.97478E-09 2.15151E-12
3.21752E-09 1.88904E-12
3.46978E-09 1.66901E-12
3.73156E-09 1.47935E-12
4.00286E-09 1.31727E-12
4.28368E-09 1.17687E-12
4.57402E-09 1.05446E-12
4.87388E-09 9.48301E-13
5.18326E-09 8.54020E-13
5.50215E-09 7.72143E-13
5.83057E-09 6.98551E-13
6.16850E-09 6.34062E-13
6.51596E-09 5.76296E-13
6.87293E-09 5.24922E-13
7.23942E-09 4.79051E-13
7.61544E-09 4.37744E-13
1.18991E-08 1.93352E-13
1.71347E-08 9.65641E-14
2.33223E-08 5.31856E-14
3.04617E-08 3.16467E-14
3.85531E-08 2.00166E-14
4.75965E-08 1.32914E-14
5.75917E-08 9.17860E-15
6.85389E-08 6.54576E-15
8.04380E-08 4.79494E-15
9.32891E-08 3.59307E-15
1.07092E-07 2.74542E-15
1.21847E-07 2.13352E-15
1.37554E-07 1.68283E-15
1.54213E-07 1.34492E-15
1.71823E-07 1.08757E-15
1.90386E-07 8.88813E-16
2.09900E-07 7.33353E-16
2.30367E-07 6.10369E-16
2.51785E-07 5.12050E-16
2.74156E-07 4.32716E-16
2.97478E-07 3.68136E-16
3.21752E-07 3.15138E-16
3.46978E-07 2.71323E-16
3.73156E-07 2.34850E-16
4.00286E-07 2.04294E-16
4.28368E-07 1.78541E-16
4.57402E-07 1.56713E-16
4.87388E-07 1.38116E-16
5.18325E-07 1.22194E-16
5.50215E-07 1.08498E-16
5.83057E-07 9.66660E-17
6.16850E-07 8.64014E-17
6.51596E-07 7.74622E-17
6.87293E-07 6.96485E-17
7.23942E-07 6.27946E-17
7.61543E-07 5.67625E-17
1.18991E-06 2.32895E-17
1.71347E-06 1.12393E-17
2.33223E-06 6.06859E-18
3.04617E-06 3.55779E-18
3.85531E-06 2.22106E-18
4.75964E-06 1.45711E-18
5.75916E-06 9.95141E-19
6.85388E-06 7.02573E-19
8.04378E-06 5.10040E-19
9.32888E-06 3.79164E-19
1.07092E-05 2.87696E-19
1.21846E-05 2.22219E-19
1.37553E-05 1.74351E-19
1.54212E-05 1.38705E-19
1.71822E-05 1.11719E-19
1.90385E-05 9.09814E-20
2.09899E-05 7.48485E-20
2.30365E-05 6.21373E-20
2.51783E-05 5.20119E-20
2.74153E-05 4.38659E-20
2.97475E-05 3.72530E-20
3.21749E-05 3.18401E-20
3.46974E-05 2.73755E-20
3.73152E-05 2.36669E-20
4.00281E-05 2.05657E-20
4.28362E-05 1.79564E-20
4.57395E-05 1.57480E-20
4.87380E-05 1.38688E-20
5.18317E-05 1.22616E-20
5.50205E-05 1.08804E-20
5.83045E-05 9.68824E-21
6.16838E-05 8.65490E-21
6.51582E-05 7.75573E-21
6.87277E-05 6.97036E-21
7.23925E-05 6.28194E-21
7.61524E-05 5.67055E-21
9.21439E-05 3.87067E-21
1.09658E-04 2.73111E-21
1.28695E-04 1.98151E-21
1.49255E-04 1.47210E-21
1.71338E-04 1.11624E-21
1.94942E-04 8.61587E-22
2.20070E-04 6.75497E-22
2.46720E-04 5.36978E-22
2.74892E-04 4.32157E-22
3.04586E-04 3.51668E-22
3.35803E-04 2.89039E-22
3.68542E-04 2.39722E-22
4.02802E-04 2.00464E-22
4.38585E-04 1.68903E-22
4.75889E-04 1.43299E-22
5.14715E-04 1.22352E-22
5.55063E-04 1.05085E-22
5.96931E-04 9.07474E-23
6.40321E-04 7.87645E-23
6.85233E-04 6.86877E-23
7.31665E-04 6.01648E-23
7.79618E-04 5.29174E-23
8.29092E-04 4.67236E-23
8.80086E-04 4.14052E-23
9.32601E-04 3.68180E-23
9.86636E-04 3.28449E-23
1.04219E-03 2.93901E-23
1.09927E-03 2.63747E-23
1.15786E-03 2.37335E-23
1.21797E-03 2.14123E-23
1.27961E-03 1.93657E-23
1.34276E-03 1.75559E-23
1.40743E-03 1.59507E-23
1.47362E-03 1.45231E-23
1.54133E-03 1.32502E-23
1.61056E-03 1.21123E-23
1.68131E-03 1.10927E-23
1.75357E-03 1.01769E-23
1.82735E-03 9.35267E-24
1.90265E-03 8.60917E-24
1.97947E-03 7.93717E-24
2.05780E-03 7.32862E-24
2.13765E-03 6.77649E-24
2.21902E-03 6.27465E-24
2.30190E-03 5.81774E-24
2.38630E-03 5.40104E-24
2.47222E-03 5.02039E-24
2.55965E-03 4.67215E-24
2.64859E-03 4.35308E-24
2.73905E-03 4.06030E-24
2.83103E-03 3.79129E-24
2.92452E-03 3.54378E-24
3.01952E-03 3.31575E-24
3.11604E-03 3.10540E-24
3.21407E-03 2.91113E-24
3.31362E-03 2.73150E-24
3.41468E-03 2.56521E-24
3.51725E-03 2.41110E-24
3.62133E-03 2.26813E-24
3.72692E-03 2.13534E-24
3.83403E-03 2.01190E-24
3.94265E-03 1.89703E-24
4.05278E-03 1.79003E-24
4.16442E-03 1.69026E-24
4.27757E-03 1.59717E-24
4.39223E-03 1.51022E-24
4.50840E-03 1.42894E-24
4.62608E-03 1.35289E-24
4.74527E-03 1.28169E-24
4.86597E-03 1.21496E-24
4.98817E-03 1.15239E-24
5.11188E-03 1.09366E-24
5.23711E-03 1.03851E-24
5.36383E-03 9.86672E-25
5.49207E-03 9.37919E-25
5.62181E-03 8.92034E-25
5.75306E-03 8.48821E-25
5.88581E-03 8.08098E-25
6.02007E-03 7.69696E-25
6.15583E-03 7.33463E-25
6.29310E-03 6.99254E-25
6.43187E-03 6.66937E-25
6.57214E-03 6.36390E-25
6.71392E-03 6.07501E-25
6.85720E-03 5.80163E-25
7.00198E-03 5.54280E-25
7.14827E-03 5.29762E-25
7.29605E-03 5.06525E-25
7.44534E-03 4.84490E-25
7.59612E-03 4.63585E-25
7.97965E-03 4.15836E-25
8.37255E-03 3.73805E-25
8.77480E-03 3.36705E-25
9.18641E-03 3.03872E-25
9.60736E-03 2.74743E-25
1.00376E-02 2.48838E-25
1.04773E-02 2.25748E-25
1.09262E-02 2.05123E-25
1.13844E-02 1.86662E-25
1.18520E-02 1.70105E-25
1.23288E-02 1.55227E-25
1.28150E-02 1.41835E-25
1.33104E-02 1.29759E-25
1.38150E-02 1.18852E-25
1.43290E-02 1.08985E-25
1.48521E-02 1.00045E-25
1.53845E-02 9.19335E-26
1.59262E-02 8.45634E-26
1.64770E-02 7.78578E-26
1.70371E-02 7.17491E-26
1.76063E-02 6.61771E-26
1.81848E-02 6.10886E-26
1.87724E-02 5.64364E-26
1.93692E-02 5.21783E-26
1.99751E-02 4.82769E-26
2.05901E-02 4.46986E-26
2.12143E-02 4.14134E-26
2.18476E-02 3.83944E-26
2.24900E-02 3.56176E-26
2.31415E-02 3.30612E-26
2.38021E-02 3.07058E-26
2.44717E-02 2.85338E-26
2.51504E-02 2.65293E-26
2.58382E-02 2.46781E-26
2.65349E-02 2.29670E-26
2.72407E-02 2.13845E-26
2.79555E-02 1.99199E-26
2.86793E-02 1.85634E-26
2.94120E-02 1.73064E-26
3.01537E-02 1.61407E-26
3.09043E-02 1.50592E-26
3.16639E-02 1.40551E-26
3.24324E-02 1.31225E-26
3.32098E-02 1.22557E-26
3.39961E-02 1.14498E-26
3.47912E-02 1.07001E-26
3.55952E-02 1.00023E-26
3.64081E-02 9.35248E-27
3.72297E-02 8.74719E-27
3.80602E-02 8.18307E-27
3.88995E-02 7.65713E-27
3.97476E-02 7.16658E-27
4.06044E-02 6.70888E-27
4.14700E-02 6.28166E-27
4.23443E-02 5.88275E-27
4.32273E-02 5.51017E-27
4.41190E-02 5.16204E-27
4.50194E-02 4.83668E-27
4.59284E-02 4.53250E-27
4.68461E-02 4.24804E-27
4.87074E-02 3.73297E-27
5.06030E-02 3.28183E-27
5.25328E-02 2.88630E-27
5.44967E-02 2.53923E-27
5.64946E-02 2.23445E-27
5.85262E-02 1.96662E-27
6.05914E-02 1.73112E-27
6.26901E-02 1.52392E-27
6.48222E-02 1.34154E-27
6.69873E-02 1.18094E-27
6.91854E-02 1.03947E-27
7.14163E-02 9.14805E-28
7.36799E-02 8.04930E-28
7.59760E-02 7.08073E-28
7.83043E-02 6.22681E-28
8.06647E-02 5.47392E-28
8.30571E-02 4.81011E-28
8.54812E-02 4.22485E-28
8.79369E-02 3.70892E-28
9.04240E-02 3.25416E-28
9.29422E-02 2.85341E-28
9.54915E-02 2.50033E-28
9.80716E-02 2.18937E-28
1.00682E-01 1.91559E-28
1.03323E-01 1.67465E-28
1.05995E-01 1.46271E-28
1.08696E-01 1.27638E-28
1.11427E-01 1.11266E-28
1.14188E-01 9.68891E-29
1.16978E-01 8.42738E-29
1.19797E-01 7.32124E-29
1.22645E-01 6.35215E-29
1.25522E-01 5.50387E-29
1.28428E-01 4.76206E-29
1.31361E-01 4.11401E-29
1.34323E-01 3.54849E-29
1.37313E-01 3.05558E-29
1.40330E-01 2.62649E-29
1.43375E-01 2.25347E-29
1.46447E-01 1.92964E-29
1.49545E-01 1.64897E-29
1.52671E-01 1.40609E-29
1.55823E-01 1.19630E-29
1.59001E-01 1.01542E-29
1.62205E-01 8.59794E-30
1.65435E-01 7.26182E-30
1.68690E-01 6.11742E-30
1.71970E-01 5.13970E-30
1.75276E-01 4.30668E-30
1.78606E-01 3.59906E-30
1.81961E-01 2.99988E-30
1.85340E-01 2.49432E-30
1.88743E-01 2.06938E-30
1.92169E-01 1.71372E-30
1.95619E-01 1.41742E-30
1.99092E-01 1.17187E-30
2.02589E-01 9.69531E-31
2.06107E-01 8.03889E-31
2.09649E-01 6.69284E-31
2.13212E-01 5.60819E-31
2.16797E-01 4.74266E-31
2.20404E-01 4.05984E-31
2.24032E-01 3.52846E-31
2.27680E-01 3.12174E-31
2.31350E-01 2.81678E-31
2.35040E-01 2.59413E-31
2.38751E-01 2.43730E-31
2.42481E-01 2.33236E-31
2.46231E-01 2.26763E-31
2.50000E-01 2.23335E-31
2.53788E-01 2.22142E-31
2.57595E-01 2.22519E-31
2.61421E-01 2.23921E-31
2.65264E-01 2.25909E-31
2.69126E-01 2.28134E-31
2.73005E-01 2.30320E-31
2.76901E-01 2.32259E-31
2.80814E-01 2.33791E-31
2.84744E-01 2.34805E-31
2.88691E-01 2.35226E-31
2.92653E-01 2.35007E-31
2.96632E-01 2.34129E-31
3.00625E-01 2.32590E-31
3.04634E-01 2.30406E-31
3.08658E-01 2.27603E-31
3.12697E-01 2.24217E-31
3.16749E-01 2.20291E-31
3.20816E-01 2.15873E-31
3.24896E-01 2.11013E-31
3.28990E-01 2.05762E-31
3.33097E-01 2.00171E-31
3.37216E-01 1.94293E-31
3.41348E-01 1.88177E-31
3.45492E-01 1.81871E-31
3.49647E-01 1.75419E-31
3.53814E-01 1.68866E-31
3.57992E-01 1.62250E-31
3.62181E-01 1.55608E-31
3.66381E-01 1.48973E-31
3.70590E-01 1.42377E-31
3.74810E-01 1.35847E-31
3.79039E-01 1.29407E-31
3.83277E-01 1.23078E-31
3.87524E-01 1.16880E-31
3.91780E-01 1.10828E-31
3.96044E-01 1.04937E-31
4.00316E-01 9.92173E-32
4.04596E-01 9.36789E-32
4.08882E-01 8.83289E-32
4.13176E-01 8.31729E-32
4.17476E-01 7.82147E-32
4.21783E-01 7.34568E-32
4.26095E-01 6.89002E-32
4.30413E-01 6.45448E-32
4.34737E-01 6.03893E-32
4.39065E-01 5.64316E-32
4.43398E-01 5.26689E-32
4.47736E-01 4.90973E-32
4.52077E-01 4.57127E-32
4.56422E-01 4.25102E-32
4.60770E-01 3.94847E-32
4.65122E-01 3.66307E-32
4.69476E-01 3.39422E-32
4.73832E-01 3.14133E-32
4.78190E-01 2.90379E-32
4.82550E-01 2.68096E-32
4.86912E-01 2.47222E-32
4.91274E-01 2.27694E-32
4.95637E-01 2.09448E-32
5.00000E-01 1.92424E-32
5.04363E-01 1.76559E-32
5.08726E-01 1.61795E-32
5.13088E-01 1.48071E-32
5.17450E-01 1.35332E-32
5.21810E-01 1.23521E-32
5.26168E-01 1.12586E-32
5.30524E-01 1.02473E-32
5.34878E-01 9.31349E-33
5.39230E-01 8.45221E-33
5.43578E-01 7.65892E-33
5.47923E-01 6.92924E-33
5.52264E-01 6.25899E-33
5.56602E-01 5.64419E-33
5.60935E-01 5.08105E-33
5.65263E-01 4.56597E-33
5.69587E-01 4.09557E-33
5.73905E-01 3.66662E-33
5.78217E-01 3.27609E-33
5.82524E-01 2.92113E-33
5.86824E-01 2.59903E-33
5.91118E-01 2.30727E-33
5.95404E-01 2.04348E-33
5.99684E-01 1.80543E-33
6.03956E-01 1.59104E-33
6.08220E-01 1.39838E-33
6.12476E-01 1.22561E-33
6.16723E-01 1.07107E-33
6.20961E-01 9.33167E-34
6.25190E-01 8.10449E-34
6.29410E-01 7.01559E-34
6.33619E-01 6.05240E-34
6.37819E-01 5.20333E-34
6.42008E-01 4.45759E-34
6.46186E-01 3.80532E-34
6.50353E-01 3.23732E-34
6.54508E-01 2.74521E-34
6.58652E-01 2.32126E-34
6.62784E-01 1.95839E-34
6.66903E-01 1.65009E-34
6.71010E-01 1.39042E-34
6.75104E-01 1.17394E-34
6.79184E-01 9.95709E-35
6.83251E-01 8.51231E-35
6.87303E-01 7.36393E-35
6.91342E-01 6.47491E-35
6.95366E-01 5.81150E-35
6.99375E-01 5.34347E-35
7.03368E-01 5.04340E-35
7.07347E-01 4.88651E-35
7.11309E-01 4.85095E-35
7.15256E-01 4.91668E-35
7.19186E-01 5.06631E-35
7.23099E-01 5.28401E-35
7.26995E-01 5.55589E-35
7.30874E-01 5.86957E-35
7.34736E-01 6.21438E-35
7.38579E-01 6.58072E-35
7.42405E-01 6.96047E-35
7.46212E-01 7.34632E-35
7.50000E-01 7.73216E-35
7.53769E-01 8.11280E-35
7.57519E-01 8.48370E-35
7.61249E-01 8.84122E-35
7.64960E-01 9.18220E-35
7.68650E-01 9.50418E-35
7.72320E-01 9.80514E-35
7.75968E-01 1.00836E-34
7.79596E-01 1.03384E-34
7.83203E-01 1.05687E-34
7.86788E-01 1.07742E-34
7.90351E-01 1.09545E-34
7.93893E-01 1.11099E-34
7.97411E-01 1.12404E-34
8.00908E-01 1.13465E-34
8.04381E-01 1.14289E-34
8.07831E-01 1.14880E-34
8.11257E-01 1.15249E-34
8.14660E-01 1.15402E-34
8.18039E-01 1.15350E-34
8.21394E-01 1.15101E-34
8.24724E-01 1.14667E-34
8.28030E-01 1.14058E-34
8.31310E-01 1.13283E-34
8.34565E-01 1.12354E-34
8.37795E-01 1.11281E-34
8.40999E-01 1.10075E-34
8.44177E-01 1.08745E-34
8.47329E-01 1.07302E-34
8.50455E-01 1.05755E-34
8.53553E-01 1.04114E-34
8.56625E-01 1.02388E-34
8.59670E-01 1.00586E-34
8.62687E-01 9.87165E-35
8.65677E-01 9.67875E-35
8.68639E-01 9.48067E-35
8.71572E-01 9.27819E-35
8.74478E-01 9.07196E-35
8.77355E-01 8.86266E-35
8.80203E-01 8.65094E-35
8.83022E-01 8.43736E-35
8.85812E-01 8.22248E-35
8.88573E-01 8.00683E-35
8.91304E-01 7.79089E-35
8.94005E-01 7.57509E-35
8.96677E-01 7.35987E-35
8.99318E-01 7.14560E-35
9.01928E-01 6.93265E-35
9.04508E-01 6.72136E-35
9.07058E-01 6.51202E-35
9.09576E-01 6.30488E-35
9.12063E-01 6.10021E-35
9.14519E-01 5.89822E-35
9.16943E-01 5.69915E-35
9.19335E-01 5.50313E-35
9.21696E-01 5.31036E-35
9.24024E-01 5.12097E-35
9.26320E-01 4.93505E-35
9.28584E-01 4.75275E-35
9.30815E-01 4.57414E-35
9.33013E-01 4.39931E-35
9.35178E-01 4.22830E-35
9.37310E-01 4.06120E-35
9.39409E-01 3.89801E-35
9.41474E-01 3.73878E-35
9.43505E-01 3.58350E-35
9.45503E-01 3.43219E-35
9.47467E-01 3.28489E-35
9.49397E-01 3.14153E-35
9.51293E-01 3.00213E-35
9.53154E-01 2.86662E-35
9.54981E-01 2.73504E-35
9.56773E-01 2.60731E-35
9.58530E-01 2.48343E-35
9.60252E-01 2.36332E-35
9.61940E-01 2.24695E-35
9.63592E-01 2.13427E-35
9.65209E-01 2.02523E-35
9.66790E-01 1.91978E-35
9.68336E-01 1.81787E-35
9.69846E-01 1.71942E-35
9.71321E-01 1.62438E-35
9.72759E-01 1.53270E-35
9.74162E-01 1.44431E-35
9.75528E-01 1.35915E-35
9.76858E-01 1.27716E-35
9.78152E-01 1.19827E-35
9.79410E-01 1.12244E-35
9.80631E-01 1.04958E-35
9.81815E-01 9.79661E-36
9.82963E-01 9.12612E-36
9.84074E-01 8.48360E-36
9.85148E-01 7.86879E-36
9.86185E-01 7.28090E-36
9.87185E-01 6.71947E-36
9.88148E-01 6.18377E-36
9.89074E-01 5.67362E-36
9.89962E-01 5.18825E-36
9.90814E-01 4.72722E-36
9.91627E-01 4.29017E-36
9.92404E-01 3.87657E-36
9.93143E-01 3.48588E-36
9.93844E-01 3.11773E-36
9.94508E-01 2.77192E-36
9.95134E-01 2.44787E-36
9.95722E-01 2.14526E-36
9.96273E-01 1.86384E-36
9.96786E-01 1.60317E-36
9.97261E-01 1.36302E-36
9.97698E-01 1.14306E-36
9.98097E-01 9.43165E-37
9.98459E-01 7.62988E-37
9.98782E-01 6.02256E-37
9.99067E-01 4.61002E-37
9.99315E-01 3.38831E-37
9.99524E-01 2.35779E-37
9.99695E-01 1.51598E-37
9.99829E-01 8.62503E-38
9.99924E-01 3.95918E-38
9.99981E-01 1.16336E-38
1.00000E+00 2.31796E-39
