 #
 # Subroutine ELSEPA. Elastic scattering of electrons and positrons
 #                    by neutral atoms and positive ions
 #
 # Projectile: positron
 # Kinetic energy = 5.00000E+08 eV = 1.83747E+07 a.u.
 #
 # WARNING: High-energy factorization with free-atom DF screening.
 #          Absorption, polarization and exchange corrections are
 #          switched off.
 #          Phase shifts are calculated for the bare nucleus.
 #          Scattering amplitudes are not evaluated.
 #
 # Element: Ca,  Z =  20,  atomic weight = 4.00780E+01 g/mol
 #
 # Nuclear model: Fermi distribution
 #                Average radius = 3.66173E-13 cm
 #                Skin thickness = 5.46000E-14 cm
 #
 # Number of electrons = 20
 #
 # Total elastic cross section = 1.80575E-18 cm**2 = 6.44846E-02 a0**2
 # 1st transport cross section = 3.38120E-27 cm**2 = 1.20745E-10 a0**2
 # 2nd transport cross section = 1.01378E-26 cm**2 = 3.62029E-10 a0**2
 #
 #
 # Differential cross section:                       MU=(1-COS(THETA))/2
 #
 #  THETA        MU          DCS          DCS        Sherman      error
 #  (deg)                 (cm**2/sr)   (a0**2/sr)    function
 #----------------------------------------------------------------------
0.00000E+00 9.37898E-09
7.61557E-13 8.20410E-09
1.18994E-12 7.63669E-09
1.71346E-12 7.01926E-09
2.33225E-12 6.38180E-09
3.04617E-12 5.74980E-09
3.85530E-12 5.14338E-09
4.75964E-12 4.57637E-09
5.75917E-12 4.05738E-09
6.85391E-12 3.59940E-09
8.04379E-12 3.18713E-09
9.32893E-12 2.81311E-09
1.07092E-11 2.49879E-09
1.21847E-11 2.22211E-09
1.37554E-11 1.97501E-09
1.54213E-11 1.77155E-09
1.71823E-11 1.59101E-09
1.90386E-11 1.43156E-09
2.09900E-11 1.29793E-09
2.30367E-11 1.17888E-09
2.51785E-11 1.07399E-09
2.74156E-11 9.83368E-10
2.97478E-11 9.02384E-10
3.21752E-11 8.30452E-10
3.46979E-11 7.66630E-10
3.73157E-11 7.09354E-10
4.00286E-11 6.57645E-10
4.28368E-11 6.10954E-10
4.57402E-11 5.68860E-10
4.87388E-11 5.30069E-10
5.18325E-11 4.94756E-10
5.50215E-11 4.62779E-10
5.83057E-11 4.32680E-10
6.16850E-11 4.05257E-10
6.51595E-11 3.80243E-10
6.87293E-11 3.56402E-10
7.23943E-11 3.34681E-10
7.61544E-11 3.14626E-10
1.18991E-10 1.73426E-10
1.71347E-10 1.00123E-10
2.33223E-10 6.05938E-11
3.04617E-10 3.86090E-11
3.85531E-10 2.58487E-11
4.75965E-10 1.80962E-11
5.75917E-10 1.31547E-11
6.85389E-10 9.85259E-12
8.04380E-10 7.56623E-12
9.32891E-10 5.92547E-12
1.07092E-09 4.71407E-12
1.21847E-09 3.79873E-12
1.37554E-09 3.09290E-12
1.54213E-09 2.53997E-12
1.71823E-09 2.10291E-12
1.90386E-09 1.75378E-12
2.09900E-09 1.47235E-12
2.30367E-09 1.24370E-12
2.51785E-09 1.05659E-12
2.74156E-09 9.02491E-13
2.97478E-09 7.74826E-13
3.21752E-09 6.68323E-13
3.46978E-09 5.79196E-13
3.73156E-09 5.04219E-13
4.00286E-09 4.40834E-13
4.28368E-09 3.86995E-13
4.57402E-09 3.41058E-13
4.87388E-09 3.01692E-13
5.18326E-09 2.67817E-13
5.50215E-09 2.38544E-13
5.83057E-09 2.13156E-13
6.16850E-09 1.91060E-13
6.51596E-09 1.71758E-13
6.87293E-09 1.54840E-13
7.23942E-09 1.39961E-13
7.61544E-09 1.26835E-13
1.18991E-08 5.32700E-14
1.71347E-08 2.62347E-14
2.33223E-08 1.44009E-14
3.04617E-08 8.55130E-15
3.85531E-08 5.39067E-15
4.75965E-08 3.56260E-15
5.75917E-08 2.44656E-15
6.85389E-08 1.73451E-15
8.04380E-08 1.26323E-15
9.32891E-08 9.41409E-16
1.07092E-07 7.15700E-16
1.21847E-07 5.53661E-16
1.37554E-07 4.34938E-16
1.54213E-07 3.46362E-16
1.71823E-07 2.79207E-16
1.90386E-07 2.27552E-16
2.09900E-07 1.87300E-16
2.30367E-07 1.55561E-16
2.51785E-07 1.30264E-16
2.74156E-07 1.09904E-16
2.97478E-07 9.33687E-17
3.21752E-07 7.98280E-17
3.46978E-07 6.86543E-17
3.73156E-07 5.93682E-17
4.00286E-07 5.15998E-17
4.28368E-07 4.50611E-17
4.57402E-07 3.95258E-17
4.87388E-07 3.48147E-17
5.18325E-07 3.07849E-17
5.50215E-07 2.73215E-17
5.83057E-07 2.43316E-17
6.16850E-07 2.17397E-17
6.51596E-07 1.94838E-17
6.87293E-07 1.75131E-17
7.23942E-07 1.57853E-17
7.61543E-07 1.42654E-17
1.18991E-06 5.84301E-18
1.71347E-06 2.81757E-18
2.33223E-06 1.52072E-18
3.04617E-06 8.91339E-19
3.85531E-06 5.56409E-19
4.75964E-06 3.65027E-19
5.75916E-06 2.49295E-19
6.85388E-06 1.76003E-19
8.04378E-06 1.27771E-19
9.32888E-06 9.49848E-20
1.07092E-05 7.20712E-20
1.21846E-05 5.56682E-20
1.37553E-05 4.36769E-20
1.54212E-05 3.47470E-20
1.71822E-05 2.79868E-20
1.90385E-05 2.27918E-20
2.09899E-05 1.87503E-20
2.30365E-05 1.55660E-20
2.51783E-05 1.30295E-20
2.74153E-05 1.09889E-20
2.97475E-05 9.33224E-21
3.21749E-05 7.97625E-21
3.46974E-05 6.85782E-21
3.73152E-05 5.92878E-21
4.00281E-05 5.15191E-21
4.28362E-05 4.49825E-21
4.57395E-05 3.94504E-21
4.87380E-05 3.47428E-21
5.18317E-05 3.07165E-21
5.50205E-05 2.72565E-21
5.83045E-05 2.42700E-21
6.16838E-05 2.16814E-21
6.51582E-05 1.94288E-21
6.87277E-05 1.74614E-21
7.23925E-05 1.57369E-21
7.61524E-05 1.41440E-21
9.21439E-05 9.64461E-22
1.09658E-04 6.79737E-22
1.28695E-04 4.92549E-22
1.49255E-04 3.65421E-22
1.71338E-04 2.76671E-22
1.94942E-04 2.13208E-22
2.20070E-04 1.66869E-22
2.46720E-04 1.32405E-22
2.74892E-04 1.06349E-22
3.04586E-04 8.63613E-23
3.35803E-04 7.08245E-23
3.68542E-04 5.86037E-23
4.02802E-04 4.88869E-23
4.38585E-04 4.10845E-23
4.75889E-04 3.47629E-23
5.14715E-04 2.95984E-23
5.55063E-04 2.53469E-23
5.96931E-04 2.18221E-23
6.40321E-04 1.88807E-23
6.85233E-04 1.64112E-23
7.31665E-04 1.43260E-23
7.79618E-04 1.25559E-23
8.29092E-04 1.10460E-23
8.80086E-04 9.75181E-24
9.32601E-04 8.63779E-24
9.86636E-04 7.67485E-24
1.04219E-03 6.83927E-24
1.09927E-03 6.11154E-24
1.15786E-03 5.47554E-24
1.21797E-03 4.91787E-24
1.27961E-03 4.42736E-24
1.34276E-03 3.99463E-24
1.40743E-03 3.61182E-24
1.47362E-03 3.27225E-24
1.54133E-03 2.97026E-24
1.61056E-03 2.70105E-24
1.68131E-03 2.46050E-24
1.75357E-03 2.24507E-24
1.82735E-03 2.05174E-24
1.90265E-03 1.87789E-24
1.97947E-03 1.72125E-24
2.05780E-03 1.57985E-24
2.13765E-03 1.45198E-24
2.21902E-03 1.33615E-24
2.30190E-03 1.23105E-24
2.38630E-03 1.13554E-24
2.47222E-03 1.04860E-24
2.55965E-03 9.69361E-25
2.64859E-03 8.97031E-25
2.73905E-03 8.30918E-25
2.83103E-03 7.70409E-25
2.92452E-03 7.14959E-25
3.01952E-03 6.64084E-25
3.11604E-03 6.17352E-25
3.21407E-03 5.74375E-25
3.31362E-03 5.34810E-25
3.41468E-03 4.98347E-25
3.51725E-03 4.64708E-25
3.62133E-03 4.33644E-25
3.72692E-03 4.04931E-25
3.83403E-03 3.78365E-25
3.94265E-03 3.53766E-25
4.05278E-03 3.30966E-25
4.16442E-03 3.09818E-25
4.27757E-03 2.90185E-25
4.39223E-03 2.71944E-25
4.50840E-03 2.54985E-25
4.62608E-03 2.39205E-25
4.74527E-03 2.24511E-25
4.86597E-03 2.10821E-25
4.98817E-03 1.98056E-25
5.11188E-03 1.86146E-25
5.23711E-03 1.75027E-25
5.36383E-03 1.64640E-25
5.49207E-03 1.54932E-25
5.62181E-03 1.45852E-25
5.75306E-03 1.37355E-25
5.88581E-03 1.29399E-25
6.02007E-03 1.21947E-25
6.15583E-03 1.14962E-25
6.29310E-03 1.08413E-25
6.43187E-03 1.02268E-25
6.57214E-03 9.65007E-26
6.71392E-03 9.10850E-26
6.85720E-03 8.59973E-26
7.00198E-03 8.12158E-26
7.14827E-03 7.67200E-26
7.29605E-03 7.24913E-26
7.44534E-03 6.85122E-26
7.59612E-03 6.47666E-26
7.97965E-03 5.63283E-26
8.37255E-03 4.90517E-26
8.77480E-03 4.27642E-26
9.18641E-03 3.73212E-26
9.60736E-03 3.26012E-26
1.00376E-02 2.85016E-26
1.04773E-02 2.49356E-26
1.09262E-02 2.18296E-26
1.13844E-02 1.91210E-26
1.18520E-02 1.67561E-26
1.23288E-02 1.46893E-26
1.28150E-02 1.28814E-26
1.33104E-02 1.12985E-26
1.38150E-02 9.91169E-27
1.43290E-02 8.69580E-27
1.48521E-02 7.62917E-27
1.53845E-02 6.69300E-27
1.59262E-02 5.87100E-27
1.64770E-02 5.14900E-27
1.70371E-02 4.51465E-27
1.76063E-02 3.95720E-27
1.81848E-02 3.46726E-27
1.87724E-02 3.03664E-27
1.93692E-02 2.65814E-27
1.99751E-02 2.32550E-27
2.05901E-02 2.03318E-27
2.12143E-02 1.77636E-27
2.18476E-02 1.55078E-27
2.24900E-02 1.35271E-27
2.31415E-02 1.17887E-27
2.38021E-02 1.02636E-27
2.44717E-02 8.92646E-28
2.51504E-02 7.75471E-28
2.58382E-02 6.72864E-28
2.65349E-02 5.83081E-28
2.72407E-02 5.04584E-28
2.79555E-02 4.36016E-28
2.86793E-02 3.76180E-28
2.94120E-02 3.24020E-28
3.01537E-02 2.78605E-28
3.09043E-02 2.39111E-28
3.16639E-02 2.04812E-28
3.24324E-02 1.75069E-28
3.32098E-02 1.49317E-28
3.39961E-02 1.27057E-28
3.47912E-02 1.07852E-28
3.55952E-02 9.13135E-29
3.64081E-02 7.71020E-29
3.72297E-02 6.49175E-29
3.80602E-02 5.44964E-29
3.88995E-02 4.56072E-29
3.97476E-02 3.80464E-29
4.06044E-02 3.16355E-29
4.14700E-02 2.62180E-29
4.23443E-02 2.16569E-29
4.32273E-02 1.78324E-29
4.41190E-02 1.46400E-29
4.50194E-02 1.19882E-29
4.59284E-02 9.79775E-30
4.68461E-02 7.99942E-30
4.87074E-02 5.34736E-30
5.06030E-02 3.64292E-30
5.25328E-02 2.59674E-30
5.44967E-02 1.99598E-30
5.64946E-02 1.68611E-30
5.85262E-02 1.55679E-30
6.05914E-02 1.53081E-30
6.26901E-02 1.55565E-30
6.48222E-02 1.59687E-30
6.69873E-02 1.63312E-30
6.91854E-02 1.65238E-30
7.14163E-02 1.64901E-30
7.36799E-02 1.62171E-30
7.59760E-02 1.57191E-30
7.83043E-02 1.50263E-30
8.06647E-02 1.41768E-30
8.30571E-02 1.32114E-30
8.54812E-02 1.21698E-30
8.79369E-02 1.10881E-30
9.04240E-02 9.99781E-31
9.29422E-02 8.92520E-31
9.54915E-02 7.89127E-31
9.80716E-02 6.91197E-31
1.00682E-01 5.99868E-31
1.03323E-01 5.15873E-31
1.05995E-01 4.39605E-31
1.08696E-01 3.71171E-31
1.11427E-01 3.10456E-31
1.14188E-01 2.57171E-31
1.16978E-01 2.10898E-31
1.19797E-01 1.71135E-31
1.22645E-01 1.37324E-31
1.25522E-01 1.08881E-31
1.28428E-01 8.52192E-32
1.31361E-01 6.57639E-32
1.34323E-01 4.99665E-32
1.37313E-01 3.73133E-32
1.40330E-01 2.73311E-32
1.43375E-01 1.95910E-32
1.46447E-01 1.37091E-32
1.49545E-01 9.34689E-33
1.52671E-01 6.20902E-33
1.55823E-01 4.04146E-33
1.59001E-01 2.62823E-33
1.62205E-01 1.78813E-33
1.65435E-01 1.37121E-33
1.68690E-01 1.25522E-33
1.71970E-01 1.34208E-33
1.75276E-01 1.55465E-33
1.78606E-01 1.83356E-33
1.81961E-01 2.13437E-33
1.85340E-01 2.42505E-33
1.88743E-01 2.68365E-33
1.92169E-01 2.89630E-33
1.95619E-01 3.05547E-33
1.99092E-01 3.15850E-33
2.02589E-01 3.20632E-33
2.06107E-01 3.20244E-33
2.09649E-01 3.15206E-33
2.13212E-01 3.06144E-33
2.16797E-01 2.93731E-33
2.20404E-01 2.78650E-33
2.24032E-01 2.61563E-33
2.27680E-01 2.43086E-33
2.31350E-01 2.23779E-33
2.35040E-01 2.04136E-33
2.38751E-01 1.84578E-33
2.42481E-01 1.65458E-33
2.46231E-01 1.47061E-33
2.50000E-01 1.29607E-33
2.53788E-01 1.13257E-33
2.57595E-01 9.81217E-34
2.61421E-01 8.42650E-34
2.65264E-01 7.17125E-34
2.69126E-01 6.04575E-34
2.73005E-01 5.04673E-34
2.76901E-01 4.16884E-34
2.80814E-01 3.40523E-34
2.84744E-01 2.74794E-34
2.88691E-01 2.18830E-34
2.92653E-01 1.71731E-34
2.96632E-01 1.32584E-34
3.00625E-01 1.00494E-34
3.04634E-01 7.45911E-35
3.08658E-01 5.40552E-35
3.12697E-01 3.81171E-35
3.16749E-01 2.60690E-35
3.20816E-01 1.72668E-35
3.24896E-01 1.11323E-35
3.28990E-01 7.15224E-36
3.33097E-01 4.87678E-36
3.37216E-01 3.91618E-36
3.41348E-01 3.93792E-36
3.45492E-01 4.66104E-36
3.49647E-01 5.85274E-36
3.53814E-01 7.32294E-36
3.57992E-01 8.91967E-36
3.62181E-01 1.05243E-35
3.66381E-01 1.20473E-35
3.70590E-01 1.34234E-35
3.74810E-01 1.46086E-35
3.79039E-01 1.55761E-35
3.83277E-01 1.63126E-35
3.87524E-01 1.68164E-35
3.91780E-01 1.70943E-35
3.96044E-01 1.71595E-35
4.00316E-01 1.70301E-35
4.04596E-01 1.67269E-35
4.08882E-01 1.62726E-35
4.13176E-01 1.56906E-35
4.17476E-01 1.50042E-35
4.21783E-01 1.42358E-35
4.26095E-01 1.34066E-35
4.30413E-01 1.25361E-35
4.34737E-01 1.16421E-35
4.39065E-01 1.07401E-35
4.43398E-01 9.84384E-36
4.47736E-01 8.96503E-36
4.52077E-01 8.11329E-36
4.56422E-01 7.29644E-36
4.60770E-01 6.52059E-36
4.65122E-01 5.79027E-36
4.69476E-01 5.10860E-36
4.73832E-01 4.47744E-36
4.78190E-01 3.89756E-36
4.82550E-01 3.36882E-36
4.86912E-01 2.89028E-36
4.91274E-01 2.46039E-36
4.95637E-01 2.07709E-36
5.00000E-01 1.73793E-36
5.04363E-01 1.44019E-36
5.08726E-01 1.18094E-36
5.13088E-01 9.57182E-37
5.17450E-01 7.65852E-37
5.21810E-01 6.03914E-37
5.26168E-01 4.68404E-37
5.30524E-01 3.56452E-37
5.34878E-01 2.65325E-37
5.39230E-01 1.92448E-37
5.43578E-01 1.35423E-37
5.47923E-01 9.20207E-38
5.52264E-01 6.02016E-38
5.56602E-01 3.81183E-38
5.60935E-01 2.40979E-38
5.65263E-01 1.66295E-38
5.69587E-01 1.44287E-38
5.73905E-01 1.63150E-38
5.78217E-01 2.12895E-38
5.82524E-01 2.84895E-38
5.86824E-01 3.71860E-38
5.91118E-01 4.67608E-38
5.95404E-01 5.67170E-38
5.99684E-01 6.66329E-38
6.03956E-01 7.61834E-38
6.08220E-01 8.51202E-38
6.12476E-01 9.32570E-38
6.16723E-01 1.00452E-37
6.20961E-01 1.06641E-37
6.25190E-01 1.11760E-37
6.29410E-01 1.15804E-37
6.33619E-01 1.18781E-37
6.37819E-01 1.20740E-37
6.42008E-01 1.21717E-37
6.46186E-01 1.21790E-37
6.50353E-01 1.21021E-37
6.54508E-01 1.19493E-37
6.58652E-01 1.17288E-37
6.62784E-01 1.14490E-37
6.66903E-01 1.11185E-37
6.71010E-01 1.07449E-37
6.75104E-01 1.03362E-37
6.79184E-01 9.89957E-38
6.83251E-01 9.44243E-38
6.87303E-01 8.97040E-38
6.91342E-01 8.48946E-38
6.95366E-01 8.00493E-38
6.99375E-01 7.52136E-38
7.03368E-01 7.04291E-38
7.07347E-01 6.57271E-38
7.11309E-01 6.11392E-38
7.15256E-01 5.66888E-38
7.19186E-01 5.23972E-38
7.23099E-01 4.82796E-38
7.26995E-01 4.43470E-38
7.30874E-01 4.06082E-38
7.34736E-01 3.70697E-38
7.38579E-01 3.37337E-38
7.42405E-01 3.06017E-38
7.46212E-01 2.76708E-38
7.50000E-01 2.49396E-38
7.53769E-01 2.24036E-38
7.57519E-01 2.00577E-38
7.61249E-01 1.78944E-38
7.64960E-01 1.59079E-38
7.68650E-01 1.40902E-38
7.72320E-01 1.24326E-38
7.75968E-01 1.09262E-38
7.79596E-01 9.56332E-39
7.83203E-01 8.33387E-39
7.86788E-01 7.22965E-39
7.90351E-01 6.24148E-39
7.93893E-01 5.36010E-39
7.97411E-01 4.57815E-39
8.00908E-01 3.88680E-39
8.04381E-01 3.27836E-39
8.07831E-01 2.74567E-39
8.11257E-01 2.28123E-39
8.14660E-01 1.87821E-39
8.18039E-01 1.53185E-39
8.21394E-01 1.23466E-39
8.24724E-01 9.82556E-40
8.28030E-01 7.70474E-40
8.31310E-01 5.93115E-40
8.34565E-01 4.47434E-40
8.37795E-01 3.29181E-40
8.40999E-01 2.35201E-40
8.44177E-01 1.00000E-45
8.47329E-01 1.00000E-45
8.50455E-01 1.00000E-45
8.53553E-01 1.00000E-45
8.56625E-01 1.00000E-45
8.59670E-01 1.00000E-45
8.62687E-01 1.00000E-45
8.65677E-01 1.00000E-45
8.68639E-01 1.00000E-45
8.71572E-01 1.00000E-45
8.74478E-01 1.00000E-45
8.77355E-01 1.00000E-45
8.80203E-01 1.00000E-45
8.83022E-01 1.00000E-45
8.85812E-01 1.00000E-45
8.88573E-01 1.00000E-45
8.91304E-01 1.00000E-45
8.94005E-01 1.00000E-45
8.96677E-01 1.00000E-45
8.99318E-01 1.00000E-45
9.01928E-01 1.00000E-45
9.04508E-01 1.00000E-45
9.07058E-01 1.00000E-45
9.09576E-01 1.00000E-45
9.12063E-01 1.00000E-45
9.14519E-01 1.00000E-45
9.16943E-01 1.00000E-45
9.19335E-01 1.00000E-45
9.21696E-01 1.00000E-45
9.24024E-01 1.00000E-45
9.26320E-01 1.00000E-45
9.28584E-01 1.00000E-45
9.30815E-01 1.00000E-45
9.33013E-01 1.00000E-45
9.35178E-01 1.00000E-45
9.37310E-01 1.00000E-45
9.39409E-01 1.00000E-45
9.41474E-01 1.00000E-45
9.43505E-01 1.00000E-45
9.45503E-01 1.00000E-45
9.47467E-01 1.00000E-45
9.49397E-01 1.00000E-45
9.51293E-01 1.00000E-45
9.53154E-01 1.00000E-45
9.54981E-01 1.00000E-45
9.56773E-01 1.00000E-45
9.58530E-01 1.00000E-45
9.60252E-01 1.00000E-45
9.61940E-01 1.00000E-45
9.63592E-01 1.00000E-45
9.65209E-01 1.00000E-45
9.66790E-01 1.00000E-45
9.68336E-01 1.00000E-45
9.69846E-01 1.00000E-45
9.71321E-01 1.00000E-45
9.72759E-01 1.00000E-45
9.74162E-01 1.00000E-45
9.75528E-01 1.00000E-45
9.76858E-01 1.00000E-45
9.78152E-01 1.00000E-45
9.79410E-01 1.00000E-45
9.80631E-01 1.00000E-45
9.81815E-01 1.00000E-45
9.82963E-01 1.00000E-45
9.84074E-01 1.00000E-45
9.85148E-01 1.00000E-45
9.86185E-01 1.00000E-45
9.87185E-01 1.00000E-45
9.88148E-01 1.00000E-45
9.89074E-01 1.00000E-45
9.89962E-01 1.00000E-45
9.90814E-01 1.00000E-45
9.91627E-01 1.00000E-45
9.92404E-01 1.00000E-45
9.93143E-01 1.00000E-45
9.93844E-01 1.00000E-45
9.94508E-01 1.00000E-45
9.95134E-01 1.00000E-45
9.95722E-01 1.00000E-45
9.96273E-01 1.00000E-45
9.96786E-01 1.00000E-45
9.97261E-01 1.00000E-45
9.97698E-01 1.00000E-45
9.98097E-01 1.00000E-45
9.98459E-01 1.00000E-45
9.98782E-01 1.00000E-45
9.99067E-01 1.00000E-45
9.99315E-01 1.00000E-45
9.99524E-01 1.00000E-45
9.99695E-01 1.00000E-45
9.99829E-01 1.00000E-45
9.99924E-01 1.00000E-45
9.99981E-01 1.00000E-45
1.00000E+00 1.00000E-45
