 #
 # Subroutine ELSEPA. Elastic scattering of electrons and positrons
 #                    by neutral atoms and positive ions
 #
 # Projectile: positron
 # Kinetic energy = 1.25000E+07 eV = 4.59367E+05 a.u.
 #
 # WARNING: High-energy factorization with free-atom DF screening.
 #          Absorption, polarization and exchange corrections are
 #          switched off.
 #          Phase shifts are calculated for the bare nucleus.
 #          Scattering amplitudes are not evaluated.
 #
 # Element: Ca,  Z =  20,  atomic weight = 4.00780E+01 g/mol
 #
 # Nuclear model: Fermi distribution
 #                Average radius = 3.66173E-13 cm
 #                Skin thickness = 5.46000E-14 cm
 #
 # Number of electrons = 20
 #
 # Total elastic cross section = 1.81426E-18 cm**2 = 6.47884E-02 a0**2
 # 1st transport cross section = 3.95177E-24 cm**2 = 1.41120E-07 a0**2
 # 2nd transport cross section = 1.14536E-23 cm**2 = 4.09015E-07 a0**2
 #
 #
 # Differential cross section:                       MU=(1-COS(THETA))/2
 #
 #  THETA        MU          DCS          DCS        Sherman      error
 #  (deg)                 (cm**2/sr)   (a0**2/sr)    function
 #----------------------------------------------------------------------
0.00000E+00 6.33796E-12
7.61557E-13 6.33735E-12
1.18994E-12 6.33701E-12
1.71346E-12 6.33660E-12
2.33225E-12 6.33612E-12
3.04617E-12 6.33556E-12
3.85530E-12 6.33493E-12
4.75964E-12 6.33422E-12
5.75917E-12 6.33344E-12
6.85391E-12 6.33259E-12
8.04379E-12 6.33166E-12
9.32893E-12 6.33066E-12
1.07092E-11 6.32959E-12
1.21847E-11 6.32845E-12
1.37554E-11 6.32723E-12
1.54213E-11 6.32593E-12
1.71823E-11 6.32457E-12
1.90386E-11 6.32313E-12
2.09900E-11 6.32162E-12
2.30367E-11 6.32003E-12
2.51785E-11 6.31837E-12
2.74156E-11 6.31664E-12
2.97478E-11 6.31484E-12
3.21752E-11 6.31297E-12
3.46979E-11 6.31102E-12
3.73157E-11 6.30900E-12
4.00286E-11 6.30690E-12
4.28368E-11 6.30474E-12
4.57402E-11 6.30250E-12
4.87388E-11 6.30019E-12
5.18325E-11 6.29781E-12
5.50215E-11 6.29536E-12
5.83057E-11 6.29284E-12
6.16850E-11 6.29024E-12
6.51595E-11 6.28757E-12
6.87293E-11 6.28484E-12
7.23943E-11 6.28203E-12
7.61544E-11 6.27915E-12
1.18991E-10 6.24649E-12
1.71347E-10 6.20691E-12
2.33223E-10 6.16062E-12
3.04617E-10 6.10783E-12
3.85531E-10 6.04881E-12
4.75965E-10 5.98384E-12
5.75917E-10 5.91321E-12
6.85389E-10 5.83725E-12
8.04380E-10 5.75632E-12
9.32891E-10 5.67076E-12
1.07092E-09 5.58094E-12
1.21847E-09 5.48723E-12
1.37554E-09 5.39001E-12
1.54213E-09 5.28967E-12
1.71823E-09 5.18657E-12
1.90386E-09 5.08111E-12
2.09900E-09 4.97365E-12
2.30367E-09 4.86456E-12
2.51785E-09 4.75418E-12
2.74156E-09 4.64290E-12
2.97478E-09 4.53104E-12
3.21752E-09 4.41888E-12
3.46978E-09 4.30672E-12
3.73156E-09 4.19485E-12
4.00286E-09 4.08351E-12
4.28368E-09 3.97297E-12
4.57402E-09 3.86344E-12
4.87388E-09 3.75512E-12
5.18326E-09 3.64822E-12
5.50215E-09 3.54288E-12
5.83057E-09 3.43927E-12
6.16850E-09 3.33759E-12
6.51596E-09 3.23789E-12
6.87293E-09 3.14026E-12
7.23942E-09 3.04480E-12
7.61544E-09 2.95156E-12
1.18991E-08 2.15691E-12
1.71347E-08 1.57657E-12
2.33223E-08 1.17370E-12
3.04617E-08 8.95980E-13
3.85531E-08 7.01751E-13
4.75965E-08 5.62260E-13
5.75917E-08 4.58885E-13
6.85389E-08 3.79808E-13
8.04380E-08 3.17517E-13
9.32891E-08 2.67479E-13
1.07092E-07 2.26653E-13
1.21847E-07 1.92950E-13
1.37554E-07 1.64891E-13
1.54213E-07 1.41385E-13
1.71823E-07 1.21606E-13
1.90386E-07 1.04906E-13
2.09900E-07 9.07701E-14
2.30367E-07 7.87795E-14
2.51785E-07 6.85779E-14
2.74156E-07 5.98777E-14
2.97478E-07 5.24544E-14
3.21752E-07 4.61116E-14
3.46978E-07 4.06781E-14
3.73156E-07 3.60112E-14
4.00286E-07 3.19912E-14
4.28368E-07 2.85184E-14
4.57402E-07 2.55094E-14
4.87388E-07 2.28944E-14
5.18325E-07 2.06149E-14
5.50215E-07 1.86216E-14
5.83057E-07 1.68731E-14
6.16850E-07 1.53342E-14
6.51596E-07 1.39757E-14
6.87293E-07 1.27724E-14
7.23942E-07 1.17033E-14
7.61543E-07 1.07502E-14
1.18991E-06 5.12668E-15
1.71347E-06 2.80099E-15
2.33223E-06 1.65703E-15
3.04617E-06 1.03276E-15
3.85531E-06 6.71656E-16
4.75964E-06 4.52833E-16
5.75916E-06 3.15041E-16
6.85388E-06 2.25400E-16
8.04378E-06 1.65340E-16
9.32888E-06 1.23988E-16
1.07092E-05 9.48022E-17
1.21846E-05 7.37485E-17
1.37553E-05 5.82539E-17
1.54212E-05 4.66430E-17
1.71822E-05 3.78008E-17
1.90385E-05 3.09667E-17
2.09899E-05 2.56202E-17
2.30365E-05 2.13836E-17
2.51783E-05 1.79904E-17
2.74153E-05 1.52459E-17
2.97475E-05 1.30061E-17
3.21749E-05 1.11634E-17
3.46974E-05 9.63613E-18
3.73152E-05 8.36158E-18
4.00281E-05 7.29094E-18
4.28362E-05 6.38629E-18
4.57395E-05 5.61758E-18
4.87380E-05 4.96091E-18
5.18317E-05 4.39723E-18
5.50205E-05 3.91120E-18
5.83045E-05 3.49033E-18
6.16838E-05 3.12442E-18
6.51582E-05 2.80512E-18
6.87277E-05 2.52550E-18
7.23925E-05 2.27978E-18
7.61524E-05 2.06314E-18
9.21439E-05 1.41576E-18
1.09658E-04 1.00303E-18
1.28695E-04 7.30040E-19
1.49255E-04 5.43743E-19
1.71338E-04 4.13161E-19
1.94942E-04 3.19461E-19
2.20070E-04 2.50840E-19
2.46720E-04 1.99669E-19
2.74892E-04 1.60886E-19
3.04586E-04 1.31068E-19
3.35803E-04 1.07839E-19
3.68542E-04 8.95302E-20
4.02802E-04 7.49426E-20
4.38585E-04 6.32052E-20
4.75889E-04 5.36759E-20
5.14715E-04 4.58746E-20
5.55063E-04 3.94390E-20
5.96931E-04 3.40922E-20
6.40321E-04 2.96205E-20
6.85233E-04 2.58578E-20
7.31665E-04 2.26733E-20
7.79618E-04 1.99638E-20
8.29092E-04 1.76468E-20
8.80086E-04 1.56560E-20
9.32601E-04 1.39378E-20
9.86636E-04 1.24487E-20
1.04219E-03 1.11531E-20
1.09927E-03 1.00215E-20
1.15786E-03 9.02966E-21
1.21797E-03 8.15741E-21
1.27961E-03 7.38774E-21
1.34276E-03 6.70653E-21
1.40743E-03 6.10196E-21
1.47362E-03 5.56392E-21
1.54133E-03 5.08381E-21
1.61056E-03 4.65432E-21
1.68131E-03 4.26918E-21
1.75357E-03 3.92301E-21
1.82735E-03 3.61117E-21
1.90265E-03 3.32967E-21
1.97947E-03 3.07502E-21
2.05780E-03 2.84423E-21
2.13765E-03 2.63465E-21
2.21902E-03 2.44399E-21
2.30190E-03 2.27024E-21
2.38630E-03 2.11164E-21
2.47222E-03 1.96662E-21
2.55965E-03 1.83382E-21
2.64859E-03 1.71202E-21
2.73905E-03 1.60015E-21
2.83103E-03 1.49726E-21
2.92452E-03 1.40248E-21
3.01952E-03 1.31508E-21
3.11604E-03 1.23436E-21
3.21407E-03 1.15973E-21
3.31362E-03 1.09065E-21
3.41468E-03 1.02662E-21
3.51725E-03 9.67212E-22
3.62133E-03 9.12032E-22
3.72692E-03 8.60723E-22
3.83403E-03 8.12964E-22
3.94265E-03 7.68464E-22
4.05278E-03 7.26961E-22
4.16442E-03 6.88216E-22
4.27757E-03 6.52012E-22
4.39223E-03 6.18152E-22
4.50840E-03 5.86457E-22
4.62608E-03 5.56762E-22
4.74527E-03 5.28919E-22
4.86597E-03 5.02790E-22
4.98817E-03 4.78251E-22
5.11188E-03 4.55187E-22
5.23711E-03 4.33493E-22
5.36383E-03 4.13072E-22
5.49207E-03 3.93837E-22
5.62181E-03 3.75706E-22
5.75306E-03 3.58603E-22
5.88581E-03 3.42460E-22
6.02007E-03 3.27212E-22
6.15583E-03 3.12801E-22
6.29310E-03 2.99173E-22
6.43187E-03 2.86277E-22
6.57214E-03 2.74066E-22
6.71392E-03 2.62497E-22
6.85720E-03 2.51530E-22
7.00198E-03 2.41129E-22
7.14827E-03 2.31258E-22
7.29605E-03 2.21885E-22
7.44534E-03 2.12981E-22
7.59612E-03 2.04518E-22
7.97965E-03 1.85122E-22
8.37255E-03 1.67965E-22
8.77480E-03 1.52745E-22
9.18641E-03 1.39204E-22
9.60736E-03 1.27126E-22
1.00376E-02 1.16326E-22
1.04773E-02 1.06645E-22
1.09262E-02 9.79461E-23
1.13844E-02 9.01135E-23
1.18520E-02 8.30455E-23
1.23288E-02 7.66544E-23
1.28150E-02 7.08640E-23
1.33104E-02 6.56080E-23
1.38150E-02 6.08284E-23
1.43290E-02 5.64743E-23
1.48521E-02 5.25013E-23
1.53845E-02 4.88701E-23
1.59262E-02 4.55460E-23
1.64770E-02 4.24985E-23
1.70371E-02 3.97005E-23
1.76063E-02 3.71279E-23
1.81848E-02 3.47594E-23
1.87724E-02 3.25758E-23
1.93692E-02 3.05601E-23
1.99751E-02 2.86972E-23
2.05901E-02 2.69733E-23
2.12143E-02 2.53763E-23
2.18476E-02 2.38950E-23
2.24900E-02 2.25197E-23
2.31415E-02 2.12414E-23
2.38021E-02 2.00520E-23
2.44717E-02 1.89441E-23
2.51504E-02 1.79113E-23
2.58382E-02 1.69475E-23
2.65349E-02 1.60473E-23
2.72407E-02 1.52056E-23
2.79555E-02 1.44181E-23
2.86793E-02 1.36806E-23
2.94120E-02 1.29893E-23
3.01537E-02 1.23409E-23
3.09043E-02 1.17321E-23
3.16639E-02 1.11602E-23
3.24324E-02 1.06224E-23
3.32098E-02 1.01164E-23
3.39961E-02 9.63999E-24
3.47912E-02 9.19107E-24
3.55952E-02 8.76778E-24
3.64081E-02 8.36840E-24
3.72297E-02 7.99133E-24
3.80602E-02 7.63509E-24
3.88995E-02 7.29832E-24
3.97476E-02 6.97977E-24
4.06044E-02 6.67827E-24
4.14700E-02 6.39274E-24
4.23443E-02 6.12218E-24
4.32273E-02 5.86566E-24
4.41190E-02 5.62232E-24
4.50194E-02 5.39135E-24
4.59284E-02 5.17203E-24
4.68461E-02 4.96364E-24
4.87074E-02 4.57714E-24
5.06030E-02 4.22721E-24
5.25328E-02 3.90978E-24
5.44967E-02 3.62132E-24
5.64946E-02 3.35872E-24
5.85262E-02 3.11926E-24
6.05914E-02 2.90055E-24
6.26901E-02 2.70048E-24
6.48222E-02 2.51718E-24
6.69873E-02 2.34900E-24
6.91854E-02 2.19448E-24
7.14163E-02 2.05231E-24
7.36799E-02 1.92133E-24
7.59760E-02 1.80051E-24
7.83043E-02 1.68892E-24
8.06647E-02 1.58573E-24
8.30571E-02 1.49021E-24
8.54812E-02 1.40167E-24
8.79369E-02 1.31952E-24
9.04240E-02 1.24322E-24
9.29422E-02 1.17227E-24
9.54915E-02 1.10624E-24
9.80716E-02 1.04473E-24
1.00682E-01 9.87362E-25
1.03323E-01 9.33819E-25
1.05995E-01 8.83800E-25
1.08696E-01 8.37029E-25
1.11427E-01 7.93260E-25
1.14188E-01 7.52266E-25
1.16978E-01 7.13840E-25
1.19797E-01 6.77792E-25
1.22645E-01 6.43949E-25
1.25522E-01 6.12153E-25
1.28428E-01 5.82258E-25
1.31361E-01 5.54130E-25
1.34323E-01 5.27647E-25
1.37313E-01 5.02695E-25
1.40330E-01 4.79169E-25
1.43375E-01 4.56975E-25
1.46447E-01 4.36023E-25
1.49545E-01 4.16232E-25
1.52671E-01 3.97525E-25
1.55823E-01 3.79834E-25
1.59001E-01 3.63093E-25
1.62205E-01 3.47242E-25
1.65435E-01 3.32225E-25
1.68690E-01 3.17991E-25
1.71970E-01 3.04492E-25
1.75276E-01 2.91683E-25
1.78606E-01 2.79523E-25
1.81961E-01 2.67973E-25
1.85340E-01 2.56996E-25
1.88743E-01 2.46561E-25
1.92169E-01 2.36634E-25
1.95619E-01 2.27188E-25
1.99092E-01 2.18194E-25
2.02589E-01 2.09627E-25
2.06107E-01 2.01464E-25
2.09649E-01 1.93682E-25
2.13212E-01 1.86260E-25
2.16797E-01 1.79178E-25
2.20404E-01 1.72418E-25
2.24032E-01 1.65964E-25
2.27680E-01 1.59798E-25
2.31350E-01 1.53906E-25
2.35040E-01 1.48273E-25
2.38751E-01 1.42886E-25
2.42481E-01 1.37733E-25
2.46231E-01 1.32801E-25
2.50000E-01 1.28079E-25
2.53788E-01 1.23557E-25
2.57595E-01 1.19225E-25
2.61421E-01 1.15073E-25
2.65264E-01 1.11093E-25
2.69126E-01 1.07276E-25
2.73005E-01 1.03615E-25
2.76901E-01 1.00102E-25
2.80814E-01 9.67294E-26
2.84744E-01 9.34916E-26
2.88691E-01 9.03818E-26
2.92653E-01 8.73942E-26
2.96632E-01 8.45231E-26
3.00625E-01 8.17633E-26
3.04634E-01 7.91095E-26
3.08658E-01 7.65572E-26
3.12697E-01 7.41017E-26
3.16749E-01 7.17387E-26
3.20816E-01 6.94641E-26
3.24896E-01 6.72742E-26
3.28990E-01 6.51651E-26
3.33097E-01 6.31334E-26
3.37216E-01 6.11758E-26
3.41348E-01 5.92891E-26
3.45492E-01 5.74703E-26
3.49647E-01 5.57165E-26
3.53814E-01 5.40250E-26
3.57992E-01 5.23933E-26
3.62181E-01 5.08189E-26
3.66381E-01 4.92994E-26
3.70590E-01 4.78325E-26
3.74810E-01 4.64162E-26
3.79039E-01 4.50484E-26
3.83277E-01 4.37272E-26
3.87524E-01 4.24507E-26
3.91780E-01 4.12172E-26
3.96044E-01 4.00249E-26
4.00316E-01 3.88723E-26
4.04596E-01 3.77578E-26
4.08882E-01 3.66799E-26
4.13176E-01 3.56373E-26
4.17476E-01 3.46286E-26
4.21783E-01 3.36525E-26
4.26095E-01 3.27077E-26
4.30413E-01 3.17932E-26
4.34737E-01 3.09078E-26
4.39065E-01 3.00504E-26
4.43398E-01 2.92200E-26
4.47736E-01 2.84155E-26
4.52077E-01 2.76361E-26
4.56422E-01 2.68809E-26
4.60770E-01 2.61489E-26
4.65122E-01 2.54393E-26
4.69476E-01 2.47514E-26
4.73832E-01 2.40843E-26
4.78190E-01 2.34374E-26
4.82550E-01 2.28099E-26
4.86912E-01 2.22012E-26
4.91274E-01 2.16105E-26
4.95637E-01 2.10374E-26
5.00000E-01 2.04811E-26
5.04363E-01 1.99411E-26
5.08726E-01 1.94169E-26
5.13088E-01 1.89079E-26
5.17450E-01 1.84136E-26
5.21810E-01 1.79335E-26
5.26168E-01 1.74671E-26
5.30524E-01 1.70141E-26
5.34878E-01 1.65739E-26
5.39230E-01 1.61461E-26
5.43578E-01 1.57303E-26
5.47923E-01 1.53262E-26
5.52264E-01 1.49334E-26
5.56602E-01 1.45514E-26
5.60935E-01 1.41800E-26
5.65263E-01 1.38188E-26
5.69587E-01 1.34674E-26
5.73905E-01 1.31257E-26
5.78217E-01 1.27932E-26
5.82524E-01 1.24698E-26
5.86824E-01 1.21550E-26
5.91118E-01 1.18487E-26
5.95404E-01 1.15505E-26
5.99684E-01 1.12603E-26
6.03956E-01 1.09778E-26
6.08220E-01 1.07027E-26
6.12476E-01 1.04349E-26
6.16723E-01 1.01740E-26
6.20961E-01 9.91999E-27
6.25190E-01 9.67256E-27
6.29410E-01 9.43153E-27
6.33619E-01 9.19671E-27
6.37819E-01 8.96792E-27
6.42008E-01 8.74499E-27
6.46186E-01 8.52775E-27
6.50353E-01 8.31602E-27
6.54508E-01 8.10965E-27
6.58652E-01 7.90849E-27
6.62784E-01 7.71239E-27
6.66903E-01 7.52119E-27
6.71010E-01 7.33478E-27
6.75104E-01 7.15300E-27
6.79184E-01 6.97573E-27
6.83251E-01 6.80284E-27
6.87303E-01 6.63420E-27
6.91342E-01 6.46972E-27
6.95366E-01 6.30925E-27
6.99375E-01 6.15271E-27
7.03368E-01 5.99997E-27
7.07347E-01 5.85093E-27
7.11309E-01 5.70550E-27
7.15256E-01 5.56358E-27
7.19186E-01 5.42507E-27
7.23099E-01 5.28988E-27
7.26995E-01 5.15792E-27
7.30874E-01 5.02910E-27
7.34736E-01 4.90335E-27
7.38579E-01 4.78058E-27
7.42405E-01 4.66071E-27
7.46212E-01 4.54367E-27
7.50000E-01 4.42938E-27
7.53769E-01 4.31777E-27
7.57519E-01 4.20878E-27
7.61249E-01 4.10233E-27
7.64960E-01 3.99837E-27
7.68650E-01 3.89682E-27
7.72320E-01 3.79762E-27
7.75968E-01 3.70073E-27
7.79596E-01 3.60607E-27
7.83203E-01 3.51359E-27
7.86788E-01 3.42324E-27
7.90351E-01 3.33497E-27
7.93893E-01 3.24872E-27
7.97411E-01 3.16444E-27
8.00908E-01 3.08209E-27
8.04381E-01 3.00162E-27
8.07831E-01 2.92298E-27
8.11257E-01 2.84613E-27
8.14660E-01 2.77103E-27
8.18039E-01 2.69763E-27
8.21394E-01 2.62589E-27
8.24724E-01 2.55578E-27
8.28030E-01 2.48725E-27
8.31310E-01 2.42027E-27
8.34565E-01 2.35480E-27
8.37795E-01 2.29080E-27
8.40999E-01 2.22825E-27
8.44177E-01 2.16711E-27
8.47329E-01 2.10735E-27
8.50455E-01 2.04893E-27
8.53553E-01 1.99182E-27
8.56625E-01 1.93600E-27
8.59670E-01 1.88144E-27
8.62687E-01 1.82810E-27
8.65677E-01 1.77597E-27
8.68639E-01 1.72501E-27
8.71572E-01 1.67520E-27
8.74478E-01 1.62651E-27
8.77355E-01 1.57892E-27
8.80203E-01 1.53240E-27
8.83022E-01 1.48694E-27
8.85812E-01 1.44250E-27
8.88573E-01 1.39908E-27
8.91304E-01 1.35664E-27
8.94005E-01 1.31516E-27
8.96677E-01 1.27463E-27
8.99318E-01 1.23503E-27
9.01928E-01 1.19633E-27
9.04508E-01 1.15853E-27
9.07058E-01 1.12159E-27
9.09576E-01 1.08551E-27
9.12063E-01 1.05026E-27
9.14519E-01 1.01583E-27
9.16943E-01 9.82202E-28
9.19335E-01 9.49363E-28
9.21696E-01 9.17297E-28
9.24024E-01 8.85988E-28
9.26320E-01 8.55423E-28
9.28584E-01 8.25586E-28
9.30815E-01 7.96465E-28
9.33013E-01 7.68046E-28
9.35178E-01 7.40316E-28
9.37310E-01 7.13263E-28
9.39409E-01 6.86875E-28
9.41474E-01 6.61139E-28
9.43505E-01 6.36045E-28
9.45503E-01 6.11581E-28
9.47467E-01 5.87736E-28
9.49397E-01 5.64500E-28
9.51293E-01 5.41862E-28
9.53154E-01 5.19813E-28
9.54981E-01 4.98343E-28
9.56773E-01 4.77443E-28
9.58530E-01 4.57103E-28
9.60252E-01 4.37314E-28
9.61940E-01 4.18069E-28
9.63592E-01 3.99359E-28
9.65209E-01 3.81175E-28
9.66790E-01 3.63511E-28
9.68336E-01 3.46357E-28
9.69846E-01 3.29709E-28
9.71321E-01 3.13557E-28
9.72759E-01 2.97895E-28
9.74162E-01 2.82717E-28
9.75528E-01 2.68017E-28
9.76858E-01 2.53787E-28
9.78152E-01 2.40022E-28
9.79410E-01 2.26717E-28
9.80631E-01 2.13866E-28
9.81815E-01 2.01463E-28
9.82963E-01 1.89503E-28
9.84074E-01 1.77982E-28
9.85148E-01 1.66894E-28
9.86185E-01 1.56235E-28
9.87185E-01 1.46000E-28
9.88148E-01 1.36186E-28
9.89074E-01 1.26788E-28
9.89962E-01 1.17803E-28
9.90814E-01 1.09226E-28
9.91627E-01 1.01055E-28
9.92404E-01 9.32854E-29
9.93143E-01 8.59146E-29
9.93844E-01 7.89396E-29
9.94508E-01 7.23575E-29
9.95134E-01 6.61656E-29
9.95722E-01 6.03615E-29
9.96273E-01 5.49426E-29
9.96786E-01 4.99070E-29
9.97261E-01 4.52525E-29
9.97698E-01 4.09772E-29
9.98097E-01 3.70794E-29
9.98459E-01 3.35575E-29
9.98782E-01 3.04102E-29
9.99067E-01 2.76361E-29
9.99315E-01 2.52342E-29
9.99524E-01 2.32034E-29
9.99695E-01 2.15430E-29
9.99829E-01 2.02522E-29
9.99924E-01 1.93306E-29
9.99981E-01 1.87778E-29
1.00000E+00 1.85935E-29
