 #
 # Subroutine ELSEPA. Elastic scattering of electrons and positrons
 #                    by neutral atoms and positive ions
 #
 # Projectile: electron
 # Kinetic energy = 2.50000E+08 eV = 9.18733E+06 a.u.
 #
 # WARNING: High-energy factorization with free-atom DF screening.
 #          Absorption, polarization and exchange corrections are
 #          switched off.
 #          Phase shifts are calculated for the bare nucleus.
 #          Scattering amplitudes are not evaluated.
 #
 # Element: Be,  Z =   4,  atomic weight = 9.01220E+00 g/mol
 #
 # Nuclear model: Fermi distribution
 #                Average radius = 2.22669E-13 cm
 #                Skin thickness = 5.46000E-14 cm
 #
 # Number of electrons =  4
 #
 # Total elastic cross section = 1.70094E-19 cm**2 = 6.07417E-03 a0**2
 # 1st transport cross section = 5.92670E-28 cm**2 = 2.11646E-11 a0**2
 # 2nd transport cross section = 1.77196E-27 cm**2 = 6.32777E-11 a0**2
 #
 #
 # Differential cross section:                       MU=(1-COS(THETA))/2
 #
 #  THETA        MU          DCS          DCS        Sherman      error
 #  (deg)                 (cm**2/sr)   (a0**2/sr)    function
 #----------------------------------------------------------------------
0.00000E+00 2.24081E-10
7.61557E-13 2.19333E-10
1.18994E-12 2.16720E-10
1.71346E-12 2.13583E-10
2.33225E-12 2.09953E-10
3.04617E-12 2.05867E-10
3.85530E-12 2.01361E-10
4.75964E-12 1.96478E-10
5.75917E-12 1.91262E-10
6.85391E-12 1.85760E-10
8.04379E-12 1.80015E-10
9.32893E-12 1.74071E-10
1.07092E-11 1.67975E-10
1.21847E-11 1.61771E-10
1.37554E-11 1.55499E-10
1.54213E-11 1.49192E-10
1.71823E-11 1.42893E-10
1.90386E-11 1.36635E-10
2.09900E-11 1.30446E-10
2.30367E-11 1.24349E-10
2.51785E-11 1.18322E-10
2.74156E-11 1.12355E-10
2.97478E-11 1.06619E-10
3.21752E-11 1.01121E-10
3.46979E-11 9.58620E-11
3.73157E-11 9.08439E-11
4.00286E-11 8.58989E-11
4.28368E-11 8.11038E-11
4.57402E-11 7.65589E-11
4.87388E-11 7.22570E-11
5.18325E-11 6.81902E-11
5.50215E-11 6.43496E-11
5.83057E-11 6.05932E-11
6.16850E-11 5.70481E-11
6.51595E-11 5.37125E-11
6.87293E-11 5.05758E-11
7.23943E-11 4.76277E-11
7.61544E-11 4.48422E-11
1.18991E-10 2.45332E-11
1.71347E-10 1.38487E-11
2.33223E-10 8.21371E-12
3.04617E-10 5.14622E-12
3.85531E-10 3.40184E-12
4.75965E-10 2.35731E-12
5.75917E-10 1.69953E-12
6.85389E-10 1.26682E-12
8.04380E-10 9.71471E-13
9.32891E-10 7.61825E-13
1.07092E-09 6.08339E-13
1.21847E-09 4.93239E-13
1.37554E-09 4.05186E-13
1.54213E-09 3.36563E-13
1.71823E-09 2.82222E-13
1.90386E-09 2.38562E-13
2.09900E-09 2.03076E-13
2.30367E-09 1.73936E-13
2.51785E-09 1.49761E-13
2.74156E-09 1.29597E-13
2.97478E-09 1.12947E-13
3.21752E-09 9.85701E-14
3.46978E-09 8.65546E-14
3.73156E-09 7.61933E-14
4.00286E-09 6.73581E-14
4.28368E-09 5.97399E-14
4.57402E-09 5.31298E-14
4.87388E-09 4.74270E-14
5.18326E-09 4.24110E-14
5.50215E-09 3.80704E-14
5.83057E-09 3.42233E-14
6.16850E-09 3.08649E-14
6.51596E-09 2.78889E-14
6.87293E-09 2.52598E-14
7.23942E-09 2.29306E-14
7.61544E-09 2.08542E-14
1.18991E-08 8.91737E-15
1.71347E-08 4.38801E-15
2.33223E-08 2.39325E-15
3.04617E-08 1.41084E-15
3.85531E-08 8.83676E-16
4.75965E-08 5.80939E-16
5.75917E-08 3.97292E-16
6.85389E-08 2.80748E-16
8.04380E-08 2.03946E-16
9.32891E-08 1.51686E-16
1.07092E-07 1.15123E-16
1.21847E-07 8.89412E-17
1.37554E-07 6.97965E-17
1.54213E-07 5.55364E-17
1.71823E-07 4.47390E-17
1.90386E-07 3.64425E-17
2.09900E-07 2.99831E-17
2.30367E-07 2.48934E-17
2.51785E-07 2.08392E-17
2.74156E-07 1.75778E-17
2.97478E-07 1.49301E-17
3.21752E-07 1.27627E-17
3.46978E-07 1.09747E-17
3.73156E-07 9.48915E-18
4.00286E-07 8.24664E-18
4.28368E-07 7.20100E-18
4.57402E-07 6.31595E-18
4.87388E-07 5.56280E-18
5.18325E-07 4.91863E-18
5.50215E-07 4.36506E-18
5.83057E-07 3.88723E-18
6.16850E-07 3.47302E-18
6.51596E-07 3.11254E-18
6.87293E-07 2.79765E-18
7.23942E-07 2.52158E-18
7.61543E-07 2.27874E-18
1.18991E-06 9.33442E-19
1.71347E-06 4.50177E-19
2.33223E-06 2.43003E-19
3.04617E-06 1.42449E-19
3.85531E-06 8.89325E-20
4.75964E-06 5.83501E-20
5.75916E-06 3.98549E-20
6.85388E-06 2.81409E-20
8.04378E-06 2.04315E-20
9.32888E-06 1.51904E-20
1.07092E-05 1.15273E-20
1.21846E-05 8.90476E-21
1.37553E-05 6.98741E-21
1.54212E-05 5.55944E-21
1.71822E-05 4.47833E-21
1.90385E-05 3.64771E-21
2.09899E-05 3.00356E-21
2.30365E-05 2.49256E-21
2.51783E-05 2.08552E-21
2.74153E-05 1.75843E-21
2.97475E-05 1.49335E-21
3.21749E-05 1.27668E-21
3.46974E-05 1.09812E-21
3.73152E-05 9.49753E-22
4.00281E-05 8.25567E-22
4.28362E-05 7.20931E-22
4.57395E-05 6.32266E-22
4.87380E-05 5.56767E-22
5.18317E-05 4.92199E-22
5.50205E-05 4.36750E-22
5.83045E-05 3.88933E-22
6.16838E-05 3.47520E-22
6.51582E-05 3.11494E-22
6.87277E-05 2.80020E-22
7.23925E-05 2.52411E-22
7.61524E-05 2.27839E-22
9.21439E-05 1.55541E-22
1.09658E-04 1.09824E-22
1.28695E-04 7.97097E-23
1.49255E-04 5.92466E-23
1.71338E-04 4.49495E-23
1.94942E-04 3.47086E-23
2.20070E-04 2.72287E-23
2.46720E-04 2.16546E-23
2.74892E-04 1.74374E-23
3.04586E-04 1.41974E-23
3.35803E-04 1.16750E-23
3.68542E-04 9.68880E-24
4.02802E-04 8.10639E-24
4.38585E-04 6.83433E-24
4.75889E-04 5.80163E-24
5.14715E-04 4.95658E-24
5.55063E-04 4.25974E-24
5.96931E-04 3.68078E-24
6.40321E-04 3.19687E-24
6.85233E-04 2.78964E-24
7.31665E-04 2.44514E-24
7.79618E-04 2.15205E-24
8.29092E-04 1.90145E-24
8.80086E-04 1.68621E-24
9.32601E-04 1.50045E-24
9.86636E-04 1.33952E-24
1.04219E-03 1.19949E-24
1.09927E-03 1.07723E-24
1.15786E-03 9.70100E-25
1.21797E-03 8.75887E-25
1.27961E-03 7.92802E-25
1.34276E-03 7.19277E-25
1.40743E-03 6.54044E-25
1.47362E-03 5.96000E-25
1.54133E-03 5.44214E-25
1.61056E-03 4.97905E-25
1.68131E-03 4.56380E-25
1.75357E-03 4.19073E-25
1.82735E-03 3.85471E-25
1.90265E-03 3.55147E-25
1.97947E-03 3.27726E-25
2.05780E-03 3.02877E-25
2.13765E-03 2.80323E-25
2.21902E-03 2.59810E-25
2.30190E-03 2.41124E-25
2.38630E-03 2.24073E-25
2.47222E-03 2.08487E-25
2.55965E-03 1.94221E-25
2.64859E-03 1.81140E-25
2.73905E-03 1.69132E-25
2.83103E-03 1.58091E-25
2.92452E-03 1.47927E-25
3.01952E-03 1.38557E-25
3.11604E-03 1.29907E-25
3.21407E-03 1.21915E-25
3.31362E-03 1.14519E-25
3.41468E-03 1.07668E-25
3.51725E-03 1.01315E-25
3.62133E-03 9.54165E-26
3.72692E-03 8.99354E-26
3.83403E-03 8.48359E-26
3.94265E-03 8.00875E-26
4.05278E-03 7.56613E-26
4.16442E-03 7.15316E-26
4.27757E-03 6.76753E-26
4.39223E-03 6.40706E-26
4.50840E-03 6.06987E-26
4.62608E-03 5.75415E-26
4.74527E-03 5.45832E-26
4.86597E-03 5.18090E-26
4.98817E-03 4.92052E-26
5.11188E-03 4.67598E-26
5.23711E-03 4.44612E-26
5.36383E-03 4.22992E-26
5.49207E-03 4.02641E-26
5.62181E-03 3.83473E-26
5.75306E-03 3.65406E-26
5.88581E-03 3.48365E-26
6.02007E-03 3.32284E-26
6.15583E-03 3.17097E-26
6.29310E-03 3.02746E-26
6.43187E-03 2.89178E-26
6.57214E-03 2.76341E-26
6.71392E-03 2.64191E-26
6.85720E-03 2.52683E-26
7.00198E-03 2.41777E-26
7.14827E-03 2.31437E-26
7.29605E-03 2.21628E-26
7.44534E-03 2.12319E-26
7.59612E-03 2.03478E-26
7.97965E-03 1.83252E-26
8.37255E-03 1.65405E-26
8.77480E-03 1.49613E-26
9.18641E-03 1.35602E-26
9.60736E-03 1.23139E-26
1.00376E-02 1.12026E-26
1.04773E-02 1.02093E-26
1.09262E-02 9.31962E-27
1.13844E-02 8.52098E-27
1.18520E-02 7.80262E-27
1.23288E-02 7.15520E-27
1.28150E-02 6.57064E-27
1.33104E-02 6.04188E-27
1.38150E-02 5.56277E-27
1.43290E-02 5.12793E-27
1.48521E-02 4.73264E-27
1.53845E-02 4.37276E-27
1.59262E-02 4.04463E-27
1.64770E-02 3.74503E-27
1.70371E-02 3.47110E-27
1.76063E-02 3.22032E-27
1.81848E-02 2.99043E-27
1.87724E-02 2.77944E-27
1.93692E-02 2.58557E-27
1.99751E-02 2.40722E-27
2.05901E-02 2.24297E-27
2.12143E-02 2.09155E-27
2.18476E-02 1.95180E-27
2.24900E-02 1.82271E-27
2.31415E-02 1.70334E-27
2.38021E-02 1.59286E-27
2.44717E-02 1.49051E-27
2.51504E-02 1.39561E-27
2.58382E-02 1.30756E-27
2.65349E-02 1.22577E-27
2.72407E-02 1.14976E-27
2.79555E-02 1.07905E-27
2.86793E-02 1.01323E-27
2.94120E-02 9.51917E-28
3.01537E-02 8.94759E-28
3.09043E-02 8.41440E-28
3.16639E-02 7.91668E-28
3.24324E-02 7.45179E-28
3.32098E-02 7.01727E-28
3.39961E-02 6.61091E-28
3.47912E-02 6.23065E-28
3.55952E-02 5.87462E-28
3.64081E-02 5.54108E-28
3.72297E-02 5.22844E-28
3.80602E-02 4.93524E-28
3.88995E-02 4.66014E-28
3.97476E-02 4.40188E-28
4.06044E-02 4.15932E-28
4.14700E-02 3.93139E-28
4.23443E-02 3.71713E-28
4.32273E-02 3.51560E-28
4.41190E-02 3.32599E-28
4.50194E-02 3.14751E-28
4.59284E-02 2.97943E-28
4.68461E-02 2.82109E-28
4.87074E-02 2.53118E-28
5.06030E-02 2.27330E-28
5.25328E-02 2.04360E-28
5.44967E-02 1.83872E-28
5.64946E-02 1.65574E-28
5.85262E-02 1.49214E-28
6.05914E-02 1.34568E-28
6.26901E-02 1.21444E-28
6.48222E-02 1.09671E-28
6.69873E-02 9.90994E-29
6.91854E-02 8.95982E-29
7.14163E-02 8.10516E-29
7.36799E-02 7.33571E-29
7.59760E-02 6.64245E-29
7.83043E-02 6.01736E-29
8.06647E-02 5.45335E-29
8.30571E-02 4.94411E-29
8.54812E-02 4.48404E-29
8.79369E-02 4.06813E-29
9.04240E-02 3.69194E-29
9.29422E-02 3.35149E-29
9.54915E-02 3.04324E-29
9.80716E-02 2.76401E-29
1.00682E-01 2.51095E-29
1.03323E-01 2.28152E-29
1.05995E-01 2.07343E-29
1.08696E-01 1.88463E-29
1.11427E-01 1.71326E-29
1.14188E-01 1.55768E-29
1.16978E-01 1.41638E-29
1.19797E-01 1.28801E-29
1.22645E-01 1.17138E-29
1.25522E-01 1.06537E-29
1.28428E-01 9.68995E-30
1.31361E-01 8.81369E-30
1.34323E-01 8.01681E-30
1.37313E-01 7.29201E-30
1.40330E-01 6.63265E-30
1.43375E-01 6.03277E-30
1.46447E-01 5.48693E-30
1.49545E-01 4.99022E-30
1.52671E-01 4.53817E-30
1.55823E-01 4.12676E-30
1.59001E-01 3.75230E-30
1.62205E-01 3.41146E-30
1.65435E-01 3.10123E-30
1.68690E-01 2.81884E-30
1.71970E-01 2.56180E-30
1.75276E-01 2.32783E-30
1.78606E-01 2.11489E-30
1.81961E-01 1.92107E-30
1.85340E-01 1.74468E-30
1.88743E-01 1.58416E-30
1.92169E-01 1.43809E-30
1.95619E-01 1.30519E-30
1.99092E-01 1.18428E-30
2.02589E-01 1.07429E-30
2.06107E-01 9.74254E-31
2.09649E-01 8.83277E-31
2.13212E-01 8.00554E-31
2.16797E-01 7.25349E-31
2.20404E-01 6.56992E-31
2.24032E-01 5.94870E-31
2.27680E-01 5.38427E-31
2.31350E-01 4.87155E-31
2.35040E-01 4.40591E-31
2.38751E-01 3.98314E-31
2.42481E-01 3.59938E-31
2.46231E-01 3.25113E-31
2.50000E-01 2.93520E-31
2.53788E-01 2.64868E-31
2.57595E-01 2.38891E-31
2.61421E-01 2.15347E-31
2.65264E-01 1.94016E-31
2.69126E-01 1.74697E-31
2.73005E-01 1.57207E-31
2.76901E-01 1.41379E-31
2.80814E-01 1.27061E-31
2.84744E-01 1.14115E-31
2.88691E-01 1.02415E-31
2.92653E-01 9.18453E-32
2.96632E-01 8.23025E-32
3.00625E-01 7.36910E-32
3.04634E-01 6.59242E-32
3.08658E-01 5.89231E-32
3.12697E-01 5.26162E-32
3.16749E-01 4.69382E-32
3.20816E-01 4.18298E-32
3.24896E-01 3.72369E-32
3.28990E-01 3.31106E-32
3.33097E-01 2.94062E-32
3.37216E-01 2.60834E-32
3.41348E-01 2.31052E-32
3.45492E-01 2.04382E-32
3.49647E-01 1.80523E-32
3.53814E-01 1.59199E-32
3.57992E-01 1.40159E-32
3.62181E-01 1.23178E-32
3.66381E-01 1.08051E-32
3.70590E-01 9.45922E-33
3.74810E-01 8.26329E-33
3.79039E-01 7.20208E-33
3.83277E-01 6.26180E-33
3.87524E-01 5.43002E-33
3.91780E-01 4.69541E-33
3.96044E-01 4.04787E-33
4.00316E-01 3.47813E-33
4.04596E-01 2.97794E-33
4.08882E-01 2.53980E-33
4.13176E-01 2.15698E-33
4.17476E-01 1.82340E-33
4.21783E-01 1.53359E-33
4.26095E-01 1.28264E-33
4.30413E-01 1.06612E-33
4.34737E-01 8.80076E-34
4.39065E-01 7.20946E-34
4.43398E-01 5.85538E-34
4.47736E-01 4.71012E-34
4.52077E-01 3.74791E-34
4.56422E-01 2.94607E-34
4.60770E-01 2.28421E-34
4.65122E-01 1.74416E-34
4.69476E-01 1.30974E-34
4.73832E-01 9.66649E-35
4.78190E-01 7.02106E-35
4.82550E-01 5.04834E-35
4.86912E-01 3.64845E-35
4.91274E-01 2.73323E-35
4.95637E-01 2.22510E-35
5.00000E-01 2.05591E-35
5.04363E-01 2.16563E-35
5.08726E-01 2.50216E-35
5.13088E-01 3.02014E-35
5.17450E-01 3.67973E-35
5.21810E-01 4.44662E-35
5.26168E-01 5.29157E-35
5.30524E-01 6.18923E-35
5.34878E-01 7.11820E-35
5.39230E-01 8.05989E-35
5.43578E-01 8.99930E-35
5.47923E-01 9.92369E-35
5.52264E-01 1.08218E-34
5.56602E-01 1.16864E-34
5.60935E-01 1.25095E-34
5.65263E-01 1.32869E-34
5.69587E-01 1.40135E-34
5.73905E-01 1.46869E-34
5.78217E-01 1.53054E-34
5.82524E-01 1.58675E-34
5.86824E-01 1.63733E-34
5.91118E-01 1.68225E-34
5.95404E-01 1.72165E-34
5.99684E-01 1.75562E-34
6.03956E-01 1.78430E-34
6.08220E-01 1.80787E-34
6.12476E-01 1.82652E-34
6.16723E-01 1.84051E-34
6.20961E-01 1.84997E-34
6.25190E-01 1.85526E-34
6.29410E-01 1.85653E-34
6.33619E-01 1.85408E-34
6.37819E-01 1.84811E-34
6.42008E-01 1.83887E-34
6.46186E-01 1.82662E-34
6.50353E-01 1.81160E-34
6.54508E-01 1.79405E-34
6.58652E-01 1.77412E-34
6.62784E-01 1.75208E-34
6.66903E-01 1.72812E-34
6.71010E-01 1.70248E-34
6.75104E-01 1.67529E-34
6.79184E-01 1.64667E-34
6.83251E-01 1.61696E-34
6.87303E-01 1.58616E-34
6.91342E-01 1.55451E-34
6.95366E-01 1.52215E-34
6.99375E-01 1.48913E-34
7.03368E-01 1.45568E-34
7.07347E-01 1.42182E-34
7.11309E-01 1.38772E-34
7.15256E-01 1.35344E-34
7.19186E-01 1.31909E-34
7.23099E-01 1.28485E-34
7.26995E-01 1.25058E-34
7.30874E-01 1.21652E-34
7.34736E-01 1.18265E-34
7.38579E-01 1.14912E-34
7.42405E-01 1.11593E-34
7.46212E-01 1.08308E-34
7.50000E-01 1.05069E-34
7.53769E-01 1.01874E-34
7.57519E-01 9.87295E-35
7.61249E-01 9.56444E-35
7.64960E-01 9.26059E-35
7.68650E-01 8.96295E-35
7.72320E-01 8.67132E-35
7.75968E-01 8.38561E-35
7.79596E-01 8.10607E-35
7.83203E-01 7.83342E-35
7.86788E-01 7.56657E-35
7.90351E-01 7.30616E-35
7.93893E-01 7.05235E-35
7.97411E-01 6.80515E-35
8.00908E-01 6.56446E-35
8.04381E-01 6.33009E-35
8.07831E-01 6.10241E-35
8.11257E-01 5.88086E-35
8.14660E-01 5.66581E-35
8.18039E-01 5.45685E-35
8.21394E-01 5.25448E-35
8.24724E-01 5.05778E-35
8.28030E-01 4.86746E-35
8.31310E-01 4.68276E-35
8.34565E-01 4.50404E-35
8.37795E-01 4.33072E-35
8.40999E-01 4.16338E-35
8.44177E-01 4.00118E-35
8.47329E-01 3.84448E-35
8.50455E-01 3.69294E-35
8.53553E-01 3.54667E-35
8.56625E-01 3.40509E-35
8.59670E-01 3.26865E-35
8.62687E-01 3.13660E-35
8.65677E-01 3.00937E-35
8.68639E-01 2.88668E-35
8.71572E-01 2.76836E-35
8.74478E-01 2.65412E-35
8.77355E-01 2.54384E-35
8.80203E-01 2.43792E-35
8.83022E-01 2.33568E-35
8.85812E-01 2.23713E-35
8.88573E-01 2.14246E-35
8.91304E-01 2.05111E-35
8.94005E-01 1.96302E-35
8.96677E-01 1.87852E-35
8.99318E-01 1.79697E-35
9.01928E-01 1.71875E-35
9.04508E-01 1.64327E-35
9.07058E-01 1.57082E-35
9.09576E-01 1.50116E-35
9.12063E-01 1.43402E-35
9.14519E-01 1.36963E-35
9.16943E-01 1.30779E-35
9.19335E-01 1.24821E-35
9.21696E-01 1.19097E-35
9.24024E-01 1.13614E-35
9.26320E-01 1.08332E-35
9.28584E-01 1.03271E-35
9.30815E-01 9.84006E-36
9.33013E-01 9.37342E-36
9.35178E-01 8.92554E-36
9.37310E-01 8.49339E-36
9.39409E-01 8.08246E-36
9.41474E-01 7.68566E-36
9.43505E-01 7.30588E-36
9.45503E-01 6.94057E-36
9.47467E-01 6.59237E-36
9.49397E-01 6.25649E-36
9.51293E-01 5.93516E-36
9.53154E-01 5.62812E-36
9.54981E-01 5.33276E-36
9.56773E-01 5.04982E-36
9.58530E-01 4.77842E-36
9.60252E-01 4.52055E-36
9.61940E-01 4.27152E-36
9.63592E-01 4.03402E-36
9.65209E-01 3.80553E-36
9.66790E-01 3.58880E-36
9.68336E-01 3.37916E-36
9.69846E-01 3.18059E-36
9.71321E-01 2.98978E-36
9.72759E-01 2.80742E-36
9.74162E-01 2.63344E-36
9.75528E-01 2.46704E-36
9.76858E-01 2.30850E-36
9.78152E-01 2.15664E-36
9.79410E-01 2.01266E-36
9.80631E-01 1.87479E-36
9.81815E-01 1.74380E-36
9.82963E-01 1.61818E-36
9.84074E-01 1.49899E-36
9.85148E-01 1.38630E-36
9.86185E-01 1.27889E-36
9.87185E-01 1.17741E-36
9.88148E-01 1.07991E-36
9.89074E-01 9.88587E-37
9.89962E-01 9.01670E-37
9.90814E-01 8.19619E-37
9.91627E-01 7.42463E-37
9.92404E-01 6.68776E-37
9.93143E-01 6.00004E-37
9.93844E-01 5.36007E-37
9.94508E-01 4.75231E-37
9.95134E-01 4.18946E-37
9.95722E-01 3.66486E-37
9.96273E-01 3.18481E-37
9.96786E-01 2.73108E-37
9.97261E-01 2.31944E-37
9.97698E-01 1.94151E-37
9.98097E-01 1.60359E-37
9.98459E-01 1.29266E-37
9.98782E-01 1.02071E-37
9.99067E-01 7.79980E-38
9.99315E-01 5.75330E-38
9.99524E-01 4.01675E-38
9.99695E-01 2.57546E-38
9.99829E-01 1.45323E-38
9.99924E-01 6.63153E-39
9.99981E-01 1.89007E-39
1.00000E+00 2.48574E-40
