 #
 # Subroutine ELSEPA. Elastic scattering of electrons and positrons
 #                    by neutral atoms and positive ions
 #
 # Projectile: electron
 # Kinetic energy = 1.75000E+08 eV = 6.43113E+06 a.u.
 #
 # WARNING: High-energy factorization with free-atom DF screening.
 #          Absorption, polarization and exchange corrections are
 #          switched off.
 #          Phase shifts are calculated for the bare nucleus.
 #          Scattering amplitudes are not evaluated.
 #
 # Element: Be,  Z =   4,  atomic weight = 9.01220E+00 g/mol
 #
 # Nuclear model: Fermi distribution
 #                Average radius = 2.22669E-13 cm
 #                Skin thickness = 5.46000E-14 cm
 #
 # Number of electrons =  4
 #
 # Total elastic cross section = 1.69974E-19 cm**2 = 6.06988E-03 a0**2
 # 1st transport cross section = 1.20319E-27 cm**2 = 4.29667E-11 a0**2
 # 2nd transport cross section = 3.58622E-27 cm**2 = 1.28066E-10 a0**2
 #
 #
 # Differential cross section:                       MU=(1-COS(THETA))/2
 #
 #  THETA        MU          DCS          DCS        Sherman      error
 #  (deg)                 (cm**2/sr)   (a0**2/sr)    function
 #----------------------------------------------------------------------
0.00000E+00 1.09992E-10
7.61557E-13 1.08839E-10
1.18994E-12 1.08198E-10
1.71346E-12 1.07421E-10
2.33225E-12 1.06513E-10
3.04617E-12 1.05477E-10
3.85530E-12 1.04320E-10
4.75964E-12 1.03046E-10
5.75917E-12 1.01661E-10
6.85391E-12 1.00174E-10
8.04379E-12 9.85895E-11
9.32893E-12 9.69146E-11
1.07092E-11 9.51579E-11
1.21847E-11 9.33270E-11
1.37554E-11 9.14296E-11
1.54213E-11 8.94711E-11
1.71823E-11 8.74614E-11
1.90386E-11 8.54080E-11
2.09900E-11 8.33187E-11
2.30367E-11 8.11988E-11
2.51785E-11 7.90563E-11
2.74156E-11 7.68989E-11
2.97478E-11 7.47334E-11
3.21752E-11 7.25647E-11
3.46979E-11 7.03981E-11
3.73157E-11 6.82410E-11
4.00286E-11 6.60985E-11
4.28368E-11 6.39752E-11
4.57402E-11 6.18732E-11
4.87388E-11 5.97991E-11
5.18325E-11 5.77215E-11
5.50215E-11 5.56671E-11
5.83057E-11 5.36681E-11
6.16850E-11 5.17256E-11
6.51595E-11 4.98406E-11
6.87293E-11 4.80134E-11
7.23943E-11 4.62441E-11
7.61544E-11 4.45327E-11
1.18991E-10 2.96879E-11
1.71347E-10 1.94394E-11
2.33223E-10 1.27468E-11
3.04617E-10 8.47428E-12
3.85531E-10 5.75957E-12
4.75965E-10 4.01965E-12
5.75917E-10 2.88197E-12
6.85389E-10 2.12146E-12
8.04380E-10 1.60120E-12
9.32891E-10 1.23712E-12
1.07092E-09 9.75210E-13
1.21847E-09 7.82211E-13
1.37554E-09 6.37572E-13
1.54213E-09 5.27179E-13
1.71823E-09 4.41111E-13
1.90386E-09 3.72885E-13
2.09900E-09 3.18024E-13
2.30367E-09 2.73344E-13
2.51785E-09 2.36585E-13
2.74156E-09 2.06072E-13
2.97478E-09 1.80523E-13
3.21752E-09 1.58935E-13
3.46978E-09 1.40540E-13
3.73156E-09 1.24773E-13
4.00286E-09 1.11177E-13
4.28368E-09 9.93924E-14
4.57402E-09 8.91202E-14
4.87388E-09 8.01483E-14
5.18326E-09 7.22162E-14
5.50215E-09 6.52486E-14
5.83057E-09 5.91656E-14
6.16850E-09 5.37607E-14
6.51596E-09 4.88856E-14
6.87293E-09 4.45878E-14
7.23942E-09 4.07721E-14
7.61544E-09 3.72854E-14
1.18991E-08 1.67451E-14
1.71347E-08 8.49095E-15
2.33223E-08 4.71516E-15
3.04617E-08 2.81061E-15
3.85531E-08 1.77276E-15
4.75965E-08 1.17072E-15
5.75917E-08 8.03040E-16
6.85389E-08 5.68642E-16
8.04380E-08 4.13674E-16
9.32891E-08 3.07988E-16
1.07092E-07 2.33952E-16
1.21847E-07 1.80860E-16
1.37554E-07 1.41995E-16
1.54213E-07 1.13023E-16
1.71823E-07 9.10725E-17
1.90386E-07 7.41980E-17
2.09900E-07 6.10502E-17
2.30367E-07 5.06892E-17
2.51785E-07 4.24358E-17
2.74156E-07 3.57957E-17
2.97478E-07 3.04050E-17
3.21752E-07 2.59919E-17
3.46978E-07 2.23511E-17
3.73156E-07 1.93260E-17
4.00286E-07 1.67958E-17
4.28368E-07 1.46664E-17
4.57402E-07 1.28641E-17
4.87388E-07 1.13303E-17
5.18325E-07 1.00184E-17
5.50215E-07 8.89096E-18
5.83057E-07 7.91777E-18
6.16850E-07 7.07416E-18
6.51596E-07 6.33998E-18
6.87293E-07 5.69861E-18
7.23942E-07 5.13633E-18
7.61543E-07 4.64172E-18
1.18991E-06 1.90149E-18
1.71347E-06 9.17071E-19
2.33223E-06 4.95039E-19
3.04617E-06 2.90196E-19
3.85531E-06 1.81174E-19
4.75964E-06 1.18872E-19
5.75916E-06 8.11936E-20
6.85388E-06 5.73296E-20
8.04378E-06 4.16238E-20
9.32888E-06 3.09467E-20
1.07092E-05 2.34840E-20
1.21846E-05 1.81412E-20
1.37553E-05 1.42351E-20
1.54212E-05 1.13260E-20
1.71822E-05 9.12351E-21
1.90385E-05 7.43132E-21
2.09899E-05 6.11902E-21
2.30365E-05 5.07799E-21
2.51783E-05 4.24876E-21
2.74153E-05 3.58239E-21
2.97475E-05 3.04234E-21
3.21749E-05 2.60094E-21
3.46974E-05 2.23715E-21
3.73152E-05 1.93490E-21
4.00281E-05 1.68190E-21
4.28362E-05 1.46873E-21
4.57395E-05 1.28809E-21
4.87380E-05 1.13428E-21
5.18317E-05 1.00274E-21
5.50205E-05 8.89776E-22
5.83045E-05 7.92360E-22
6.16838E-05 7.07990E-22
6.51582E-05 6.34597E-22
6.87277E-05 5.70475E-22
7.23925E-05 5.14228E-22
7.61524E-05 4.64443E-22
9.21439E-05 3.17106E-22
1.09658E-04 2.23932E-22
1.28695E-04 1.62553E-22
1.49255E-04 1.20842E-22
1.71338E-04 9.16967E-23
1.94942E-04 7.08184E-23
2.20070E-04 5.55675E-23
2.46720E-04 4.42014E-23
2.74892E-04 3.56011E-23
3.04586E-04 2.89928E-23
3.35803E-04 2.38476E-23
3.68542E-04 1.97957E-23
4.02802E-04 1.65670E-23
4.38585E-04 1.39713E-23
4.75889E-04 1.18636E-23
5.14715E-04 1.01387E-23
5.55063E-04 8.71606E-24
5.96931E-04 7.53390E-24
6.40321E-04 6.54566E-24
6.85233E-04 5.71386E-24
7.31665E-04 5.01006E-24
7.79618E-04 4.41120E-24
8.29092E-04 3.89904E-24
8.80086E-04 3.45907E-24
9.32601E-04 3.07926E-24
9.86636E-04 2.75016E-24
1.04219E-03 2.46376E-24
1.09927E-03 2.21363E-24
1.15786E-03 1.99440E-24
1.21797E-03 1.80156E-24
1.27961E-03 1.63146E-24
1.34276E-03 1.48089E-24
1.40743E-03 1.34727E-24
1.47362E-03 1.22835E-24
1.54133E-03 1.12222E-24
1.61056E-03 1.02728E-24
1.68131E-03 9.42132E-25
1.75357E-03 8.65607E-25
1.82735E-03 7.96664E-25
1.90265E-03 7.34427E-25
1.97947E-03 6.78132E-25
2.05780E-03 6.27102E-25
2.13765E-03 5.80769E-25
2.21902E-03 5.38615E-25
2.30190E-03 5.00203E-25
2.38630E-03 4.65139E-25
2.47222E-03 4.33078E-25
2.55965E-03 4.03722E-25
2.64859E-03 3.76796E-25
2.73905E-03 3.52068E-25
2.83103E-03 3.29323E-25
2.92452E-03 3.08375E-25
3.01952E-03 2.89058E-25
3.11604E-03 2.71219E-25
3.21407E-03 2.54729E-25
3.31362E-03 2.39463E-25
3.41468E-03 2.25317E-25
3.51725E-03 2.12193E-25
3.62133E-03 2.00004E-25
3.72692E-03 1.88671E-25
3.83403E-03 1.78123E-25
3.94265E-03 1.68297E-25
4.05278E-03 1.59134E-25
4.16442E-03 1.50580E-25
4.27757E-03 1.42589E-25
4.39223E-03 1.35116E-25
4.50840E-03 1.28122E-25
4.62608E-03 1.21570E-25
4.74527E-03 1.15428E-25
4.86597E-03 1.09666E-25
4.98817E-03 1.04254E-25
5.11188E-03 9.91695E-26
5.23711E-03 9.43874E-26
5.36383E-03 8.98872E-26
5.49207E-03 8.56489E-26
5.62181E-03 8.16547E-26
5.75306E-03 7.78880E-26
5.88581E-03 7.43332E-26
6.02007E-03 7.09767E-26
6.15583E-03 6.78050E-26
6.29310E-03 6.48063E-26
6.43187E-03 6.19694E-26
6.57214E-03 5.92839E-26
6.71392E-03 5.67404E-26
6.85720E-03 5.43299E-26
7.00198E-03 5.20443E-26
7.14827E-03 4.98759E-26
7.29605E-03 4.78175E-26
7.44534E-03 4.58627E-26
7.59612E-03 4.40051E-26
7.97965E-03 3.97505E-26
8.37255E-03 3.59901E-26
8.77480E-03 3.26570E-26
9.18641E-03 2.96945E-26
9.60736E-03 2.70545E-26
1.00376E-02 2.46962E-26
1.04773E-02 2.25843E-26
1.09262E-02 2.06890E-26
1.13844E-02 1.89842E-26
1.18520E-02 1.74476E-26
1.23288E-02 1.60599E-26
1.28150E-02 1.48042E-26
1.33104E-02 1.36658E-26
1.38150E-02 1.26320E-26
1.43290E-02 1.16916E-26
1.48521E-02 1.08347E-26
1.53845E-02 1.00527E-26
1.59262E-02 9.33788E-27
1.64770E-02 8.68359E-27
1.70371E-02 8.08383E-27
1.76063E-02 7.53330E-27
1.81848E-02 7.02729E-27
1.87724E-02 6.56161E-27
1.93692E-02 6.13252E-27
1.99751E-02 5.73666E-27
2.05901E-02 5.37104E-27
2.12143E-02 5.03297E-27
2.18476E-02 4.72004E-27
2.24900E-02 4.43007E-27
2.31415E-02 4.16111E-27
2.38021E-02 3.91138E-27
2.44717E-02 3.67929E-27
2.51504E-02 3.46338E-27
2.58382E-02 3.26236E-27
2.65349E-02 3.07503E-27
2.72407E-02 2.90030E-27
2.79555E-02 2.73720E-27
2.86793E-02 2.58483E-27
2.94120E-02 2.44236E-27
3.01537E-02 2.30907E-27
3.09043E-02 2.18425E-27
3.16639E-02 2.06729E-27
3.24324E-02 1.95762E-27
3.32098E-02 1.85471E-27
3.39961E-02 1.75808E-27
3.47912E-02 1.66729E-27
3.55952E-02 1.58193E-27
3.64081E-02 1.50162E-27
3.72297E-02 1.42603E-27
3.80602E-02 1.35483E-27
3.88995E-02 1.28773E-27
3.97476E-02 1.22446E-27
4.06044E-02 1.16476E-27
4.14700E-02 1.10841E-27
4.23443E-02 1.05519E-27
4.32273E-02 1.00490E-27
4.41190E-02 9.57350E-28
4.50194E-02 9.12376E-28
4.59284E-02 8.69817E-28
4.68461E-02 8.29524E-28
4.87074E-02 7.55192E-28
5.06030E-02 6.88388E-28
5.25328E-02 6.28248E-28
5.44967E-02 5.74021E-28
5.64946E-02 5.25050E-28
5.85262E-02 4.80761E-28
6.05914E-02 4.40649E-28
6.26901E-02 4.04272E-28
6.48222E-02 3.71239E-28
6.69873E-02 3.41205E-28
6.91854E-02 3.13865E-28
7.14163E-02 2.88950E-28
7.36799E-02 2.66218E-28
7.59760E-02 2.45457E-28
7.83043E-02 2.26476E-28
8.06647E-02 2.09106E-28
8.30571E-02 1.93195E-28
8.54812E-02 1.78607E-28
8.79369E-02 1.65221E-28
9.04240E-02 1.52927E-28
9.29422E-02 1.41627E-28
9.54915E-02 1.31233E-28
9.80716E-02 1.21664E-28
1.00682E-01 1.12849E-28
1.03323E-01 1.04723E-28
1.05995E-01 9.72270E-29
1.08696E-01 9.03073E-29
1.11427E-01 8.39158E-29
1.14188E-01 7.80086E-29
1.16978E-01 7.25458E-29
1.19797E-01 6.74913E-29
1.22645E-01 6.28118E-29
1.25522E-01 5.84774E-29
1.28428E-01 5.44606E-29
1.31361E-01 5.07362E-29
1.34323E-01 4.72813E-29
1.37313E-01 4.40751E-29
1.40330E-01 4.10982E-29
1.43375E-01 3.83332E-29
1.46447E-01 3.57639E-29
1.49545E-01 3.33754E-29
1.52671E-01 3.11543E-29
1.55823E-01 2.90880E-29
1.59001E-01 2.71650E-29
1.62205E-01 2.53749E-29
1.65435E-01 2.37078E-29
1.68690E-01 2.21549E-29
1.71970E-01 2.07078E-29
1.75276E-01 1.93589E-29
1.78606E-01 1.81012E-29
1.81961E-01 1.69283E-29
1.85340E-01 1.58340E-29
1.88743E-01 1.48130E-29
1.92169E-01 1.38599E-29
1.95619E-01 1.29702E-29
1.99092E-01 1.21393E-29
2.02589E-01 1.13632E-29
2.06107E-01 1.06382E-29
2.09649E-01 9.96078E-30
2.13212E-01 9.32761E-30
2.16797E-01 8.73573E-30
2.20404E-01 8.18234E-30
2.24032E-01 7.66484E-30
2.27680E-01 7.18082E-30
2.31350E-01 6.72803E-30
2.35040E-01 6.30440E-30
2.38751E-01 5.90799E-30
2.42481E-01 5.53698E-30
2.46231E-01 5.18970E-30
2.50000E-01 4.86459E-30
2.53788E-01 4.56019E-30
2.57595E-01 4.27515E-30
2.61421E-01 4.00819E-30
2.65264E-01 3.75815E-30
2.69126E-01 3.52392E-30
2.73005E-01 3.30448E-30
2.76901E-01 3.09888E-30
2.80814E-01 2.90622E-30
2.84744E-01 2.72567E-30
2.88691E-01 2.55645E-30
2.92653E-01 2.39784E-30
2.96632E-01 2.24917E-30
3.00625E-01 2.10978E-30
3.04634E-01 1.97911E-30
3.08658E-01 1.85658E-30
3.12697E-01 1.74169E-30
3.16749E-01 1.63396E-30
3.20816E-01 1.53292E-30
3.24896E-01 1.43817E-30
3.28990E-01 1.34929E-30
3.33097E-01 1.26593E-30
3.37216E-01 1.18774E-30
3.41348E-01 1.11439E-30
3.45492E-01 1.04558E-30
3.49647E-01 9.81026E-31
3.53814E-01 9.20463E-31
3.57992E-01 8.63641E-31
3.62181E-01 8.10329E-31
3.66381E-01 7.60306E-31
3.70590E-01 7.13370E-31
3.74810E-01 6.69328E-31
3.79039E-01 6.28001E-31
3.83277E-01 5.89220E-31
3.87524E-01 5.52828E-31
3.91780E-01 5.18677E-31
3.96044E-01 4.86629E-31
4.00316E-01 4.56553E-31
4.04596E-01 4.28328E-31
4.08882E-01 4.01840E-31
4.13176E-01 3.76982E-31
4.17476E-01 3.53653E-31
4.21783E-01 3.31759E-31
4.26095E-01 3.11212E-31
4.30413E-01 2.91929E-31
4.34737E-01 2.73832E-31
4.39065E-01 2.56849E-31
4.43398E-01 2.40910E-31
4.47736E-01 2.25953E-31
4.52077E-01 2.11916E-31
4.56422E-01 1.98743E-31
4.60770E-01 1.86381E-31
4.65122E-01 1.74780E-31
4.69476E-01 1.63894E-31
4.73832E-01 1.53678E-31
4.78190E-01 1.44093E-31
4.82550E-01 1.35098E-31
4.86912E-01 1.26658E-31
4.91274E-01 1.18739E-31
4.95637E-01 1.11309E-31
5.00000E-01 1.04337E-31
5.04363E-01 9.77964E-32
5.08726E-01 9.16601E-32
5.13088E-01 8.59031E-32
5.17450E-01 8.05025E-32
5.21810E-01 7.54364E-32
5.26168E-01 7.06841E-32
5.30524E-01 6.62264E-32
5.34878E-01 6.20452E-32
5.39230E-01 5.81237E-32
5.43578E-01 5.44457E-32
5.47923E-01 5.09963E-32
5.52264E-01 4.77617E-32
5.56602E-01 4.47283E-32
5.60935E-01 4.18840E-32
5.65263E-01 3.92171E-32
5.69587E-01 3.67166E-32
5.73905E-01 3.43724E-32
5.78217E-01 3.21748E-32
5.82524E-01 3.01147E-32
5.86824E-01 2.81837E-32
5.91118E-01 2.63738E-32
5.95404E-01 2.46776E-32
5.99684E-01 2.30879E-32
6.03956E-01 2.15982E-32
6.08220E-01 2.02024E-32
6.12476E-01 1.88946E-32
6.16723E-01 1.76694E-32
6.20961E-01 1.65216E-32
6.25190E-01 1.54465E-32
6.29410E-01 1.44395E-32
6.33619E-01 1.34963E-32
6.37819E-01 1.26132E-32
6.42008E-01 1.17862E-32
6.46186E-01 1.10119E-32
6.50353E-01 1.02870E-32
6.54508E-01 9.60839E-33
6.58652E-01 8.97326E-33
6.62784E-01 8.37883E-33
6.66903E-01 7.82255E-33
6.71010E-01 7.30202E-33
6.75104E-01 6.81502E-33
6.79184E-01 6.35950E-33
6.83251E-01 5.93334E-33
6.87303E-01 5.53482E-33
6.91342E-01 5.16213E-33
6.95366E-01 4.81363E-33
6.99375E-01 4.48787E-33
7.03368E-01 4.18331E-33
7.07347E-01 3.89869E-33
7.11309E-01 3.63270E-33
7.15256E-01 3.38417E-33
7.19186E-01 3.15199E-33
7.23099E-01 2.93505E-33
7.26995E-01 2.73252E-33
7.30874E-01 2.54337E-33
7.34736E-01 2.36679E-33
7.38579E-01 2.20192E-33
7.42405E-01 2.04805E-33
7.46212E-01 1.90448E-33
7.50000E-01 1.77053E-33
7.53769E-01 1.64558E-33
7.57519E-01 1.52904E-33
7.61249E-01 1.42035E-33
7.64960E-01 1.31906E-33
7.68650E-01 1.22463E-33
7.72320E-01 1.13663E-33
7.75968E-01 1.05464E-33
7.79596E-01 9.78282E-34
7.83203E-01 9.07145E-34
7.86788E-01 8.40939E-34
7.90351E-01 7.79312E-34
7.93893E-01 7.21959E-34
7.97411E-01 6.68595E-34
8.00908E-01 6.18959E-34
8.04381E-01 5.72810E-34
8.07831E-01 5.29899E-34
8.11257E-01 4.90030E-34
8.14660E-01 4.52980E-34
8.18039E-01 4.18575E-34
8.21394E-01 3.86614E-34
8.24724E-01 3.56960E-34
8.28030E-01 3.29431E-34
8.31310E-01 3.03902E-34
8.34565E-01 2.80223E-34
8.37795E-01 2.58280E-34
8.40999E-01 2.37935E-34
8.44177E-01 2.19097E-34
8.47329E-01 2.01648E-34
8.50455E-01 1.85499E-34
8.53553E-01 1.70551E-34
8.56625E-01 1.56734E-34
8.59670E-01 1.43952E-34
8.62687E-01 1.32148E-34
8.65677E-01 1.21239E-34
8.68639E-01 1.11166E-34
8.71572E-01 1.01869E-34
8.74478E-01 9.32961E-35
8.77355E-01 8.53959E-35
8.80203E-01 7.81078E-35
8.83022E-01 7.13993E-35
8.85812E-01 6.52253E-35
8.88573E-01 5.95402E-35
8.91304E-01 5.43166E-35
8.94005E-01 4.95194E-35
8.96677E-01 4.51084E-35
8.99318E-01 4.10642E-35
9.01928E-01 3.73505E-35
9.04508E-01 3.39506E-35
9.07058E-01 3.08341E-35
9.09576E-01 2.79812E-35
9.12063E-01 2.53744E-35
9.14519E-01 2.29893E-35
9.16943E-01 2.08106E-35
9.19335E-01 1.88245E-35
9.21696E-01 1.70134E-35
9.24024E-01 1.53613E-35
9.26320E-01 1.38593E-35
9.28584E-01 1.24919E-35
9.30815E-01 1.12506E-35
9.33013E-01 1.01227E-35
9.35178E-01 9.09964E-36
9.37310E-01 8.17501E-36
9.39409E-01 7.33432E-36
9.41474E-01 6.57654E-36
9.43505E-01 5.89123E-36
9.45503E-01 5.27371E-36
9.47467E-01 4.71537E-36
9.49397E-01 4.21423E-36
9.51293E-01 3.76301E-36
9.53154E-01 3.35700E-36
9.54981E-01 2.99345E-36
9.56773E-01 2.66758E-36
9.58530E-01 2.37602E-36
9.60252E-01 2.11420E-36
9.61940E-01 1.88146E-36
9.63592E-01 1.67336E-36
9.65209E-01 1.48843E-36
9.66790E-01 1.32303E-36
9.68336E-01 1.17682E-36
9.69846E-01 1.04620E-36
9.71321E-01 9.30587E-37
9.72759E-01 8.28022E-37
9.74162E-01 7.37031E-37
9.75528E-01 6.56448E-37
9.76858E-01 5.85021E-37
9.78152E-01 5.21848E-37
9.79410E-01 4.65774E-37
9.80631E-01 4.16159E-37
9.81815E-01 3.72136E-37
9.82963E-01 3.33126E-37
9.84074E-01 2.98423E-37
9.85148E-01 2.67522E-37
9.86185E-01 2.39980E-37
9.87185E-01 2.15384E-37
9.88148E-01 1.93289E-37
9.89074E-01 1.73485E-37
9.89962E-01 1.55604E-37
9.90814E-01 1.39440E-37
9.91627E-01 1.24815E-37
9.92404E-01 1.11352E-37
9.93143E-01 9.91294E-38
9.93844E-01 8.80472E-38
9.94508E-01 7.77173E-38
9.95134E-01 6.83181E-38
9.95722E-01 5.96598E-38
9.96273E-01 5.18582E-38
9.96786E-01 4.44456E-38
9.97261E-01 3.77872E-38
9.97698E-01 3.16618E-38
9.98097E-01 2.62387E-38
9.98459E-01 2.11552E-38
9.98782E-01 1.67562E-38
9.99067E-01 1.28191E-38
9.99315E-01 9.51383E-39
9.99524E-01 6.67751E-39
9.99695E-01 4.27702E-39
9.99829E-01 2.39502E-39
9.99924E-01 1.08337E-39
9.99981E-01 2.93888E-40
1.00000E+00 1.93053E-41
