 #
 # Subroutine ELSEPA. Elastic scattering of electrons and positrons
 #                    by neutral atoms and positive ions
 #
 # Projectile: electron
 # Kinetic energy = 1.75000E+07 eV = 6.43113E+05 a.u.
 #
 # WARNING: High-energy factorization with free-atom DF screening.
 #          Absorption, polarization and exchange corrections are
 #          switched off.
 #          Phase shifts are calculated for the bare nucleus.
 #          Scattering amplitudes are not evaluated.
 #
 # Element: Be,  Z =   4,  atomic weight = 9.01220E+00 g/mol
 #
 # Nuclear model: Fermi distribution
 #                Average radius = 2.22669E-13 cm
 #                Skin thickness = 5.46000E-14 cm
 #
 # Number of electrons =  4
 #
 # Total elastic cross section = 1.70117E-19 cm**2 = 6.07500E-03 a0**2
 # 1st transport cross section = 9.64028E-26 cm**2 = 3.44261E-09 a0**2
 # 2nd transport cross section = 2.79512E-25 cm**2 = 9.98155E-09 a0**2
 #
 #
 # Differential cross section:                       MU=(1-COS(THETA))/2
 #
 #  THETA        MU          DCS          DCS        Sherman      error
 #  (deg)                 (cm**2/sr)   (a0**2/sr)    function
 #----------------------------------------------------------------------
0.00000E+00 1.15832E-12
7.61557E-13 1.15819E-12
1.18994E-12 1.15812E-12
1.71346E-12 1.15803E-12
2.33225E-12 1.15792E-12
3.04617E-12 1.15780E-12
3.85530E-12 1.15767E-12
4.75964E-12 1.15751E-12
5.75917E-12 1.15734E-12
6.85391E-12 1.15716E-12
8.04379E-12 1.15696E-12
9.32893E-12 1.15674E-12
1.07092E-11 1.15651E-12
1.21847E-11 1.15626E-12
1.37554E-11 1.15600E-12
1.54213E-11 1.15571E-12
1.71823E-11 1.15542E-12
1.90386E-11 1.15511E-12
2.09900E-11 1.15478E-12
2.30367E-11 1.15443E-12
2.51785E-11 1.15407E-12
2.74156E-11 1.15370E-12
2.97478E-11 1.15331E-12
3.21752E-11 1.15290E-12
3.46979E-11 1.15248E-12
3.73157E-11 1.15204E-12
4.00286E-11 1.15158E-12
4.28368E-11 1.15111E-12
4.57402E-11 1.15063E-12
4.87388E-11 1.15012E-12
5.18325E-11 1.14961E-12
5.50215E-11 1.14907E-12
5.83057E-11 1.14852E-12
6.16850E-11 1.14796E-12
6.51595E-11 1.14738E-12
6.87293E-11 1.14679E-12
7.23943E-11 1.14618E-12
7.61544E-11 1.14555E-12
1.18991E-10 1.13845E-12
1.71347E-10 1.12986E-12
2.33223E-10 1.11981E-12
3.04617E-10 1.10836E-12
3.85531E-10 1.09558E-12
4.75965E-10 1.08152E-12
5.75917E-10 1.06626E-12
6.85389E-10 1.04987E-12
8.04380E-10 1.03242E-12
9.32891E-10 1.01402E-12
1.07092E-09 9.94744E-13
1.21847E-09 9.74654E-13
1.37554E-09 9.53861E-13
1.54213E-09 9.32456E-13
1.71823E-09 9.10519E-13
1.90386E-09 8.88117E-13
2.09900E-09 8.65359E-13
2.30367E-09 8.42327E-13
2.51785E-09 8.19085E-13
2.74156E-09 7.95705E-13
2.97478E-09 7.72279E-13
3.21752E-09 7.48875E-13
3.46978E-09 7.25533E-13
3.73156E-09 7.02328E-13
4.00286E-09 6.79325E-13
4.28368E-09 6.56577E-13
4.57402E-09 6.34099E-13
4.87388E-09 6.11700E-13
5.18326E-09 5.89412E-13
5.50215E-09 5.67735E-13
5.83057E-09 5.46684E-13
6.16850E-09 5.26268E-13
6.51596E-09 5.06493E-13
6.87293E-09 4.87360E-13
7.23942E-09 4.68868E-13
7.61544E-09 4.50503E-13
1.18991E-08 2.96068E-13
1.71347E-08 1.91673E-13
2.33223E-08 1.24528E-13
3.04617E-08 8.22485E-14
3.85531E-08 5.56809E-14
4.75965E-08 3.87481E-14
5.75917E-08 2.77367E-14
6.85389E-08 2.04267E-14
8.04380E-08 1.54332E-14
9.32891E-08 1.19293E-14
1.07092E-07 9.41041E-15
1.21847E-07 7.55698E-15
1.37554E-07 6.16812E-15
1.54213E-07 5.10394E-15
1.71823E-07 4.27322E-15
1.90386E-07 3.61361E-15
2.09900E-07 3.08257E-15
2.30367E-07 2.65007E-15
2.51785E-07 2.29405E-15
2.74156E-07 1.99815E-15
2.97478E-07 1.75020E-15
3.21752E-07 1.54065E-15
3.46978E-07 1.36190E-15
3.73156E-07 1.20853E-15
4.00286E-07 1.07632E-15
4.28368E-07 9.61821E-16
4.57402E-07 8.62045E-16
4.87388E-07 7.74434E-16
5.18325E-07 6.97459E-16
5.50215E-07 6.30534E-16
5.83057E-07 5.71537E-16
6.16850E-07 5.18297E-16
6.51596E-07 4.71527E-16
6.87293E-07 4.30170E-16
7.23942E-07 3.92471E-16
7.61543E-07 3.59055E-16
1.18991E-06 1.60635E-16
1.71347E-06 8.12311E-17
2.33223E-06 4.50199E-17
3.04617E-06 2.68034E-17
3.85531E-06 1.68932E-17
4.75964E-06 1.11507E-17
5.75916E-06 7.64637E-18
6.85388E-06 5.41330E-18
8.04378E-06 3.93745E-18
9.32888E-06 2.93122E-18
1.07092E-05 2.22644E-18
1.21846E-05 1.72109E-18
1.37553E-05 1.35121E-18
1.54212E-05 1.07550E-18
1.71822E-05 8.66610E-19
1.90385E-05 7.06671E-19
2.09899E-05 5.81376E-19
2.30365E-05 4.82516E-19
2.51783E-05 4.03759E-19
2.74153E-05 3.40461E-19
2.97475E-05 2.89155E-19
3.21749E-05 2.47215E-19
3.46974E-05 2.12646E-19
3.73152E-05 1.83922E-19
4.00281E-05 1.59879E-19
4.28362E-05 1.39620E-19
4.57395E-05 1.22452E-19
4.87380E-05 1.07834E-19
5.18317E-05 9.53316E-20
5.50205E-05 8.45943E-20
5.83045E-05 7.53343E-20
6.16838E-05 6.73140E-20
6.51582E-05 6.03367E-20
6.87277E-05 5.42408E-20
7.23925E-05 4.88935E-20
7.61524E-05 4.41857E-20
9.21439E-05 3.01739E-20
1.09658E-04 2.13115E-20
1.28695E-04 1.54728E-20
1.49255E-04 1.15045E-20
1.71338E-04 8.73141E-21
1.94942E-04 6.74469E-21
2.20070E-04 5.29327E-21
2.46720E-04 4.21146E-21
2.74892E-04 3.39278E-21
3.04586E-04 2.76365E-21
3.35803E-04 2.27375E-21
3.68542E-04 1.88790E-21
4.02802E-04 1.58041E-21
4.38585E-04 1.33315E-21
4.75889E-04 1.13236E-21
5.14715E-04 9.68010E-22
5.55063E-04 8.32440E-22
5.96931E-04 7.19768E-22
6.40321E-04 6.25562E-22
6.85233E-04 5.46255E-22
7.31665E-04 4.79141E-22
7.79618E-04 4.22023E-22
8.29092E-04 3.73165E-22
8.80086E-04 3.31186E-22
9.32601E-04 2.94940E-22
9.86636E-04 2.63527E-22
1.04219E-03 2.36183E-22
1.09927E-03 2.12297E-22
1.15786E-03 1.91358E-22
1.21797E-03 1.72935E-22
1.27961E-03 1.56680E-22
1.34276E-03 1.42289E-22
1.40743E-03 1.29514E-22
1.47362E-03 1.18141E-22
1.54133E-03 1.07989E-22
1.61056E-03 9.89059E-23
1.68131E-03 9.07568E-23
1.75357E-03 8.34310E-23
1.82735E-03 7.68293E-23
1.90265E-03 7.08679E-23
1.97947E-03 6.54740E-23
2.05780E-03 6.05832E-23
2.13765E-03 5.61413E-23
2.21902E-03 5.20987E-23
2.30190E-03 4.84138E-23
2.38630E-03 4.50490E-23
2.47222E-03 4.19714E-23
2.55965E-03 3.91525E-23
2.64859E-03 3.65660E-23
2.73905E-03 3.41898E-23
2.83103E-03 3.20035E-23
2.92452E-03 2.99892E-23
3.01952E-03 2.81310E-23
3.11604E-03 2.64144E-23
3.21407E-03 2.48269E-23
3.31362E-03 2.33568E-23
3.41468E-03 2.19939E-23
3.51725E-03 2.07291E-23
3.62133E-03 1.95538E-23
3.72692E-03 1.84607E-23
3.83403E-03 1.74429E-23
3.94265E-03 1.64943E-23
4.05278E-03 1.56093E-23
4.16442E-03 1.47829E-23
4.27757E-03 1.40105E-23
4.39223E-03 1.32878E-23
4.50840E-03 1.26112E-23
4.62608E-03 1.19770E-23
4.74527E-03 1.13822E-23
4.86597E-03 1.08239E-23
4.98817E-03 1.02994E-23
5.11188E-03 9.80635E-24
5.23711E-03 9.34239E-24
5.36383E-03 8.90556E-24
5.49207E-03 8.49396E-24
5.62181E-03 8.10586E-24
5.75306E-03 7.73968E-24
5.88581E-03 7.39393E-24
6.02007E-03 7.06728E-24
6.15583E-03 6.75846E-24
6.29310E-03 6.46633E-24
6.43187E-03 6.18981E-24
6.57214E-03 5.92791E-24
6.71392E-03 5.67972E-24
6.85720E-03 5.44437E-24
7.00198E-03 5.22109E-24
7.14827E-03 5.00913E-24
7.29605E-03 4.80782E-24
7.44534E-03 4.61652E-24
7.59612E-03 4.43463E-24
7.97965E-03 4.01760E-24
8.37255E-03 3.64845E-24
8.77480E-03 3.32072E-24
9.18641E-03 3.02896E-24
9.60736E-03 2.76854E-24
1.00376E-02 2.53551E-24
1.04773E-02 2.32647E-24
1.09262E-02 2.13852E-24
1.13844E-02 1.96917E-24
1.18520E-02 1.81624E-24
1.23288E-02 1.67787E-24
1.28150E-02 1.55241E-24
1.33104E-02 1.43846E-24
1.38150E-02 1.33476E-24
1.43290E-02 1.24024E-24
1.48521E-02 1.15392E-24
1.53845E-02 1.07498E-24
1.59262E-02 1.00267E-24
1.64770E-02 9.36335E-25
1.70371E-02 8.75388E-25
1.76063E-02 8.19313E-25
1.81848E-02 7.67652E-25
1.87724E-02 7.19994E-25
1.93692E-02 6.75972E-25
1.99751E-02 6.35259E-25
2.05901E-02 5.97561E-25
2.12143E-02 5.62614E-25
2.18476E-02 5.30180E-25
2.24900E-02 5.00046E-25
2.31415E-02 4.72020E-25
2.38021E-02 4.45925E-25
2.44717E-02 4.21606E-25
2.51504E-02 3.98919E-25
2.58382E-02 3.77734E-25
2.65349E-02 3.57934E-25
2.72407E-02 3.39412E-25
2.79555E-02 3.22070E-25
2.86793E-02 3.05818E-25
2.94120E-02 2.90576E-25
3.01537E-02 2.76270E-25
3.09043E-02 2.62831E-25
3.16639E-02 2.50197E-25
3.24324E-02 2.38310E-25
3.32098E-02 2.27120E-25
3.39961E-02 2.16576E-25
3.47912E-02 2.06636E-25
3.55952E-02 1.97257E-25
3.64081E-02 1.88403E-25
3.72297E-02 1.80038E-25
3.80602E-02 1.72131E-25
3.88995E-02 1.64651E-25
3.97476E-02 1.57572E-25
4.06044E-02 1.50868E-25
4.14700E-02 1.44515E-25
4.23443E-02 1.38491E-25
4.32273E-02 1.32777E-25
4.41190E-02 1.27354E-25
4.50194E-02 1.22203E-25
4.59284E-02 1.17309E-25
4.68461E-02 1.12656E-25
4.87074E-02 1.04019E-25
5.06030E-02 9.61908E-26
5.25328E-02 8.90813E-26
5.44967E-02 8.26133E-26
5.64946E-02 7.67187E-26
5.85262E-02 7.13375E-26
6.05914E-02 6.64171E-26
6.26901E-02 6.19111E-26
6.48222E-02 5.77783E-26
6.69873E-02 5.39824E-26
6.91854E-02 5.04909E-26
7.14163E-02 4.72751E-26
7.36799E-02 4.43093E-26
7.59760E-02 4.15707E-26
7.83043E-02 3.90386E-26
8.06647E-02 3.66948E-26
8.30571E-02 3.45227E-26
8.54812E-02 3.25074E-26
8.79369E-02 3.06357E-26
9.04240E-02 2.88954E-26
9.29422E-02 2.72757E-26
9.54915E-02 2.57667E-26
9.80716E-02 2.43595E-26
1.00682E-01 2.30459E-26
1.03323E-01 2.18187E-26
1.05995E-01 2.06711E-26
1.08696E-01 1.95970E-26
1.11427E-01 1.85908E-26
1.14188E-01 1.76476E-26
1.16978E-01 1.67626E-26
1.19797E-01 1.59316E-26
1.22645E-01 1.51507E-26
1.25522E-01 1.44164E-26
1.28428E-01 1.37253E-26
1.31361E-01 1.30745E-26
1.34323E-01 1.24611E-26
1.37313E-01 1.18827E-26
1.40330E-01 1.13369E-26
1.43375E-01 1.08215E-26
1.46447E-01 1.03346E-26
1.49545E-01 9.87418E-27
1.52671E-01 9.43865E-27
1.55823E-01 9.02639E-27
1.59001E-01 8.63593E-27
1.62205E-01 8.26593E-27
1.65435E-01 7.91510E-27
1.68690E-01 7.58228E-27
1.71970E-01 7.26637E-27
1.75276E-01 6.96637E-27
1.78606E-01 6.68132E-27
1.81961E-01 6.41036E-27
1.85340E-01 6.15265E-27
1.88743E-01 5.90743E-27
1.92169E-01 5.67399E-27
1.95619E-01 5.45166E-27
1.99092E-01 5.23981E-27
2.02589E-01 5.03787E-27
2.06107E-01 4.84529E-27
2.09649E-01 4.66155E-27
2.13212E-01 4.48618E-27
2.16797E-01 4.31873E-27
2.20404E-01 4.15877E-27
2.24032E-01 4.00592E-27
2.27680E-01 3.85979E-27
2.31350E-01 3.72005E-27
2.35040E-01 3.58636E-27
2.38751E-01 3.45841E-27
2.42481E-01 3.33591E-27
2.46231E-01 3.21859E-27
2.50000E-01 3.10619E-27
2.53788E-01 2.99847E-27
2.57595E-01 2.89520E-27
2.61421E-01 2.79617E-27
2.65264E-01 2.70116E-27
2.69126E-01 2.60998E-27
2.73005E-01 2.52246E-27
2.76901E-01 2.43842E-27
2.80814E-01 2.35770E-27
2.84744E-01 2.28015E-27
2.88691E-01 2.20561E-27
2.92653E-01 2.13395E-27
2.96632E-01 2.06504E-27
3.00625E-01 1.99876E-27
3.04634E-01 1.93498E-27
3.08658E-01 1.87361E-27
3.12697E-01 1.81452E-27
3.16749E-01 1.75762E-27
3.20816E-01 1.70282E-27
3.24896E-01 1.65002E-27
3.28990E-01 1.59914E-27
3.33097E-01 1.55010E-27
3.37216E-01 1.50281E-27
3.41348E-01 1.45722E-27
3.45492E-01 1.41323E-27
3.49647E-01 1.37079E-27
3.53814E-01 1.32984E-27
3.57992E-01 1.29031E-27
3.62181E-01 1.25214E-27
3.66381E-01 1.21529E-27
3.70590E-01 1.17969E-27
3.74810E-01 1.14530E-27
3.79039E-01 1.11207E-27
3.83277E-01 1.07995E-27
3.87524E-01 1.04890E-27
3.91780E-01 1.01888E-27
3.96044E-01 9.89842E-28
4.00316E-01 9.61759E-28
4.04596E-01 9.34590E-28
4.08882E-01 9.08300E-28
4.13176E-01 8.82856E-28
4.17476E-01 8.58226E-28
4.21783E-01 8.34380E-28
4.26095E-01 8.11288E-28
4.30413E-01 7.88924E-28
4.34737E-01 7.67259E-28
4.39065E-01 7.46269E-28
4.43398E-01 7.25929E-28
4.47736E-01 7.06216E-28
4.52077E-01 6.87106E-28
4.56422E-01 6.68580E-28
4.60770E-01 6.50615E-28
4.65122E-01 6.33192E-28
4.69476E-01 6.16293E-28
4.73832E-01 5.99898E-28
4.78190E-01 5.83991E-28
4.82550E-01 5.68554E-28
4.86912E-01 5.53571E-28
4.91274E-01 5.39027E-28
4.95637E-01 5.24907E-28
5.00000E-01 5.11196E-28
5.04363E-01 4.97882E-28
5.08726E-01 4.84949E-28
5.13088E-01 4.72387E-28
5.17450E-01 4.60182E-28
5.21810E-01 4.48323E-28
5.26168E-01 4.36798E-28
5.30524E-01 4.25597E-28
5.34878E-01 4.14708E-28
5.39230E-01 4.04123E-28
5.43578E-01 3.93831E-28
5.47923E-01 3.83823E-28
5.52264E-01 3.74089E-28
5.56602E-01 3.64622E-28
5.60935E-01 3.55412E-28
5.65263E-01 3.46452E-28
5.69587E-01 3.37733E-28
5.73905E-01 3.29249E-28
5.78217E-01 3.20992E-28
5.82524E-01 3.12955E-28
5.86824E-01 3.05132E-28
5.91118E-01 2.97515E-28
5.95404E-01 2.90099E-28
5.99684E-01 2.82877E-28
6.03956E-01 2.75844E-28
6.08220E-01 2.68994E-28
6.12476E-01 2.62322E-28
6.16723E-01 2.55822E-28
6.20961E-01 2.49489E-28
6.25190E-01 2.43318E-28
6.29410E-01 2.37305E-28
6.33619E-01 2.31445E-28
6.37819E-01 2.25733E-28
6.42008E-01 2.20166E-28
6.46186E-01 2.14739E-28
6.50353E-01 2.09448E-28
6.54508E-01 2.04289E-28
6.58652E-01 1.99258E-28
6.62784E-01 1.94353E-28
6.66903E-01 1.89569E-28
6.71010E-01 1.84902E-28
6.75104E-01 1.80351E-28
6.79184E-01 1.75911E-28
6.83251E-01 1.71579E-28
6.87303E-01 1.67352E-28
6.91342E-01 1.63228E-28
6.95366E-01 1.59204E-28
6.99375E-01 1.55277E-28
7.03368E-01 1.51444E-28
7.07347E-01 1.47704E-28
7.11309E-01 1.44052E-28
7.15256E-01 1.40488E-28
7.19186E-01 1.37008E-28
7.23099E-01 1.33610E-28
7.26995E-01 1.30293E-28
7.30874E-01 1.27055E-28
7.34736E-01 1.23892E-28
7.38579E-01 1.20803E-28
7.42405E-01 1.17787E-28
7.46212E-01 1.14841E-28
7.50000E-01 1.11963E-28
7.53769E-01 1.09152E-28
7.57519E-01 1.06407E-28
7.61249E-01 1.03725E-28
7.64960E-01 1.01104E-28
7.68650E-01 9.85443E-29
7.72320E-01 9.60429E-29
7.75968E-01 9.35990E-29
7.79596E-01 9.12109E-29
7.83203E-01 8.88772E-29
7.86788E-01 8.65968E-29
7.90351E-01 8.43682E-29
7.93893E-01 8.21903E-29
7.97411E-01 8.00616E-29
8.00908E-01 7.79811E-29
8.04381E-01 7.59477E-29
8.07831E-01 7.39601E-29
8.11257E-01 7.20173E-29
8.14660E-01 7.01182E-29
8.18039E-01 6.82618E-29
8.21394E-01 6.64471E-29
8.24724E-01 6.46731E-29
8.28030E-01 6.29388E-29
8.31310E-01 6.12434E-29
8.34565E-01 5.95858E-29
8.37795E-01 5.79654E-29
8.40999E-01 5.63812E-29
8.44177E-01 5.48324E-29
8.47329E-01 5.33181E-29
8.50455E-01 5.18377E-29
8.53553E-01 5.03903E-29
8.56625E-01 4.89752E-29
8.59670E-01 4.75917E-29
8.62687E-01 4.62391E-29
8.65677E-01 4.49168E-29
8.68639E-01 4.36239E-29
8.71572E-01 4.23600E-29
8.74478E-01 4.11244E-29
8.77355E-01 3.99165E-29
8.80203E-01 3.87357E-29
8.83022E-01 3.75813E-29
8.85812E-01 3.64530E-29
8.88573E-01 3.53500E-29
8.91304E-01 3.42719E-29
8.94005E-01 3.32183E-29
8.96677E-01 3.21884E-29
8.99318E-01 3.11820E-29
9.01928E-01 3.01984E-29
9.04508E-01 2.92374E-29
9.07058E-01 2.82982E-29
9.09576E-01 2.73807E-29
9.12063E-01 2.64843E-29
9.14519E-01 2.56086E-29
9.16943E-01 2.47532E-29
9.19335E-01 2.39177E-29
9.21696E-01 2.31018E-29
9.24024E-01 2.23051E-29
9.26320E-01 2.15272E-29
9.28584E-01 2.07677E-29
9.30815E-01 2.00264E-29
9.33013E-01 1.93028E-29
9.35178E-01 1.85967E-29
9.37310E-01 1.79078E-29
9.39409E-01 1.72357E-29
9.41474E-01 1.65802E-29
9.43505E-01 1.59410E-29
9.45503E-01 1.53177E-29
9.47467E-01 1.47101E-29
9.49397E-01 1.41180E-29
9.51293E-01 1.35411E-29
9.53154E-01 1.29792E-29
9.54981E-01 1.24319E-29
9.56773E-01 1.18991E-29
9.58530E-01 1.13806E-29
9.60252E-01 1.08760E-29
9.61940E-01 1.03853E-29
9.63592E-01 9.90818E-30
9.65209E-01 9.44447E-30
9.66790E-01 8.99391E-30
9.68336E-01 8.55642E-30
9.69846E-01 8.13171E-30
9.71321E-01 7.71968E-30
9.72759E-01 7.32012E-30
9.74162E-01 6.93286E-30
9.75528E-01 6.55776E-30
9.76858E-01 6.19465E-30
9.78152E-01 5.84340E-30
9.79410E-01 5.50383E-30
9.80631E-01 5.17583E-30
9.81815E-01 4.85925E-30
9.82963E-01 4.55399E-30
9.84074E-01 4.25988E-30
9.85148E-01 3.97682E-30
9.86185E-01 3.70469E-30
9.87185E-01 3.44339E-30
9.88148E-01 3.19283E-30
9.89074E-01 2.95286E-30
9.89962E-01 2.72343E-30
9.90814E-01 2.50442E-30
9.91627E-01 2.29575E-30
9.92404E-01 2.09735E-30
9.93143E-01 1.90912E-30
9.93844E-01 1.73097E-30
9.94508E-01 1.56288E-30
9.95134E-01 1.40473E-30
9.95722E-01 1.25648E-30
9.96273E-01 1.11806E-30
9.96786E-01 9.89452E-31
9.97261E-01 8.70555E-31
9.97698E-01 7.61353E-31
9.98097E-01 6.61774E-31
9.98459E-01 5.71820E-31
9.98782E-01 4.91416E-31
9.99067E-01 4.20548E-31
9.99315E-01 3.59175E-31
9.99524E-01 3.07304E-31
9.99695E-01 2.64890E-31
9.99829E-01 2.31917E-31
9.99924E-01 2.08372E-31
9.99981E-01 1.94259E-31
1.00000E+00 1.89571E-31
