 #
 # Subroutine ELSEPA. Elastic scattering of electrons and positrons
 #                    by neutral atoms and positive ions
 #
 # Projectile: electron
 # Kinetic energy = 4.00000E+08 eV = 1.46997E+07 a.u.
 #
 # WARNING: High-energy factorization with free-atom DF screening.
 #          Absorption, polarization and exchange corrections are
 #          switched off.
 #          Phase shifts are calculated for the bare nucleus.
 #          Scattering amplitudes are not evaluated.
 #
 # Element: Be,  Z =   4,  atomic weight = 9.01220E+00 g/mol
 #
 # Nuclear model: Fermi distribution
 #                Average radius = 2.22669E-13 cm
 #                Skin thickness = 5.46000E-14 cm
 #
 # Number of electrons =  4
 #
 # Total elastic cross section = 1.70164E-19 cm**2 = 6.07666E-03 a0**2
 # 1st transport cross section = 2.32361E-28 cm**2 = 8.29776E-12 a0**2
 # 2nd transport cross section = 6.96116E-28 cm**2 = 2.48588E-11 a0**2
 #
 #
 # Differential cross section:                       MU=(1-COS(THETA))/2
 #
 #  THETA        MU          DCS          DCS        Sherman      error
 #  (deg)                 (cm**2/sr)   (a0**2/sr)    function
 #----------------------------------------------------------------------
0.00000E+00 5.72771E-10
7.61557E-13 5.42417E-10
1.18994E-12 5.26279E-10
1.71346E-12 5.07409E-10
2.33225E-12 4.86243E-10
3.04617E-12 4.63256E-10
3.85530E-12 4.38920E-10
4.75964E-12 4.13697E-10
5.75917E-12 3.88020E-10
6.85391E-12 3.62275E-10
8.04379E-12 3.36822E-10
9.32893E-12 3.11958E-10
1.07092E-11 2.87463E-10
1.21847E-11 2.64295E-10
1.37554E-11 2.42687E-10
1.54213E-11 2.22374E-10
1.71823E-11 2.02857E-10
1.90386E-11 1.84956E-10
2.09900E-11 1.68592E-10
2.30367E-11 1.53273E-10
2.51785E-11 1.39193E-10
2.74156E-11 1.26428E-10
2.97478E-11 1.14835E-10
3.21752E-11 1.04156E-10
3.46979E-11 9.45142E-11
3.73157E-11 8.58123E-11
4.00286E-11 7.79276E-11
4.28368E-11 7.07941E-11
4.57402E-11 6.43590E-11
4.87388E-11 5.85534E-11
5.18325E-11 5.33351E-11
5.50215E-11 4.86211E-11
5.83057E-11 4.43602E-11
6.16850E-11 4.05308E-11
6.51595E-11 3.70868E-11
6.87293E-11 3.39652E-11
7.23943E-11 3.11334E-11
7.61544E-11 2.86079E-11
1.18991E-10 1.31892E-11
1.71347E-10 6.95863E-12
2.33223E-10 4.09605E-12
3.04617E-10 2.62013E-12
3.85531E-10 1.78059E-12
4.75965E-10 1.26390E-12
5.75917E-10 9.27782E-13
6.85389E-10 6.98892E-13
8.04380E-10 5.37094E-13
9.32891E-10 4.19656E-13
1.07092E-09 3.32118E-13
1.21847E-09 2.66558E-13
1.37554E-09 2.16279E-13
1.54213E-09 1.76871E-13
1.71823E-09 1.46023E-13
1.90386E-09 1.21565E-13
2.09900E-09 1.01842E-13
2.30367E-09 8.59067E-14
2.51785E-09 7.29449E-14
2.74156E-09 6.22851E-14
2.97478E-09 5.34577E-14
3.21752E-09 4.61286E-14
3.46978E-09 4.00005E-14
3.73156E-09 3.48282E-14
4.00286E-09 3.04601E-14
4.28368E-09 2.67505E-14
4.57402E-09 2.35782E-14
4.87388E-09 2.08573E-14
5.18326E-09 1.85153E-14
5.50215E-09 1.64895E-14
5.83057E-09 1.47293E-14
6.16850E-09 1.31967E-14
6.51596E-09 1.18571E-14
6.87293E-09 1.06810E-14
7.23942E-09 9.64639E-15
7.61544E-09 8.73353E-15
1.18991E-08 3.61716E-15
1.71347E-08 1.75243E-15
2.33223E-08 9.47957E-16
3.04617E-08 5.56291E-16
3.85531E-08 3.47485E-16
4.75965E-08 2.28034E-16
5.75917E-08 1.55775E-16
6.85389E-08 1.10001E-16
8.04380E-08 7.98712E-17
9.32891E-08 5.93861E-17
1.07092E-07 4.50670E-17
1.21847E-07 3.48150E-17
1.37554E-07 2.73192E-17
1.54213E-07 2.17365E-17
1.71823E-07 1.75097E-17
1.90386E-07 1.42622E-17
2.09900E-07 1.17338E-17
2.30367E-07 9.74166E-18
2.51785E-07 8.15493E-18
2.74156E-07 6.87850E-18
2.97478E-07 5.84231E-18
3.21752E-07 4.99410E-18
3.46978E-07 4.29438E-18
3.73156E-07 3.71303E-18
4.00286E-07 3.22680E-18
4.28368E-07 2.81763E-18
4.57402E-07 2.47130E-18
4.87388E-07 2.17659E-18
5.18325E-07 1.92452E-18
5.50215E-07 1.70791E-18
5.83057E-07 1.52094E-18
6.16850E-07 1.35887E-18
6.51596E-07 1.21782E-18
6.87293E-07 1.09461E-18
7.23942E-07 9.86588E-19
7.61543E-07 8.91573E-19
1.18991E-06 3.65203E-19
1.71347E-06 1.76126E-19
2.33223E-06 9.50709E-20
3.04617E-06 5.57302E-20
3.85531E-06 3.47929E-20
4.75964E-06 2.28281E-20
5.75916E-06 1.55923E-20
6.85388E-06 1.10094E-20
8.04378E-06 7.99329E-21
9.32888E-06 5.94287E-21
1.07092E-05 4.50975E-21
1.21846E-05 3.48375E-21
1.37553E-05 2.73364E-21
1.54212E-05 2.17498E-21
1.71822E-05 1.75203E-21
1.90385E-05 1.42707E-21
2.09899E-05 1.17506E-21
2.30365E-05 9.75145E-22
2.51783E-05 8.15903E-22
2.74153E-05 6.87939E-22
2.97475E-05 5.84230E-22
3.21749E-05 4.99467E-22
3.46974E-05 4.29607E-22
3.73152E-05 3.71564E-22
4.00281E-05 3.22980E-22
4.28362E-05 2.82044E-22
4.57395E-05 2.47356E-22
4.87380E-05 2.17819E-22
5.18317E-05 1.92559E-22
5.50205E-05 1.70866E-22
5.83045E-05 1.52159E-22
6.16838E-05 1.35957E-22
6.51582E-05 1.21863E-22
6.87277E-05 1.09550E-22
7.23925E-05 9.87485E-23
7.61524E-05 8.89749E-23
9.21439E-05 6.07183E-23
1.09658E-04 4.28540E-23
1.28695E-04 3.10890E-23
1.49255E-04 2.30965E-23
1.71338E-04 1.75138E-23
1.94942E-04 1.35160E-23
2.20070E-04 1.05968E-23
2.46720E-04 8.42217E-24
2.74892E-04 6.77739E-24
3.04586E-04 5.51417E-24
3.35803E-04 4.53111E-24
3.68542E-04 3.75733E-24
4.02802E-04 3.14110E-24
4.38585E-04 2.64593E-24
4.75889E-04 2.24412E-24
5.14715E-04 1.91547E-24
5.55063E-04 1.64459E-24
5.96931E-04 1.41964E-24
6.40321E-04 1.23173E-24
6.85233E-04 1.07367E-24
7.31665E-04 9.40033E-25
7.79618E-04 8.26410E-25
8.29092E-04 7.29312E-25
8.80086E-04 6.45969E-25
9.32601E-04 5.74082E-25
9.86636E-04 5.11847E-25
1.04219E-03 4.57734E-25
1.09927E-03 4.10517E-25
1.15786E-03 3.69174E-25
1.21797E-03 3.32842E-25
1.27961E-03 3.00826E-25
1.34276E-03 2.72515E-25
1.40743E-03 2.47417E-25
1.47362E-03 2.25103E-25
1.54133E-03 2.05212E-25
1.61056E-03 1.87439E-25
1.68131E-03 1.71516E-25
1.75357E-03 1.57224E-25
1.82735E-03 1.44362E-25
1.90265E-03 1.32766E-25
1.97947E-03 1.22291E-25
2.05780E-03 1.12807E-25
2.13765E-03 1.04208E-25
2.21902E-03 9.63947E-26
2.30190E-03 8.92847E-26
2.38630E-03 8.28036E-26
2.47222E-03 7.68860E-26
2.55965E-03 7.14756E-26
2.64859E-03 6.65203E-26
2.73905E-03 6.19764E-26
2.83103E-03 5.78035E-26
2.92452E-03 5.39662E-26
3.01952E-03 5.04333E-26
3.11604E-03 4.71761E-26
3.21407E-03 4.41700E-26
3.31362E-03 4.13919E-26
3.41468E-03 3.88220E-26
3.51725E-03 3.64419E-26
3.62133E-03 3.42351E-26
3.72692E-03 3.21873E-26
3.83403E-03 3.02847E-26
3.94265E-03 2.85155E-26
4.05278E-03 2.68688E-26
4.16442E-03 2.53347E-26
4.27757E-03 2.39042E-26
4.39223E-03 2.25691E-26
4.50840E-03 2.13222E-26
4.62608E-03 2.01565E-26
4.74527E-03 1.90659E-26
4.86597E-03 1.80448E-26
4.98817E-03 1.70880E-26
5.11188E-03 1.61909E-26
5.23711E-03 1.53491E-26
5.36383E-03 1.45587E-26
5.49207E-03 1.38159E-26
5.62181E-03 1.31175E-26
5.75306E-03 1.24605E-26
5.88581E-03 1.18418E-26
6.02007E-03 1.12591E-26
6.15583E-03 1.07098E-26
6.29310E-03 1.01917E-26
6.43187E-03 9.70278E-27
6.57214E-03 9.24112E-27
6.71392E-03 8.80500E-27
6.85720E-03 8.39274E-27
7.00198E-03 8.00287E-27
7.14827E-03 7.63396E-27
7.29605E-03 7.28472E-27
7.44534E-03 6.95395E-27
7.59612E-03 6.64050E-27
7.97965E-03 5.92604E-27
8.37255E-03 5.29909E-27
8.77480E-03 4.74747E-27
9.18641E-03 4.26091E-27
9.60736E-03 3.83072E-27
1.00376E-02 3.44949E-27
1.04773E-02 3.11094E-27
1.09262E-02 2.80966E-27
1.13844E-02 2.54104E-27
1.18520E-02 2.30108E-27
1.23288E-02 2.08636E-27
1.28150E-02 1.89388E-27
1.33104E-02 1.72108E-27
1.38150E-02 1.56570E-27
1.43290E-02 1.42578E-27
1.48521E-02 1.29961E-27
1.53845E-02 1.18568E-27
1.59262E-02 1.08267E-27
1.64770E-02 9.89433E-28
1.70371E-02 9.04931E-28
1.76063E-02 8.28264E-28
1.81848E-02 7.58630E-28
1.87724E-02 6.95321E-28
1.93692E-02 6.37705E-28
1.99751E-02 5.85222E-28
2.05901E-02 5.37371E-28
2.12143E-02 4.93706E-28
2.18476E-02 4.53828E-28
2.24900E-02 4.17380E-28
2.31415E-02 3.84043E-28
2.38021E-02 3.53527E-28
2.44717E-02 3.25577E-28
2.51504E-02 2.99958E-28
2.58382E-02 2.76462E-28
2.65349E-02 2.54899E-28
2.72407E-02 2.35100E-28
2.79555E-02 2.16909E-28
2.86793E-02 2.00188E-28
2.94120E-02 1.84810E-28
3.01537E-02 1.70660E-28
3.09043E-02 1.57634E-28
3.16639E-02 1.45638E-28
3.24324E-02 1.34585E-28
3.32098E-02 1.24398E-28
3.39961E-02 1.15005E-28
3.47912E-02 1.06340E-28
3.55952E-02 9.83452E-29
3.64081E-02 9.09658E-29
3.72297E-02 8.41523E-29
3.80602E-02 7.78596E-29
3.88995E-02 7.20461E-29
3.97476E-02 6.66740E-29
4.06044E-02 6.17084E-29
4.14700E-02 5.71177E-29
4.23443E-02 5.28724E-29
4.32273E-02 4.89459E-29
4.41190E-02 4.53135E-29
4.50194E-02 4.19525E-29
4.59284E-02 3.88421E-29
4.68461E-02 3.59632E-29
4.87074E-02 3.08308E-29
5.06030E-02 2.64304E-29
5.25328E-02 2.26561E-29
5.44967E-02 1.94175E-29
5.64946E-02 1.66381E-29
5.85262E-02 1.42522E-29
6.05914E-02 1.22039E-29
6.26901E-02 1.04454E-29
6.48222E-02 8.93573E-30
6.69873E-02 7.63986E-30
6.91854E-02 6.52771E-30
7.14163E-02 5.57346E-30
7.36799E-02 4.75496E-30
7.59760E-02 4.05316E-30
7.83043E-02 3.45171E-30
8.06647E-02 2.93653E-30
8.30571E-02 2.49550E-30
8.54812E-02 2.11820E-30
8.79369E-02 1.79566E-30
9.04240E-02 1.52015E-30
9.29422E-02 1.28503E-30
9.54915E-02 1.08457E-30
9.80716E-02 9.13834E-31
1.00682E-01 7.68587E-31
1.03323E-01 6.45172E-31
1.05995E-01 5.40448E-31
1.08696E-01 4.51710E-31
1.11427E-01 3.76635E-31
1.14188E-01 3.13223E-31
1.16978E-01 2.59760E-31
1.19797E-01 2.14771E-31
1.22645E-01 1.76992E-31
1.25522E-01 1.45339E-31
1.28428E-01 1.18885E-31
1.31361E-01 9.68333E-32
1.34323E-01 7.85056E-32
1.37313E-01 6.33210E-32
1.40330E-01 5.07843E-32
1.43375E-01 4.04734E-32
1.46447E-01 3.20292E-32
1.49545E-01 2.51465E-32
1.52671E-01 1.95661E-32
1.55823E-01 1.50689E-32
1.59001E-01 1.14692E-32
1.62205E-01 8.61061E-33
1.65435E-01 6.36133E-33
1.68690E-01 4.61070E-33
1.71970E-01 3.26598E-33
1.75276E-01 2.24968E-33
1.78606E-01 1.49730E-33
1.81961E-01 9.55312E-34
1.85340E-01 5.79435E-34
1.88743E-01 3.33243E-34
1.92169E-01 1.86886E-34
1.95619E-01 1.16050E-34
1.99092E-01 1.01051E-34
2.02589E-01 1.26067E-34
2.06107E-01 1.78499E-34
2.09649E-01 2.48409E-34
2.13212E-01 3.28055E-34
2.16797E-01 4.11504E-34
2.20404E-01 4.94299E-34
2.24032E-01 5.73177E-34
2.27680E-01 6.45836E-34
2.31350E-01 7.10749E-34
2.35040E-01 7.67003E-34
2.38751E-01 8.14140E-34
2.42481E-01 8.52094E-34
2.46231E-01 8.81054E-34
2.50000E-01 9.01414E-34
2.53788E-01 9.13726E-34
2.57595E-01 9.18601E-34
2.61421E-01 9.16760E-34
2.65264E-01 9.08894E-34
2.69126E-01 8.95739E-34
2.73005E-01 8.77990E-34
2.76901E-01 8.56333E-34
2.80814E-01 8.31410E-34
2.84744E-01 8.03819E-34
2.88691E-01 7.74116E-34
2.92653E-01 7.42811E-34
2.96632E-01 7.10350E-34
3.00625E-01 6.77155E-34
3.04634E-01 6.43571E-34
3.08658E-01 6.09935E-34
3.12697E-01 5.76508E-34
3.16749E-01 5.43527E-34
3.20816E-01 5.11194E-34
3.24896E-01 4.79671E-34
3.28990E-01 4.49095E-34
3.33097E-01 4.19576E-34
3.37216E-01 3.91191E-34
3.41348E-01 3.64006E-34
3.45492E-01 3.38064E-34
3.49647E-01 3.13385E-34
3.53814E-01 2.89981E-34
3.57992E-01 2.67855E-34
3.62181E-01 2.46990E-34
3.66381E-01 2.27367E-34
3.70590E-01 2.08956E-34
3.74810E-01 1.91721E-34
3.79039E-01 1.75626E-34
3.83277E-01 1.60628E-34
3.87524E-01 1.46676E-34
3.91780E-01 1.33732E-34
3.96044E-01 1.21735E-34
4.00316E-01 1.10644E-34
4.04596E-01 1.00409E-34
4.08882E-01 9.09772E-35
4.13176E-01 8.23028E-35
4.17476E-01 7.43374E-35
4.21783E-01 6.70359E-35
4.26095E-01 6.03547E-35
4.30413E-01 5.42528E-35
4.34737E-01 4.86852E-35
4.39065E-01 4.36158E-35
4.43398E-01 3.90078E-35
4.47736E-01 3.48228E-35
4.52077E-01 3.10321E-35
4.56422E-01 2.76021E-35
4.60770E-01 2.45038E-35
4.65122E-01 2.17100E-35
4.69476E-01 1.91958E-35
4.73832E-01 1.69358E-35
4.78190E-01 1.49089E-35
4.82550E-01 1.30938E-35
4.86912E-01 1.14714E-35
4.91274E-01 1.00250E-35
4.95637E-01 8.73615E-36
5.00000E-01 7.59234E-36
5.04363E-01 6.57711E-36
5.08726E-01 5.67942E-36
5.13088E-01 4.88782E-36
5.17450E-01 4.19071E-36
5.21810E-01 3.57836E-36
5.26168E-01 3.04238E-36
5.30524E-01 2.57450E-36
5.34878E-01 2.16752E-36
5.39230E-01 1.81441E-36
5.43578E-01 1.50944E-36
5.47923E-01 1.24715E-36
5.52264E-01 1.02214E-36
5.56602E-01 8.30709E-37
5.60935E-01 6.68298E-37
5.65263E-01 5.31701E-37
5.69587E-01 4.17353E-37
5.73905E-01 3.22539E-37
5.78217E-01 2.44734E-37
5.82524E-01 1.81583E-37
5.86824E-01 1.31116E-37
5.91118E-01 9.14513E-38
5.95404E-01 6.10992E-38
5.99684E-01 3.85972E-38
6.03956E-01 2.27080E-38
6.08220E-01 1.23397E-38
6.12476E-01 6.55042E-39
6.16723E-01 4.50702E-39
6.20961E-01 5.49834E-39
6.25190E-01 8.88348E-39
6.29410E-01 1.41460E-38
6.33619E-01 2.08028E-38
6.37819E-01 2.84834E-38
6.42008E-01 3.68602E-38
6.46186E-01 4.56353E-38
6.50353E-01 5.45678E-38
6.54508E-01 6.34426E-38
6.58652E-01 7.21941E-38
6.62784E-01 8.06190E-38
6.66903E-01 8.86424E-38
6.71010E-01 9.61339E-38
6.75104E-01 1.03089E-37
6.79184E-01 1.09598E-37
6.83251E-01 1.15337E-37
6.87303E-01 1.20577E-37
6.91342E-01 1.25137E-37
6.95366E-01 1.29036E-37
6.99375E-01 1.32435E-37
7.03368E-01 1.35153E-37
7.07347E-01 1.37390E-37
7.11309E-01 1.39041E-37
7.15256E-01 1.40229E-37
7.19186E-01 1.40933E-37
7.23099E-01 1.41008E-37
7.26995E-01 1.40908E-37
7.30874E-01 1.40333E-37
7.34736E-01 1.39465E-37
7.38579E-01 1.38161E-37
7.42405E-01 1.36573E-37
7.46212E-01 1.34794E-37
7.50000E-01 1.32741E-37
7.53769E-01 1.30515E-37
7.57519E-01 1.28099E-37
7.61249E-01 1.25376E-37
7.64960E-01 1.22717E-37
7.68650E-01 1.19839E-37
7.72320E-01 1.16853E-37
7.75968E-01 1.13830E-37
7.79596E-01 1.10763E-37
7.83203E-01 1.07524E-37
7.86788E-01 1.04394E-37
7.90351E-01 1.01252E-37
7.93893E-01 9.80844E-38
7.97411E-01 9.48957E-38
8.00908E-01 9.17236E-38
8.04381E-01 8.86161E-38
8.07831E-01 8.54826E-38
8.11257E-01 8.24543E-38
8.14660E-01 7.94334E-38
8.18039E-01 7.65098E-38
8.21394E-01 7.35477E-38
8.24724E-01 7.07495E-38
8.28030E-01 6.79294E-38
8.31310E-01 6.52451E-38
8.34565E-01 6.25881E-38
8.37795E-01 6.00699E-38
8.40999E-01 5.75311E-38
8.44177E-01 5.51436E-38
8.47329E-01 5.27912E-38
8.50455E-01 5.05251E-38
8.53553E-01 4.82964E-38
8.56625E-01 4.62048E-38
8.59670E-01 4.41191E-38
8.62687E-01 4.21838E-38
8.65677E-01 4.02661E-38
8.68639E-01 3.84061E-38
8.71572E-01 3.66089E-38
8.74478E-01 3.49124E-38
8.77355E-01 3.33155E-38
8.80203E-01 3.16975E-38
8.83022E-01 3.01845E-38
8.85812E-01 2.87468E-38
8.88573E-01 2.73125E-38
8.91304E-01 2.59804E-38
8.94005E-01 2.47389E-38
8.96677E-01 2.34863E-38
8.99318E-01 2.23389E-38
9.01928E-01 2.11887E-38
9.04508E-01 2.01416E-38
9.07058E-01 1.91106E-38
9.09576E-01 1.81228E-38
9.12063E-01 1.72175E-38
9.14519E-01 1.63189E-38
9.16943E-01 1.54542E-38
9.19335E-01 1.46628E-38
9.21696E-01 1.39060E-38
9.24024E-01 1.31518E-38
9.26320E-01 1.24661E-38
9.28584E-01 1.17878E-38
9.30815E-01 1.11665E-38
9.33013E-01 1.05541E-38
9.35178E-01 9.96995E-39
9.37310E-01 9.46251E-39
9.39409E-01 8.90048E-39
9.41474E-01 8.41867E-39
9.43505E-01 7.94239E-39
9.45503E-01 7.51105E-39
9.47467E-01 7.05695E-39
9.49397E-01 6.66681E-39
9.51293E-01 6.28228E-39
9.53154E-01 5.89747E-39
9.54981E-01 5.55479E-39
9.56773E-01 5.22826E-39
9.58530E-01 4.92564E-39
9.60252E-01 4.59635E-39
9.61940E-01 4.32629E-39
9.63592E-01 4.05172E-39
9.65209E-01 3.81508E-39
9.66790E-01 3.55249E-39
9.68336E-01 3.34945E-39
9.69846E-01 3.11890E-39
9.71321E-01 2.91914E-39
9.72759E-01 2.72985E-39
9.74162E-01 2.54543E-39
9.75528E-01 2.37504E-39
9.76858E-01 2.20750E-39
9.78152E-01 2.05961E-39
9.79410E-01 1.90251E-39
9.80631E-01 1.76538E-39
9.81815E-01 1.62835E-39
9.82963E-01 1.51556E-39
9.84074E-01 1.40210E-39
9.85148E-01 1.28195E-39
9.86185E-01 1.17485E-39
9.87185E-01 1.06411E-39
9.88148E-01 9.83521E-40
9.89074E-01 8.87421E-40
9.89962E-01 8.06307E-40
9.90814E-01 7.28385E-40
9.91627E-01 6.49961E-40
9.92404E-01 5.95112E-40
9.93143E-01 5.34308E-40
9.93844E-01 4.67148E-40
9.94508E-01 4.20906E-40
9.95134E-01 3.69534E-40
9.95722E-01 3.23523E-40
9.96273E-01 2.68992E-40
9.96786E-01 2.38369E-40
9.97261E-01 2.00719E-40
9.97698E-01 1.69901E-40
9.98097E-01 1.33185E-40
9.98459E-01 1.13138E-40
9.98782E-01 8.66450E-41
9.99067E-01 6.71097E-41
9.99315E-01 4.50041E-41
9.99524E-01 2.78874E-41
9.99695E-01 1.85157E-41
9.99829E-01 1.19481E-41
9.99924E-01 5.54991E-42
9.99981E-01 2.14492E-42
1.00000E+00 4.34722E-42
