 #
 # Subroutine ELSEPA. Elastic scattering of electrons and positrons
 #                    by neutral atoms and positive ions
 #
 # Projectile: electron
 # Kinetic energy = 4.00000E+07 eV = 1.46997E+06 a.u.
 #
 # WARNING: High-energy factorization with free-atom DF screening.
 #          Absorption, polarization and exchange corrections are
 #          switched off.
 #          Phase shifts are calculated for the bare nucleus.
 #          Scattering amplitudes are not evaluated.
 #
 # Element: Be,  Z =   4,  atomic weight = 9.01220E+00 g/mol
 #
 # Nuclear model: Fermi distribution
 #                Average radius = 2.22669E-13 cm
 #                Skin thickness = 5.46000E-14 cm
 #
 # Number of electrons =  4
 #
 # Total elastic cross section = 1.70335E-19 cm**2 = 6.08277E-03 a0**2
 # 1st transport cross section = 2.08905E-26 cm**2 = 7.46014E-10 a0**2
 # 2nd transport cross section = 6.09554E-26 cm**2 = 2.17676E-09 a0**2
 #
 #
 # Differential cross section:                       MU=(1-COS(THETA))/2
 #
 #  THETA        MU          DCS          DCS        Sherman      error
 #  (deg)                 (cm**2/sr)   (a0**2/sr)    function
 #----------------------------------------------------------------------
0.00000E+00 5.86001E-12
7.61557E-13 5.85670E-12
1.18994E-12 5.85485E-12
1.71346E-12 5.85259E-12
2.33225E-12 5.84992E-12
3.04617E-12 5.84684E-12
3.85530E-12 5.84335E-12
4.75964E-12 5.83945E-12
5.75917E-12 5.83515E-12
6.85391E-12 5.83045E-12
8.04379E-12 5.82534E-12
9.32893E-12 5.81983E-12
1.07092E-11 5.81391E-12
1.21847E-11 5.80760E-12
1.37554E-11 5.80090E-12
1.54213E-11 5.79380E-12
1.71823E-11 5.78630E-12
1.90386E-11 5.77842E-12
2.09900E-11 5.77015E-12
2.30367E-11 5.76148E-12
2.51785E-11 5.75243E-12
2.74156E-11 5.74301E-12
2.97478E-11 5.73320E-12
3.21752E-11 5.72301E-12
3.46979E-11 5.71246E-12
3.73157E-11 5.70154E-12
4.00286E-11 5.69023E-12
4.28368E-11 5.67857E-12
4.57402E-11 5.66655E-12
4.87388E-11 5.65417E-12
5.18325E-11 5.64142E-12
5.50215E-11 5.62833E-12
5.83057E-11 5.61491E-12
6.16850E-11 5.60111E-12
6.51595E-11 5.58698E-12
6.87293E-11 5.57253E-12
7.23943E-11 5.55774E-12
7.61544E-11 5.54259E-12
1.18991E-10 5.37405E-12
1.71347E-10 5.17717E-12
2.33223E-10 4.95664E-12
3.04617E-10 4.71738E-12
3.85531E-10 4.46444E-12
4.75965E-10 4.20269E-12
5.75917E-10 3.93668E-12
6.85389E-10 3.67056E-12
8.04380E-10 3.40794E-12
9.32891E-10 3.15181E-12
1.07092E-09 2.89938E-12
1.21847E-09 2.66247E-12
1.37554E-09 2.44194E-12
1.54213E-09 2.23274E-12
1.71823E-09 2.03437E-12
1.90386E-09 1.85276E-12
2.09900E-09 1.68701E-12
2.30367E-09 1.53067E-12
2.51785E-09 1.38857E-12
2.74156E-09 1.25995E-12
2.97478E-09 1.14259E-12
3.21752E-09 1.03532E-12
3.46978E-09 9.38587E-13
3.73156E-09 8.51396E-13
4.00286E-09 7.72307E-13
4.28368E-09 7.01007E-13
4.57402E-09 6.36758E-13
4.87388E-09 5.78947E-13
5.18326E-09 5.26948E-13
5.50215E-09 4.80020E-13
5.83057E-09 4.37640E-13
6.16850E-09 3.99786E-13
6.51596E-09 3.65580E-13
6.87293E-09 3.34599E-13
7.23942E-09 3.06716E-13
7.61544E-09 2.81706E-13
1.18991E-08 1.29704E-13
1.71347E-08 6.84406E-14
2.33223E-08 4.03176E-14
3.04617E-08 2.58220E-14
3.85531E-08 1.75563E-14
4.75965E-08 1.24633E-14
5.75917E-08 9.14841E-15
6.85389E-08 6.89009E-15
8.04380E-08 5.29305E-15
9.32891E-08 4.13372E-15
1.07092E-07 3.27031E-15
1.21847E-07 2.62214E-15
1.37554E-07 2.12640E-15
1.54213E-07 1.73917E-15
1.71823E-07 1.43466E-15
1.90386E-07 1.19351E-15
2.09900E-07 1.00016E-15
2.30367E-07 8.43138E-16
2.51785E-07 7.15516E-16
2.74156E-07 6.10890E-16
2.97478E-07 5.24225E-16
3.21752E-07 4.52160E-16
3.46978E-07 3.91957E-16
3.73156E-07 3.41314E-16
4.00286E-07 2.98416E-16
4.28368E-07 2.62002E-16
4.57402E-07 2.30929E-16
4.87388E-07 2.04254E-16
5.18325E-07 1.81281E-16
5.50215E-07 1.61429E-16
5.83057E-07 1.44197E-16
6.16850E-07 1.29174E-16
6.51596E-07 1.16047E-16
6.87293E-07 1.04536E-16
7.23942E-07 9.44032E-17
7.61543E-07 8.54605E-17
1.18991E-06 3.53824E-17
1.71347E-06 1.71394E-17
2.33223E-06 9.27074E-18
3.04617E-06 5.44023E-18
3.85531E-06 3.39812E-18
4.75964E-06 2.23001E-18
5.75916E-06 1.52340E-18
6.85388E-06 1.07577E-18
8.04378E-06 7.81122E-19
9.32888E-06 5.80792E-19
1.07092E-05 4.40760E-19
1.21846E-05 3.40500E-19
1.37553E-05 2.67195E-19
1.54212E-05 2.12597E-19
1.71822E-05 1.71259E-19
1.90385E-05 1.39632E-19
2.09899E-05 1.14865E-19
2.30365E-05 9.53252E-20
2.51783E-05 7.97603E-20
2.74153E-05 6.72520E-20
2.97475E-05 5.71144E-20
3.21749E-05 4.88284E-20
3.46974E-05 4.19991E-20
3.73152E-05 3.63249E-20
4.00281E-05 3.15754E-20
4.28362E-05 2.75735E-20
4.57395E-05 2.41825E-20
4.87380E-05 2.12950E-20
5.18317E-05 1.88256E-20
5.50205E-05 1.67049E-20
5.83045E-05 1.48760E-20
6.16838E-05 1.32921E-20
6.51582E-05 1.19142E-20
6.87277E-05 1.07104E-20
7.23925E-05 9.65437E-21
7.61524E-05 8.72447E-21
9.21439E-05 5.95753E-21
1.09658E-04 4.20761E-21
1.28695E-04 3.05476E-21
1.49255E-04 2.27125E-21
1.71338E-04 1.72374E-21
1.94942E-04 1.33150E-21
2.20070E-04 1.04495E-21
2.46720E-04 8.31372E-22
2.74892E-04 6.69747E-22
3.04586E-04 5.45547E-22
3.35803E-04 4.48833E-22
3.68542E-04 3.72662E-22
4.02802E-04 3.11959E-22
4.38585E-04 2.63149E-22
4.75889E-04 2.23512E-22
5.14715E-04 1.91068E-22
5.55063E-04 1.64306E-22
5.96931E-04 1.42065E-22
6.40321E-04 1.23469E-22
6.85233E-04 1.07814E-22
7.31665E-04 9.45659E-23
7.79618E-04 8.32914E-23
8.29092E-04 7.36473E-23
8.80086E-04 6.53612E-23
9.32601E-04 5.82067E-23
9.86636E-04 5.20063E-23
1.04219E-03 4.66092E-23
1.09927E-03 4.18946E-23
1.15786E-03 3.77616E-23
1.21797E-03 3.41254E-23
1.27961E-03 3.09172E-23
1.34276E-03 2.80767E-23
1.40743E-03 2.55554E-23
1.47362E-03 2.33108E-23
1.54133E-03 2.13072E-23
1.61056E-03 1.95146E-23
1.68131E-03 1.79063E-23
1.75357E-03 1.64605E-23
1.82735E-03 1.51576E-23
1.90265E-03 1.39811E-23
1.97947E-03 1.29167E-23
2.05780E-03 1.19515E-23
2.13765E-03 1.10749E-23
2.21902E-03 1.02771E-23
2.30190E-03 9.54997E-24
2.38630E-03 8.88598E-24
2.47222E-03 8.27867E-24
2.55965E-03 7.72242E-24
2.64859E-03 7.21204E-24
2.73905E-03 6.74318E-24
2.83103E-03 6.31177E-24
2.92452E-03 5.91432E-24
3.01952E-03 5.54767E-24
3.11604E-03 5.20897E-24
3.21407E-03 4.89575E-24
3.31362E-03 4.60569E-24
3.41468E-03 4.33680E-24
3.51725E-03 4.08725E-24
3.62133E-03 3.85538E-24
3.72692E-03 3.63973E-24
3.83403E-03 3.43893E-24
3.94265E-03 3.25179E-24
4.05278E-03 3.07720E-24
4.16442E-03 2.91417E-24
4.27757E-03 2.76179E-24
4.39223E-03 2.61923E-24
4.50840E-03 2.48576E-24
4.62608E-03 2.36067E-24
4.74527E-03 2.24335E-24
4.86597E-03 2.13323E-24
4.98817E-03 2.02977E-24
5.11188E-03 1.93251E-24
5.23711E-03 1.84100E-24
5.36383E-03 1.75485E-24
5.49207E-03 1.67366E-24
5.62181E-03 1.59712E-24
5.75306E-03 1.52490E-24
5.88581E-03 1.45672E-24
6.02007E-03 1.39230E-24
6.15583E-03 1.33140E-24
6.29310E-03 1.27379E-24
6.43187E-03 1.21926E-24
6.57214E-03 1.16761E-24
6.71392E-03 1.11867E-24
6.85720E-03 1.07227E-24
7.00198E-03 1.02824E-24
7.14827E-03 9.86450E-25
7.29605E-03 9.46758E-25
7.44534E-03 9.09041E-25
7.59612E-03 8.73180E-25
7.97965E-03 7.90963E-25
8.37255E-03 7.18190E-25
8.77480E-03 6.53587E-25
9.18641E-03 5.96080E-25
9.60736E-03 5.44753E-25
1.00376E-02 4.98826E-25
1.04773E-02 4.57632E-25
1.09262E-02 4.20598E-25
1.13844E-02 3.87229E-25
1.18520E-02 3.57100E-25
1.23288E-02 3.29839E-25
1.28150E-02 3.05127E-25
1.33104E-02 2.82681E-25
1.38150E-02 2.62258E-25
1.43290E-02 2.43642E-25
1.48521E-02 2.26646E-25
1.53845E-02 2.11103E-25
1.59262E-02 1.96866E-25
1.64770E-02 1.83807E-25
1.70371E-02 1.71810E-25
1.76063E-02 1.60773E-25
1.81848E-02 1.50606E-25
1.87724E-02 1.41227E-25
1.93692E-02 1.32566E-25
1.99751E-02 1.24556E-25
2.05901E-02 1.17139E-25
2.12143E-02 1.10265E-25
2.18476E-02 1.03886E-25
2.24900E-02 9.79603E-26
2.31415E-02 9.24492E-26
2.38021E-02 8.73188E-26
2.44717E-02 8.25379E-26
2.51504E-02 7.80784E-26
2.58382E-02 7.39147E-26
2.65349E-02 7.00236E-26
2.72407E-02 6.63841E-26
2.79555E-02 6.29768E-26
2.86793E-02 5.97843E-26
2.94120E-02 5.67905E-26
3.01537E-02 5.39808E-26
3.09043E-02 5.13418E-26
3.16639E-02 4.88612E-26
3.24324E-02 4.65277E-26
3.32098E-02 4.43311E-26
3.39961E-02 4.22618E-26
3.47912E-02 4.03111E-26
3.55952E-02 3.84710E-26
3.64081E-02 3.67339E-26
3.72297E-02 3.50932E-26
3.80602E-02 3.35424E-26
3.88995E-02 3.20757E-26
3.97476E-02 3.06878E-26
4.06044E-02 2.93735E-26
4.14700E-02 2.81284E-26
4.23443E-02 2.69480E-26
4.32273E-02 2.58284E-26
4.41190E-02 2.47658E-26
4.50194E-02 2.37569E-26
4.59284E-02 2.27984E-26
4.68461E-02 2.18873E-26
4.87074E-02 2.01966E-26
5.06030E-02 1.86645E-26
5.25328E-02 1.72737E-26
5.44967E-02 1.60088E-26
5.64946E-02 1.48564E-26
5.85262E-02 1.38048E-26
6.05914E-02 1.28436E-26
6.26901E-02 1.19637E-26
6.48222E-02 1.11570E-26
6.69873E-02 1.04164E-26
6.91854E-02 9.73538E-27
7.14163E-02 9.10842E-27
7.36799E-02 8.53045E-27
7.59760E-02 7.99696E-27
7.83043E-02 7.50394E-27
8.06647E-02 7.04776E-27
8.30571E-02 6.62519E-27
8.54812E-02 6.23331E-27
8.79369E-02 5.86951E-27
9.04240E-02 5.53142E-27
9.29422E-02 5.21690E-27
9.54915E-02 4.92402E-27
9.80716E-02 4.65103E-27
1.00682E-01 4.39633E-27
1.03323E-01 4.15849E-27
1.05995E-01 3.93619E-27
1.08696E-01 3.72825E-27
1.11427E-01 3.53356E-27
1.14188E-01 3.35114E-27
1.16978E-01 3.18007E-27
1.19797E-01 3.01954E-27
1.22645E-01 2.86876E-27
1.25522E-01 2.72705E-27
1.28428E-01 2.59377E-27
1.31361E-01 2.46832E-27
1.34323E-01 2.35017E-27
1.37313E-01 2.23882E-27
1.40330E-01 2.13380E-27
1.43375E-01 2.03470E-27
1.46447E-01 1.94112E-27
1.49545E-01 1.85270E-27
1.52671E-01 1.76910E-27
1.55823E-01 1.69003E-27
1.59001E-01 1.61518E-27
1.62205E-01 1.54430E-27
1.65435E-01 1.47714E-27
1.68690E-01 1.41347E-27
1.71970E-01 1.35308E-27
1.75276E-01 1.29577E-27
1.78606E-01 1.24135E-27
1.81961E-01 1.18965E-27
1.85340E-01 1.14052E-27
1.88743E-01 1.09380E-27
1.92169E-01 1.04936E-27
1.95619E-01 1.00707E-27
1.99092E-01 9.66797E-28
2.02589E-01 9.28438E-28
2.06107E-01 8.91885E-28
2.09649E-01 8.57037E-28
2.13212E-01 8.23801E-28
2.16797E-01 7.92090E-28
2.20404E-01 7.61823E-28
2.24032E-01 7.32923E-28
2.27680E-01 7.05317E-28
2.31350E-01 6.78938E-28
2.35040E-01 6.53721E-28
2.38751E-01 6.29608E-28
2.42481E-01 6.06542E-28
2.46231E-01 5.84469E-28
2.50000E-01 5.63341E-28
2.53788E-01 5.43109E-28
2.57595E-01 5.23729E-28
2.61421E-01 5.05160E-28
2.65264E-01 4.87362E-28
2.69126E-01 4.70297E-28
2.73005E-01 4.53931E-28
2.76901E-01 4.38231E-28
2.80814E-01 4.23164E-28
2.84744E-01 4.08700E-28
2.88691E-01 3.94813E-28
2.92653E-01 3.81475E-28
2.96632E-01 3.68660E-28
3.00625E-01 3.56346E-28
3.04634E-01 3.44509E-28
3.08658E-01 3.33128E-28
3.12697E-01 3.22182E-28
3.16749E-01 3.11652E-28
3.20816E-01 3.01520E-28
3.24896E-01 2.91769E-28
3.28990E-01 2.82381E-28
3.33097E-01 2.73342E-28
3.37216E-01 2.64635E-28
3.41348E-01 2.56247E-28
3.45492E-01 2.48165E-28
3.49647E-01 2.40375E-28
3.53814E-01 2.32866E-28
3.57992E-01 2.25625E-28
3.62181E-01 2.18642E-28
3.66381E-01 2.11905E-28
3.70590E-01 2.05406E-28
3.74810E-01 1.99133E-28
3.79039E-01 1.93079E-28
3.83277E-01 1.87234E-28
3.87524E-01 1.81590E-28
3.91780E-01 1.76139E-28
3.96044E-01 1.70874E-28
4.00316E-01 1.65786E-28
4.04596E-01 1.60870E-28
4.08882E-01 1.56118E-28
4.13176E-01 1.51525E-28
4.17476E-01 1.47084E-28
4.21783E-01 1.42789E-28
4.26095E-01 1.38635E-28
4.30413E-01 1.34617E-28
4.34737E-01 1.30729E-28
4.39065E-01 1.26967E-28
4.43398E-01 1.23325E-28
4.47736E-01 1.19801E-28
4.52077E-01 1.16388E-28
4.56422E-01 1.13083E-28
4.60770E-01 1.09883E-28
4.65122E-01 1.06784E-28
4.69476E-01 1.03781E-28
4.73832E-01 1.00871E-28
4.78190E-01 9.80516E-29
4.82550E-01 9.53191E-29
4.86912E-01 9.26704E-29
4.91274E-01 9.01026E-29
4.95637E-01 8.76129E-29
5.00000E-01 8.51986E-29
5.04363E-01 8.28570E-29
5.08726E-01 8.05858E-29
5.13088E-01 7.83824E-29
5.17450E-01 7.62446E-29
5.21810E-01 7.41702E-29
5.26168E-01 7.21570E-29
5.30524E-01 7.02030E-29
5.34878E-01 6.83061E-29
5.39230E-01 6.64646E-29
5.43578E-01 6.46766E-29
5.47923E-01 6.29402E-29
5.52264E-01 6.12539E-29
5.56602E-01 5.96160E-29
5.60935E-01 5.80249E-29
5.65263E-01 5.64791E-29
5.69587E-01 5.49772E-29
5.73905E-01 5.35177E-29
5.78217E-01 5.20993E-29
5.82524E-01 5.07207E-29
5.86824E-01 4.93806E-29
5.91118E-01 4.80779E-29
5.95404E-01 4.68113E-29
5.99684E-01 4.55797E-29
6.03956E-01 4.43820E-29
6.08220E-01 4.32173E-29
6.12476E-01 4.20844E-29
6.16723E-01 4.09824E-29
6.20961E-01 3.99103E-29
6.25190E-01 3.88673E-29
6.29410E-01 3.78524E-29
6.33619E-01 3.68648E-29
6.37819E-01 3.59037E-29
6.42008E-01 3.49683E-29
6.46186E-01 3.40579E-29
6.50353E-01 3.31716E-29
6.54508E-01 3.23087E-29
6.58652E-01 3.14687E-29
6.62784E-01 3.06508E-29
6.66903E-01 2.98543E-29
6.71010E-01 2.90786E-29
6.75104E-01 2.83232E-29
6.79184E-01 2.75874E-29
6.83251E-01 2.68707E-29
6.87303E-01 2.61726E-29
6.91342E-01 2.54924E-29
6.95366E-01 2.48297E-29
6.99375E-01 2.41840E-29
7.03368E-01 2.35548E-29
7.07347E-01 2.29417E-29
7.11309E-01 2.23442E-29
7.15256E-01 2.17618E-29
7.19186E-01 2.11942E-29
7.23099E-01 2.06408E-29
7.26995E-01 2.01015E-29
7.30874E-01 1.95757E-29
7.34736E-01 1.90630E-29
7.38579E-01 1.85632E-29
7.42405E-01 1.80758E-29
7.46212E-01 1.76006E-29
7.50000E-01 1.71371E-29
7.53769E-01 1.66852E-29
7.57519E-01 1.62444E-29
7.61249E-01 1.58145E-29
7.64960E-01 1.53952E-29
7.68650E-01 1.49862E-29
7.72320E-01 1.45872E-29
7.75968E-01 1.41980E-29
7.79596E-01 1.38183E-29
7.83203E-01 1.34478E-29
7.86788E-01 1.30864E-29
7.90351E-01 1.27338E-29
7.93893E-01 1.23897E-29
7.97411E-01 1.20539E-29
8.00908E-01 1.17263E-29
8.04381E-01 1.14066E-29
8.07831E-01 1.10946E-29
8.11257E-01 1.07901E-29
8.14660E-01 1.04930E-29
8.18039E-01 1.02030E-29
8.21394E-01 9.91994E-30
8.24724E-01 9.64369E-30
8.28030E-01 9.37405E-30
8.31310E-01 9.11087E-30
8.34565E-01 8.85398E-30
8.37795E-01 8.60324E-30
8.40999E-01 8.35847E-30
8.44177E-01 8.11956E-30
8.47329E-01 7.88635E-30
8.50455E-01 7.65870E-30
8.53553E-01 7.43647E-30
8.56625E-01 7.21955E-30
8.59670E-01 7.00779E-30
8.62687E-01 6.80108E-30
8.65677E-01 6.59930E-30
8.68639E-01 6.40233E-30
8.71572E-01 6.21006E-30
8.74478E-01 6.02238E-30
8.77355E-01 5.83918E-30
8.80203E-01 5.66036E-30
8.83022E-01 5.48581E-30
8.85812E-01 5.31545E-30
8.88573E-01 5.14916E-30
8.91304E-01 4.98686E-30
8.94005E-01 4.82848E-30
8.96677E-01 4.67389E-30
8.99318E-01 4.52304E-30
9.01928E-01 4.37583E-30
9.04508E-01 4.23219E-30
9.07058E-01 4.09203E-30
9.09576E-01 3.95528E-30
9.12063E-01 3.82187E-30
9.14519E-01 3.69172E-30
9.16943E-01 3.56476E-30
9.19335E-01 3.44094E-30
9.21696E-01 3.32017E-30
9.24024E-01 3.20239E-30
9.26320E-01 3.08755E-30
9.28584E-01 2.97558E-30
9.30815E-01 2.86643E-30
9.33013E-01 2.76003E-30
9.35178E-01 2.65634E-30
9.37310E-01 2.55529E-30
9.39409E-01 2.45683E-30
9.41474E-01 2.36092E-30
9.43505E-01 2.26750E-30
9.45503E-01 2.17653E-30
9.47467E-01 2.08795E-30
9.49397E-01 2.00173E-30
9.51293E-01 1.91782E-30
9.53154E-01 1.83617E-30
9.54981E-01 1.75676E-30
9.56773E-01 1.67952E-30
9.58530E-01 1.60444E-30
9.60252E-01 1.53145E-30
9.61940E-01 1.46054E-30
9.63592E-01 1.39167E-30
9.65209E-01 1.32480E-30
9.66790E-01 1.25990E-30
9.68336E-01 1.19693E-30
9.69846E-01 1.13587E-30
9.71321E-01 1.07668E-30
9.72759E-01 1.01934E-30
9.74162E-01 9.63815E-31
9.75528E-01 9.10080E-31
9.76858E-01 8.58106E-31
9.78152E-01 8.07872E-31
9.79410E-01 7.59347E-31
9.80631E-01 7.12515E-31
9.81815E-01 6.67347E-31
9.82963E-01 6.23827E-31
9.84074E-01 5.81928E-31
9.85148E-01 5.41631E-31
9.86185E-01 5.02918E-31
9.87185E-01 4.65768E-31
9.88148E-01 4.30169E-31
9.89074E-01 3.96096E-31
9.89962E-01 3.63539E-31
9.90814E-01 3.32478E-31
9.91627E-01 3.02899E-31
9.92404E-01 2.74792E-31
9.93143E-01 2.48138E-31
9.93844E-01 2.22925E-31
9.94508E-01 1.99145E-31
9.95134E-01 1.76781E-31
9.95722E-01 1.55826E-31
9.96273E-01 1.36267E-31
9.96786E-01 1.18101E-31
9.97261E-01 1.01313E-31
9.97698E-01 8.58981E-32
9.98097E-01 7.18456E-32
9.98459E-01 5.91546E-32
9.98782E-01 4.78136E-32
9.99067E-01 3.78199E-32
9.99315E-01 2.91668E-32
9.99524E-01 2.18535E-32
9.99695E-01 1.58750E-32
9.99829E-01 1.12279E-32
9.99924E-01 7.90979E-33
9.99981E-01 5.92026E-33
1.00000E+00 5.25838E-33
