 #
 # Subroutine ELSEPA. Elastic scattering of electrons and positrons
 #                    by neutral atoms and positive ions
 #
 # Projectile: electron
 # Kinetic energy = 1.00000E+07 eV = 3.67493E+05 a.u.
 #
 # WARNING: High-energy factorization with free-atom DF screening.
 #          Absorption, polarization and exchange corrections are
 #          switched off.
 #          Phase shifts are calculated for the bare nucleus.
 #          Scattering amplitudes are not evaluated.
 #
 # Element: Be,  Z =   4,  atomic weight = 9.01220E+00 g/mol
 #
 # Nuclear model: Fermi distribution
 #                Average radius = 2.22669E-13 cm
 #                Skin thickness = 5.46000E-14 cm
 #
 # Number of electrons =  4
 #
 # Total elastic cross section = 1.70455E-19 cm**2 = 6.08706E-03 a0**2
 # 1st transport cross section = 2.64082E-25 cm**2 = 9.43056E-09 a0**2
 # 2nd transport cross section = 7.63113E-25 cm**2 = 2.72513E-08 a0**2
 #
 #
 # Differential cross section:                       MU=(1-COS(THETA))/2
 #
 #  THETA        MU          DCS          DCS        Sherman      error
 #  (deg)                 (cm**2/sr)   (a0**2/sr)    function
 #----------------------------------------------------------------------
0.00000E+00 3.94494E-13
7.61557E-13 3.94479E-13
1.18994E-12 3.94470E-13
1.71346E-12 3.94460E-13
2.33225E-12 3.94448E-13
3.04617E-12 3.94434E-13
3.85530E-12 3.94418E-13
4.75964E-12 3.94400E-13
5.75917E-12 3.94381E-13
6.85391E-12 3.94359E-13
8.04379E-12 3.94336E-13
9.32893E-12 3.94311E-13
1.07092E-11 3.94284E-13
1.21847E-11 3.94255E-13
1.37554E-11 3.94224E-13
1.54213E-11 3.94192E-13
1.71823E-11 3.94157E-13
1.90386E-11 3.94121E-13
2.09900E-11 3.94083E-13
2.30367E-11 3.94043E-13
2.51785E-11 3.94001E-13
2.74156E-11 3.93957E-13
2.97478E-11 3.93912E-13
3.21752E-11 3.93864E-13
3.46979E-11 3.93815E-13
3.73157E-11 3.93764E-13
4.00286E-11 3.93711E-13
4.28368E-11 3.93656E-13
4.57402E-11 3.93600E-13
4.87388E-11 3.93541E-13
5.18325E-11 3.93481E-13
5.50215E-11 3.93419E-13
5.83057E-11 3.93355E-13
6.16850E-11 3.93289E-13
6.51595E-11 3.93221E-13
6.87293E-11 3.93152E-13
7.23943E-11 3.93081E-13
7.61544E-11 3.93007E-13
1.18991E-10 3.92175E-13
1.71347E-10 3.91161E-13
2.33223E-10 3.89967E-13
3.04617E-10 3.88596E-13
3.85531E-10 3.87049E-13
4.75965E-10 3.85330E-13
5.75917E-10 3.83442E-13
6.85389E-10 3.81388E-13
8.04380E-10 3.79172E-13
9.32891E-10 3.76798E-13
1.07092E-09 3.74271E-13
1.21847E-09 3.71593E-13
1.37554E-09 3.68769E-13
1.54213E-09 3.65807E-13
1.71823E-09 3.62711E-13
1.90386E-09 3.59482E-13
2.09900E-09 3.56129E-13
2.30367E-09 3.52659E-13
2.51785E-09 3.49077E-13
2.74156E-09 3.45381E-13
2.97478E-09 3.41586E-13
3.21752E-09 3.37696E-13
3.46978E-09 3.33716E-13
3.73156E-09 3.29648E-13
4.00286E-09 3.25502E-13
4.28368E-09 3.21287E-13
4.57402E-09 3.17003E-13
4.87388E-09 3.12655E-13
5.18326E-09 3.08254E-13
5.50215E-09 3.03807E-13
5.83057E-09 2.99311E-13
6.16850E-09 2.94777E-13
6.51596E-09 2.90212E-13
6.87293E-09 2.85623E-13
7.23942E-09 2.81005E-13
7.61544E-09 2.76372E-13
1.18991E-08 2.30145E-13
1.71347E-08 1.86273E-13
2.33223E-08 1.48339E-13
3.04617E-08 1.16439E-13
3.85531E-08 9.05636E-14
4.75965E-08 7.02668E-14
5.75917E-08 5.45379E-14
6.85389E-08 4.24551E-14
8.04380E-08 3.32523E-14
9.32891E-08 2.62356E-14
1.07092E-07 2.08686E-14
1.21847E-07 1.67668E-14
1.37554E-07 1.36039E-14
1.54213E-07 1.11410E-14
1.71823E-07 9.20901E-15
1.90386E-07 7.69167E-15
2.09900E-07 6.48026E-15
2.30367E-07 5.50443E-15
2.51785E-07 4.71260E-15
2.74156E-07 4.06774E-15
2.97478E-07 3.53456E-15
3.21752E-07 3.09029E-15
3.46978E-07 2.71731E-15
3.73156E-07 2.40415E-15
4.00286E-07 2.13787E-15
4.28368E-07 1.91002E-15
4.57402E-07 1.71398E-15
4.87388E-07 1.54408E-15
5.18325E-07 1.39597E-15
5.50215E-07 1.26627E-15
5.83057E-07 1.15205E-15
6.16850E-07 1.05105E-15
6.51596E-07 9.61466E-16
6.87293E-07 8.81732E-16
7.23942E-07 8.10411E-16
7.61543E-07 7.46487E-16
1.18991E-06 3.60123E-16
1.71347E-06 1.94894E-16
2.33223E-06 1.13916E-16
3.04617E-06 7.05131E-17
3.85531E-06 4.57241E-17
4.75964E-06 3.08120E-17
5.75916E-06 2.14495E-17
6.85388E-06 1.53546E-17
8.04378E-06 1.12610E-17
9.32888E-06 8.43457E-18
1.07092E-05 6.43649E-18
1.21846E-05 4.99344E-18
1.37553E-05 3.93124E-18
1.54212E-05 3.13594E-18
1.71822E-05 2.53127E-18
1.90385E-05 2.06701E-18
2.09899E-05 1.70254E-18
2.30365E-05 1.41440E-18
2.51783E-05 1.18448E-18
2.74153E-05 9.99428E-19
2.97475E-05 8.49261E-19
3.21749E-05 7.26396E-19
3.46974E-05 6.25041E-19
3.73152E-05 5.40770E-19
4.00281E-05 4.70192E-19
4.28362E-05 4.10698E-19
4.57395E-05 3.60266E-19
4.87380E-05 3.17308E-19
5.18317E-05 2.80556E-19
5.50205E-05 2.48976E-19
5.83045E-05 2.21732E-19
6.16838E-05 1.98133E-19
6.51582E-05 1.77602E-19
6.87277E-05 1.59664E-19
7.23925E-05 1.43927E-19
7.61524E-05 1.30073E-19
9.21439E-05 8.88346E-20
1.09658E-04 6.27473E-20
1.28695E-04 4.55591E-20
1.49255E-04 3.38762E-20
1.71338E-04 2.57114E-20
1.94942E-04 1.98618E-20
2.20070E-04 1.55880E-20
2.46720E-04 1.24025E-20
2.74892E-04 9.99169E-21
3.04586E-04 8.13906E-21
3.35803E-04 6.69639E-21
3.68542E-04 5.56010E-21
4.02802E-04 4.65455E-21
4.38585E-04 3.92637E-21
4.75889E-04 3.33505E-21
5.14715E-04 2.85102E-21
5.55063E-04 2.45175E-21
5.96931E-04 2.11992E-21
6.40321E-04 1.84247E-21
6.85233E-04 1.60890E-21
7.31665E-04 1.41123E-21
7.79618E-04 1.24301E-21
8.29092E-04 1.09911E-21
8.80086E-04 9.75475E-22
9.32601E-04 8.68720E-22
9.86636E-04 7.76199E-22
1.04219E-03 6.95665E-22
1.09927E-03 6.25313E-22
1.15786E-03 5.63639E-22
1.21797E-03 5.09378E-22
1.27961E-03 4.61502E-22
1.34276E-03 4.19114E-22
1.40743E-03 3.81488E-22
1.47362E-03 3.47991E-22
1.54133E-03 3.18089E-22
1.61056E-03 2.91335E-22
1.68131E-03 2.67333E-22
1.75357E-03 2.45755E-22
1.82735E-03 2.26310E-22
1.90265E-03 2.08751E-22
1.97947E-03 1.92864E-22
2.05780E-03 1.78458E-22
2.13765E-03 1.65375E-22
2.21902E-03 1.53467E-22
2.30190E-03 1.42614E-22
2.38630E-03 1.32703E-22
2.47222E-03 1.23637E-22
2.55965E-03 1.15334E-22
2.64859E-03 1.07716E-22
2.73905E-03 1.00716E-22
2.83103E-03 9.42765E-23
2.92452E-03 8.83432E-23
3.01952E-03 8.28698E-23
3.11604E-03 7.78133E-23
3.21407E-03 7.31372E-23
3.31362E-03 6.88068E-23
3.41468E-03 6.47924E-23
3.51725E-03 6.10666E-23
3.62133E-03 5.76047E-23
3.72692E-03 5.43849E-23
3.83403E-03 5.13867E-23
3.94265E-03 4.85925E-23
4.05278E-03 4.59856E-23
4.16442E-03 4.35512E-23
4.27757E-03 4.12759E-23
4.39223E-03 3.91471E-23
4.50840E-03 3.71539E-23
4.62608E-03 3.52859E-23
4.74527E-03 3.35339E-23
4.86597E-03 3.18893E-23
4.98817E-03 3.03442E-23
5.11188E-03 2.88917E-23
5.23711E-03 2.75249E-23
5.36383E-03 2.62381E-23
5.49207E-03 2.50256E-23
5.62181E-03 2.38824E-23
5.75306E-03 2.28037E-23
5.88581E-03 2.17851E-23
6.02007E-03 2.08229E-23
6.15583E-03 1.99131E-23
6.29310E-03 1.90525E-23
6.43187E-03 1.82380E-23
6.57214E-03 1.74664E-23
6.71392E-03 1.67353E-23
6.85720E-03 1.60419E-23
7.00198E-03 1.53842E-23
7.14827E-03 1.47598E-23
7.29605E-03 1.41667E-23
7.44534E-03 1.36031E-23
7.59612E-03 1.30673E-23
7.97965E-03 1.18387E-23
8.37255E-03 1.07512E-23
8.77480E-03 9.78565E-24
9.18641E-03 8.92610E-24
9.60736E-03 8.15886E-24
1.00376E-02 7.47229E-24
1.04773E-02 6.85642E-24
1.09262E-02 6.30268E-24
1.13844E-02 5.80372E-24
1.18520E-02 5.35314E-24
1.23288E-02 4.94543E-24
1.28150E-02 4.57579E-24
1.33104E-02 4.24003E-24
1.38150E-02 3.93448E-24
1.43290E-02 3.65596E-24
1.48521E-02 3.40163E-24
1.53845E-02 3.16902E-24
1.59262E-02 2.95594E-24
1.64770E-02 2.76046E-24
1.70371E-02 2.58086E-24
1.76063E-02 2.41562E-24
1.81848E-02 2.26338E-24
1.87724E-02 2.12293E-24
1.93692E-02 1.99320E-24
1.99751E-02 1.87322E-24
2.05901E-02 1.76212E-24
2.12143E-02 1.65912E-24
2.18476E-02 1.56353E-24
2.24900E-02 1.47472E-24
2.31415E-02 1.39212E-24
2.38021E-02 1.31521E-24
2.44717E-02 1.24353E-24
2.51504E-02 1.17666E-24
2.58382E-02 1.11422E-24
2.65349E-02 1.05585E-24
2.72407E-02 1.00126E-24
2.79555E-02 9.50136E-25
2.86793E-02 9.02230E-25
2.94120E-02 8.57300E-25
3.01537E-02 8.15125E-25
3.09043E-02 7.75507E-25
3.16639E-02 7.38261E-25
3.24324E-02 7.03219E-25
3.32098E-02 6.70227E-25
3.39961E-02 6.39142E-25
3.47912E-02 6.09834E-25
3.55952E-02 5.82182E-25
3.64081E-02 5.56075E-25
3.72297E-02 5.31412E-25
3.80602E-02 5.08096E-25
3.88995E-02 4.86041E-25
3.97476E-02 4.65167E-25
4.06044E-02 4.45397E-25
4.14700E-02 4.26663E-25
4.23443E-02 4.08900E-25
4.32273E-02 3.92049E-25
4.41190E-02 3.76054E-25
4.50194E-02 3.60864E-25
4.59284E-02 3.46429E-25
4.68461E-02 3.32707E-25
4.87074E-02 3.07233E-25
5.06030E-02 2.84141E-25
5.25328E-02 2.63169E-25
5.44967E-02 2.44089E-25
5.64946E-02 2.26698E-25
5.85262E-02 2.10822E-25
6.05914E-02 1.96304E-25
6.26901E-02 1.83008E-25
6.48222E-02 1.70812E-25
6.69873E-02 1.59610E-25
6.91854E-02 1.49306E-25
7.14163E-02 1.39814E-25
7.36799E-02 1.31060E-25
7.59760E-02 1.22976E-25
7.83043E-02 1.15501E-25
8.06647E-02 1.08581E-25
8.30571E-02 1.02168E-25
8.54812E-02 9.62170E-26
8.79369E-02 9.06897E-26
9.04240E-02 8.55503E-26
9.29422E-02 8.07665E-26
9.54915E-02 7.63093E-26
9.80716E-02 7.21524E-26
1.00682E-01 6.82719E-26
1.03323E-01 6.46461E-26
1.05995E-01 6.12552E-26
1.08696E-01 5.80813E-26
1.11427E-01 5.51080E-26
1.14188E-01 5.23203E-26
1.16978E-01 4.97045E-26
1.19797E-01 4.72480E-26
1.22645E-01 4.49395E-26
1.25522E-01 4.27684E-26
1.28428E-01 4.07250E-26
1.31361E-01 3.88004E-26
1.34323E-01 3.69865E-26
1.37313E-01 3.52758E-26
1.40330E-01 3.36614E-26
1.43375E-01 3.21367E-26
1.46447E-01 3.06960E-26
1.49545E-01 2.93338E-26
1.52671E-01 2.80449E-26
1.55823E-01 2.68249E-26
1.59001E-01 2.56692E-26
1.62205E-01 2.45739E-26
1.65435E-01 2.35353E-26
1.68690E-01 2.25499E-26
1.71970E-01 2.16145E-26
1.75276E-01 2.07260E-26
1.78606E-01 1.98818E-26
1.81961E-01 1.90792E-26
1.85340E-01 1.83157E-26
1.88743E-01 1.75892E-26
1.92169E-01 1.68974E-26
1.95619E-01 1.62386E-26
1.99092E-01 1.56107E-26
2.02589E-01 1.50121E-26
2.06107E-01 1.44411E-26
2.09649E-01 1.38964E-26
2.13212E-01 1.33763E-26
2.16797E-01 1.28797E-26
2.20404E-01 1.24052E-26
2.24032E-01 1.19518E-26
2.27680E-01 1.15183E-26
2.31350E-01 1.11036E-26
2.35040E-01 1.07068E-26
2.38751E-01 1.03271E-26
2.42481E-01 9.96342E-27
2.46231E-01 9.61511E-27
2.50000E-01 9.28137E-27
2.53788E-01 8.96147E-27
2.57595E-01 8.65473E-27
2.61421E-01 8.36053E-27
2.65264E-01 8.07826E-27
2.69126E-01 7.80733E-27
2.73005E-01 7.54723E-27
2.76901E-01 7.29744E-27
2.80814E-01 7.05747E-27
2.84744E-01 6.82687E-27
2.88691E-01 6.60522E-27
2.92653E-01 6.39210E-27
2.96632E-01 6.18712E-27
3.00625E-01 5.98992E-27
3.04634E-01 5.80015E-27
3.08658E-01 5.61749E-27
3.12697E-01 5.44161E-27
3.16749E-01 5.27223E-27
3.20816E-01 5.10905E-27
3.24896E-01 4.95182E-27
3.28990E-01 4.80028E-27
3.33097E-01 4.65418E-27
3.37216E-01 4.51330E-27
3.41348E-01 4.37742E-27
3.45492E-01 4.24632E-27
3.49647E-01 4.11981E-27
3.53814E-01 3.99771E-27
3.57992E-01 3.87983E-27
3.62181E-01 3.76599E-27
3.66381E-01 3.65605E-27
3.70590E-01 3.54983E-27
3.74810E-01 3.44720E-27
3.79039E-01 3.34801E-27
3.83277E-01 3.25213E-27
3.87524E-01 3.15942E-27
3.91780E-01 3.06976E-27
3.96044E-01 2.98304E-27
4.00316E-01 2.89914E-27
4.04596E-01 2.81796E-27
4.08882E-01 2.73938E-27
4.13176E-01 2.66332E-27
4.17476E-01 2.58969E-27
4.21783E-01 2.51838E-27
4.26095E-01 2.44931E-27
4.30413E-01 2.38240E-27
4.34737E-01 2.31758E-27
4.39065E-01 2.25476E-27
4.43398E-01 2.19387E-27
4.47736E-01 2.13485E-27
4.52077E-01 2.07763E-27
4.56422E-01 2.02213E-27
4.60770E-01 1.96831E-27
4.65122E-01 1.91611E-27
4.69476E-01 1.86546E-27
4.73832E-01 1.81631E-27
4.78190E-01 1.76861E-27
4.82550E-01 1.72232E-27
4.86912E-01 1.67737E-27
4.91274E-01 1.63374E-27
4.95637E-01 1.59136E-27
5.00000E-01 1.55021E-27
5.04363E-01 1.51023E-27
5.08726E-01 1.47140E-27
5.13088E-01 1.43366E-27
5.17450E-01 1.39700E-27
5.21810E-01 1.36136E-27
5.26168E-01 1.32672E-27
5.30524E-01 1.29305E-27
5.34878E-01 1.26030E-27
5.39230E-01 1.22847E-27
5.43578E-01 1.19750E-27
5.47923E-01 1.16739E-27
5.52264E-01 1.13809E-27
5.56602E-01 1.10959E-27
5.60935E-01 1.08186E-27
5.65263E-01 1.05487E-27
5.69587E-01 1.02860E-27
5.73905E-01 1.00304E-27
5.78217E-01 9.78149E-28
5.82524E-01 9.53919E-28
5.86824E-01 9.30326E-28
5.91118E-01 9.07352E-28
5.95404E-01 8.84977E-28
5.99684E-01 8.63183E-28
6.03956E-01 8.41954E-28
6.08220E-01 8.21271E-28
6.12476E-01 8.01120E-28
6.16723E-01 7.81485E-28
6.20961E-01 7.62350E-28
6.25190E-01 7.43700E-28
6.29410E-01 7.25522E-28
6.33619E-01 7.07802E-28
6.37819E-01 6.90527E-28
6.42008E-01 6.73684E-28
6.46186E-01 6.57260E-28
6.50353E-01 6.41244E-28
6.54508E-01 6.25624E-28
6.58652E-01 6.10390E-28
6.62784E-01 5.95529E-28
6.66903E-01 5.81033E-28
6.71010E-01 5.66890E-28
6.75104E-01 5.53090E-28
6.79184E-01 5.39626E-28
6.83251E-01 5.26486E-28
6.87303E-01 5.13663E-28
6.91342E-01 5.01148E-28
6.95366E-01 4.88932E-28
6.99375E-01 4.77007E-28
7.03368E-01 4.65366E-28
7.07347E-01 4.54001E-28
7.11309E-01 4.42904E-28
7.15256E-01 4.32069E-28
7.19186E-01 4.21489E-28
7.23099E-01 4.11156E-28
7.26995E-01 4.01065E-28
7.30874E-01 3.91209E-28
7.34736E-01 3.81582E-28
7.38579E-01 3.72178E-28
7.42405E-01 3.62992E-28
7.46212E-01 3.54017E-28
7.50000E-01 3.45249E-28
7.53769E-01 3.36682E-28
7.57519E-01 3.28311E-28
7.61249E-01 3.20131E-28
7.64960E-01 3.12138E-28
7.68650E-01 3.04326E-28
7.72320E-01 2.96692E-28
7.75968E-01 2.89231E-28
7.79596E-01 2.81938E-28
7.83203E-01 2.74809E-28
7.86788E-01 2.67841E-28
7.90351E-01 2.61030E-28
7.93893E-01 2.54372E-28
7.97411E-01 2.47862E-28
8.00908E-01 2.41499E-28
8.04381E-01 2.35277E-28
8.07831E-01 2.29194E-28
8.11257E-01 2.23246E-28
8.14660E-01 2.17431E-28
8.18039E-01 2.11745E-28
8.21394E-01 2.06185E-28
8.24724E-01 2.00748E-28
8.28030E-01 1.95432E-28
8.31310E-01 1.90233E-28
8.34565E-01 1.85149E-28
8.37795E-01 1.80178E-28
8.40999E-01 1.75316E-28
8.44177E-01 1.70562E-28
8.47329E-01 1.65913E-28
8.50455E-01 1.61366E-28
8.53553E-01 1.56919E-28
8.56625E-01 1.52571E-28
8.59670E-01 1.48319E-28
8.62687E-01 1.44160E-28
8.65677E-01 1.40094E-28
8.68639E-01 1.36117E-28
8.71572E-01 1.32228E-28
8.74478E-01 1.28425E-28
8.77355E-01 1.24707E-28
8.80203E-01 1.21071E-28
8.83022E-01 1.17515E-28
8.85812E-01 1.14039E-28
8.88573E-01 1.10640E-28
8.91304E-01 1.07317E-28
8.94005E-01 1.04069E-28
8.96677E-01 1.00893E-28
8.99318E-01 9.77882E-29
9.01928E-01 9.47535E-29
9.04508E-01 9.17875E-29
9.07058E-01 8.88886E-29
9.09576E-01 8.60556E-29
9.12063E-01 8.32872E-29
9.14519E-01 8.05821E-29
9.16943E-01 7.79391E-29
9.19335E-01 7.53572E-29
9.21696E-01 7.28351E-29
9.24024E-01 7.03716E-29
9.26320E-01 6.79659E-29
9.28584E-01 6.56166E-29
9.30815E-01 6.33230E-29
9.33013E-01 6.10838E-29
9.35178E-01 5.88983E-29
9.37310E-01 5.67655E-29
9.39409E-01 5.46842E-29
9.41474E-01 5.26540E-29
9.43505E-01 5.06736E-29
9.45503E-01 4.87425E-29
9.47467E-01 4.68595E-29
9.49397E-01 4.50242E-29
9.51293E-01 4.32356E-29
9.53154E-01 4.14929E-29
9.54981E-01 3.97956E-29
9.56773E-01 3.81428E-29
9.58530E-01 3.65339E-29
9.60252E-01 3.49682E-29
9.61940E-01 3.34451E-29
9.63592E-01 3.19640E-29
9.65209E-01 3.05242E-29
9.66790E-01 2.91250E-29
9.68336E-01 2.77663E-29
9.69846E-01 2.64469E-29
9.71321E-01 2.51668E-29
9.72759E-01 2.39252E-29
9.74162E-01 2.27217E-29
9.75528E-01 2.15557E-29
9.76858E-01 2.04269E-29
9.78152E-01 1.93348E-29
9.79410E-01 1.82789E-29
9.80631E-01 1.72588E-29
9.81815E-01 1.62741E-29
9.82963E-01 1.53245E-29
9.84074E-01 1.44094E-29
9.85148E-01 1.35287E-29
9.86185E-01 1.26818E-29
9.87185E-01 1.18686E-29
9.88148E-01 1.10887E-29
9.89074E-01 1.03417E-29
9.89962E-01 9.62740E-30
9.90814E-01 8.94549E-30
9.91627E-01 8.29571E-30
9.92404E-01 7.67789E-30
9.93143E-01 7.09164E-30
9.93844E-01 6.53680E-30
9.94508E-01 6.01321E-30
9.95134E-01 5.52057E-30
9.95722E-01 5.05872E-30
9.96273E-01 4.62748E-30
9.96786E-01 4.22676E-30
9.97261E-01 3.85629E-30
9.97698E-01 3.51603E-30
9.98097E-01 3.20572E-30
9.98459E-01 2.92540E-30
9.98782E-01 2.67483E-30
9.99067E-01 2.45396E-30
9.99315E-01 2.26267E-30
9.99524E-01 2.10102E-30
9.99695E-01 1.96883E-30
9.99829E-01 1.86606E-30
9.99924E-01 1.79267E-30
9.99981E-01 1.74870E-30
1.00000E+00 1.73412E-30
