 #
 # Subroutine ELSEPA. Elastic scattering of electrons and positrons
 #                    by neutral atoms and positive ions
 #
 # Projectile: electron
 # Kinetic energy = 5.00000E+07 eV = 1.83747E+06 a.u.
 #
 # WARNING: High-energy factorization with free-atom DF screening.
 #          Absorption, polarization and exchange corrections are
 #          switched off.
 #          Phase shifts are calculated for the bare nucleus.
 #          Scattering amplitudes are not evaluated.
 #
 # Element: Be,  Z =   4,  atomic weight = 9.01220E+00 g/mol
 #
 # Nuclear model: Fermi distribution
 #                Average radius = 2.22669E-13 cm
 #                Skin thickness = 5.46000E-14 cm
 #
 # Number of electrons =  4
 #
 # Total elastic cross section = 1.70320E-19 cm**2 = 6.08223E-03 a0**2
 # 1st transport cross section = 1.37148E-26 cm**2 = 4.89765E-10 a0**2
 # 2nd transport cross section = 4.01164E-26 cm**2 = 1.43258E-09 a0**2
 #
 #
 # Differential cross section:                       MU=(1-COS(THETA))/2
 #
 #  THETA        MU          DCS          DCS        Sherman      error
 #  (deg)                 (cm**2/sr)   (a0**2/sr)    function
 #----------------------------------------------------------------------
0.00000E+00 9.11012E-12
7.61557E-13 9.10215E-12
1.18994E-12 9.09767E-12
1.71346E-12 9.09221E-12
2.33225E-12 9.08576E-12
3.04617E-12 9.07833E-12
3.85530E-12 9.06991E-12
4.75964E-12 9.06052E-12
5.75917E-12 9.05016E-12
6.85391E-12 9.03882E-12
8.04379E-12 9.02652E-12
9.32893E-12 9.01327E-12
1.07092E-11 8.99906E-12
1.21847E-11 8.98390E-12
1.37554E-11 8.96782E-12
1.54213E-11 8.95078E-12
1.71823E-11 8.93282E-12
1.90386E-11 8.91396E-12
2.09900E-11 8.89416E-12
2.30367E-11 8.87348E-12
2.51785E-11 8.85190E-12
2.74156E-11 8.82943E-12
2.97478E-11 8.80610E-12
3.21752E-11 8.78188E-12
3.46979E-11 8.75681E-12
3.73157E-11 8.73093E-12
4.00286E-11 8.70416E-12
4.28368E-11 8.67660E-12
4.57402E-11 8.64825E-12
4.87388E-11 8.61903E-12
5.18325E-11 8.58907E-12
5.50215E-11 8.55834E-12
5.83057E-11 8.52679E-12
6.16850E-11 8.49454E-12
6.51595E-11 8.46154E-12
6.87293E-11 8.42778E-12
7.23943E-11 8.39336E-12
7.61544E-11 8.35820E-12
1.18991E-10 7.97118E-12
1.71347E-10 7.52980E-12
2.33223E-10 7.04914E-12
3.04617E-10 6.54387E-12
3.85531E-10 6.02815E-12
4.75965E-10 5.51387E-12
5.75917E-10 5.01182E-12
6.85389E-10 4.52172E-12
8.04380E-10 4.06522E-12
9.32891E-10 3.64833E-12
1.07092E-09 3.25144E-12
1.21847E-09 2.89383E-12
1.37554E-09 2.57339E-12
1.54213E-09 2.27887E-12
1.71823E-09 2.01845E-12
1.90386E-09 1.78728E-12
2.09900E-09 1.58060E-12
2.30367E-09 1.39894E-12
2.51785E-09 1.23884E-12
2.74156E-09 1.09770E-12
2.97478E-09 9.73756E-13
3.21752E-09 8.65164E-13
3.46978E-09 7.69806E-13
3.73156E-09 6.85855E-13
4.00286E-09 6.12672E-13
4.28368E-09 5.48188E-13
4.57402E-09 4.91205E-13
4.87388E-09 4.41661E-13
5.18326E-09 3.97687E-13
5.50215E-09 3.58780E-13
5.83057E-09 3.24739E-13
6.16850E-09 2.94352E-13
6.51596E-09 2.67437E-13
6.87293E-09 2.43673E-13
7.23942E-09 2.22335E-13
7.61544E-09 2.03409E-13
1.18991E-08 9.31922E-14
1.71347E-08 5.01360E-14
2.33223E-08 3.01666E-14
3.04617E-08 1.95335E-14
3.85531E-08 1.33299E-14
4.75965E-08 9.44416E-15
5.75917E-08 6.88359E-15
6.85389E-08 5.12710E-15
8.04380E-08 3.89720E-15
9.32891E-08 3.01088E-15
1.07092E-07 2.35952E-15
1.21847E-07 1.87237E-15
1.37554E-07 1.50262E-15
1.54213E-07 1.21833E-15
1.71823E-07 9.96698E-16
1.90386E-07 8.22615E-16
2.09900E-07 6.84403E-16
2.30367E-07 5.73655E-16
2.51785E-07 4.84158E-16
2.74156E-07 4.11246E-16
2.97478E-07 3.51399E-16
3.21752E-07 3.01950E-16
3.46978E-07 2.60802E-16
3.73156E-07 2.26360E-16
4.00286E-07 1.97375E-16
4.28368E-07 1.72849E-16
4.57402E-07 1.51993E-16
4.87388E-07 1.34169E-16
5.18325E-07 1.18866E-16
5.50215E-07 1.05673E-16
5.83057E-07 9.42503E-17
6.16850E-07 8.43222E-17
6.51596E-07 7.56613E-17
6.87293E-07 6.80790E-17
7.23942E-07 6.14203E-17
7.61543E-07 5.55531E-17
1.18991E-06 2.28721E-17
1.71347E-06 1.10528E-17
2.33223E-06 5.97163E-18
3.04617E-06 3.50149E-18
3.85531E-06 2.18642E-18
4.75964E-06 1.43473E-18
5.75916E-06 9.80058E-19
6.85388E-06 6.92053E-19
8.04378E-06 5.02488E-19
9.32888E-06 3.73608E-19
1.07092E-05 2.83523E-19
1.21846E-05 2.19026E-19
1.37553E-05 1.71870E-19
1.54212E-05 1.36749E-19
1.71822E-05 1.10158E-19
1.90385E-05 8.98144E-20
2.09899E-05 7.38831E-20
2.30365E-05 6.13142E-20
2.51783E-05 5.13024E-20
2.74153E-05 4.32567E-20
2.97475E-05 3.67360E-20
3.21749E-05 3.14063E-20
3.46974E-05 2.70136E-20
3.73152E-05 2.33640E-20
4.00281E-05 2.03091E-20
4.28362E-05 1.77351E-20
4.57395E-05 1.55540E-20
4.87380E-05 1.36967E-20
5.18317E-05 1.21084E-20
5.50205E-05 1.07443E-20
5.83045E-05 9.56804E-21
6.16838E-05 8.54926E-21
6.51582E-05 7.66301E-21
6.87277E-05 6.88872E-21
7.23925E-05 6.20952E-21
7.61524E-05 5.61132E-21
9.21439E-05 3.83168E-21
1.09658E-04 2.70617E-21
1.28695E-04 1.96469E-21
1.49255E-04 1.46076E-21
1.71338E-04 1.10862E-21
1.94942E-04 8.56345E-22
2.20070E-04 6.72048E-22
2.46720E-04 5.34685E-22
2.74892E-04 4.30735E-22
3.04586E-04 3.50856E-22
3.35803E-04 2.88654E-22
3.68542E-04 2.39665E-22
4.02802E-04 2.00624E-22
4.38585E-04 1.69232E-22
4.75889E-04 1.43741E-22
5.14715E-04 1.22875E-22
5.55063E-04 1.05663E-22
5.96931E-04 9.13591E-23
6.40321E-04 7.93995E-23
6.85233E-04 6.93316E-23
7.31665E-04 6.08116E-23
7.79618E-04 5.35608E-23
8.29092E-04 4.73586E-23
8.80086E-04 4.20298E-23
9.32601E-04 3.74287E-23
9.86636E-04 3.34412E-23
1.04219E-03 2.99704E-23
1.09927E-03 2.69384E-23
1.15786E-03 2.42806E-23
1.21797E-03 2.19422E-23
1.27961E-03 1.98791E-23
1.34276E-03 1.80525E-23
1.40743E-03 1.64311E-23
1.47362E-03 1.49877E-23
1.54133E-03 1.36992E-23
1.61056E-03 1.25465E-23
1.68131E-03 1.15123E-23
1.75357E-03 1.05826E-23
1.82735E-03 9.74476E-24
1.90265E-03 8.98825E-24
1.97947E-03 8.30377E-24
2.05780E-03 7.68314E-24
2.13765E-03 7.11949E-24
2.21902E-03 6.60653E-24
2.30190E-03 6.13896E-24
2.38630E-03 5.71202E-24
2.47222E-03 5.32152E-24
2.55965E-03 4.96386E-24
2.64859E-03 4.63570E-24
2.73905E-03 4.33424E-24
2.83103E-03 4.05686E-24
2.92452E-03 3.80132E-24
3.01952E-03 3.56558E-24
3.11604E-03 3.34782E-24
3.21407E-03 3.14644E-24
3.31362E-03 2.95995E-24
3.41468E-03 2.78708E-24
3.51725E-03 2.62664E-24
3.62133E-03 2.47757E-24
3.72692E-03 2.33893E-24
3.83403E-03 2.20984E-24
3.94265E-03 2.08953E-24
4.05278E-03 1.97729E-24
4.16442E-03 1.87248E-24
4.27757E-03 1.77453E-24
4.39223E-03 1.68289E-24
4.50840E-03 1.59709E-24
4.62608E-03 1.51667E-24
4.74527E-03 1.44126E-24
4.86597E-03 1.37047E-24
4.98817E-03 1.30397E-24
5.11188E-03 1.24145E-24
5.23711E-03 1.18263E-24
5.36383E-03 1.12725E-24
5.49207E-03 1.07507E-24
5.62181E-03 1.02587E-24
5.75306E-03 9.79457E-25
5.88581E-03 9.35631E-25
6.02007E-03 8.94228E-25
6.15583E-03 8.55086E-25
6.29310E-03 8.18061E-25
6.43187E-03 7.83016E-25
6.57214E-03 7.49824E-25
6.71392E-03 7.18372E-25
6.85720E-03 6.88548E-25
7.00198E-03 6.60255E-25
7.14827E-03 6.33398E-25
7.29605E-03 6.07890E-25
7.44534E-03 5.83653E-25
7.59612E-03 5.60609E-25
7.97965E-03 5.07777E-25
8.37255E-03 4.61016E-25
8.77480E-03 4.19508E-25
9.18641E-03 3.82560E-25
9.60736E-03 3.49584E-25
1.00376E-02 3.20079E-25
1.04773E-02 2.93616E-25
1.09262E-02 2.69827E-25
1.13844E-02 2.48393E-25
1.18520E-02 2.29041E-25
1.23288E-02 2.11533E-25
1.28150E-02 1.95662E-25
1.33104E-02 1.81248E-25
1.38150E-02 1.68134E-25
1.43290E-02 1.56180E-25
1.48521E-02 1.45268E-25
1.53845E-02 1.35288E-25
1.59262E-02 1.26149E-25
1.64770E-02 1.17765E-25
1.70371E-02 1.10064E-25
1.76063E-02 1.02980E-25
1.81848E-02 9.64550E-26
1.87724E-02 9.04362E-26
1.93692E-02 8.48777E-26
1.99751E-02 7.97379E-26
2.05901E-02 7.49795E-26
2.12143E-02 7.05692E-26
2.18476E-02 6.64769E-26
2.24900E-02 6.26754E-26
2.31415E-02 5.91404E-26
2.38021E-02 5.58498E-26
2.44717E-02 5.27837E-26
2.51504E-02 4.99239E-26
2.58382E-02 4.72540E-26
2.65349E-02 4.47592E-26
2.72407E-02 4.24258E-26
2.79555E-02 4.02415E-26
2.86793E-02 3.81951E-26
2.94120E-02 3.62762E-26
3.01537E-02 3.44755E-26
3.09043E-02 3.27843E-26
3.16639E-02 3.11948E-26
3.24324E-02 2.96997E-26
3.32098E-02 2.82925E-26
3.39961E-02 2.69669E-26
3.47912E-02 2.57174E-26
3.55952E-02 2.45389E-26
3.64081E-02 2.34265E-26
3.72297E-02 2.23758E-26
3.80602E-02 2.13829E-26
3.88995E-02 2.04439E-26
3.97476E-02 1.95554E-26
4.06044E-02 1.87142E-26
4.14700E-02 1.79173E-26
4.23443E-02 1.71619E-26
4.32273E-02 1.64455E-26
4.41190E-02 1.57657E-26
4.50194E-02 1.51202E-26
4.59284E-02 1.45071E-26
4.68461E-02 1.39244E-26
4.87074E-02 1.28432E-26
5.06030E-02 1.18637E-26
5.25328E-02 1.09747E-26
5.44967E-02 1.01664E-26
5.64946E-02 9.43025E-27
5.85262E-02 8.75861E-27
6.05914E-02 8.14486E-27
6.26901E-02 7.58317E-27
6.48222E-02 7.06834E-27
6.69873E-02 6.59578E-27
6.91854E-02 6.16143E-27
7.14163E-02 5.76165E-27
7.36799E-02 5.39321E-27
7.59760E-02 5.05323E-27
7.83043E-02 4.73912E-27
8.06647E-02 4.44858E-27
8.30571E-02 4.17953E-27
8.54812E-02 3.93010E-27
8.79369E-02 3.69862E-27
9.04240E-02 3.48356E-27
9.29422E-02 3.28357E-27
9.54915E-02 3.09739E-27
9.80716E-02 2.92392E-27
1.00682E-01 2.76213E-27
1.03323E-01 2.61110E-27
1.05995E-01 2.46999E-27
1.08696E-01 2.33803E-27
1.11427E-01 2.21454E-27
1.14188E-01 2.09887E-27
1.16978E-01 1.99044E-27
1.19797E-01 1.88872E-27
1.22645E-01 1.79323E-27
1.25522E-01 1.70351E-27
1.28428E-01 1.61917E-27
1.31361E-01 1.53981E-27
1.34323E-01 1.46510E-27
1.37313E-01 1.39471E-27
1.40330E-01 1.32836E-27
1.43375E-01 1.26577E-27
1.46447E-01 1.20670E-27
1.49545E-01 1.15091E-27
1.52671E-01 1.09818E-27
1.55823E-01 1.04833E-27
1.59001E-01 1.00117E-27
1.62205E-01 9.56522E-28
1.65435E-01 9.14240E-28
1.68690E-01 8.74174E-28
1.71970E-01 8.36188E-28
1.75276E-01 8.00156E-28
1.78606E-01 7.65960E-28
1.81961E-01 7.33493E-28
1.85340E-01 7.02651E-28
1.88743E-01 6.73339E-28
1.92169E-01 6.45470E-28
1.95619E-01 6.18960E-28
1.99092E-01 5.93732E-28
2.02589E-01 5.69714E-28
2.06107E-01 5.46839E-28
2.09649E-01 5.25042E-28
2.13212E-01 5.04266E-28
2.16797E-01 4.84453E-28
2.20404E-01 4.65553E-28
2.24032E-01 4.47516E-28
2.27680E-01 4.30297E-28
2.31350E-01 4.13853E-28
2.35040E-01 3.98142E-28
2.38751E-01 3.83127E-28
2.42481E-01 3.68773E-28
2.46231E-01 3.55045E-28
2.50000E-01 3.41912E-28
2.53788E-01 3.29344E-28
2.57595E-01 3.17313E-28
2.61421E-01 3.05792E-28
2.65264E-01 2.94756E-28
2.69126E-01 2.84182E-28
2.73005E-01 2.74047E-28
2.76901E-01 2.64330E-28
2.80814E-01 2.55011E-28
2.84744E-01 2.46072E-28
2.88691E-01 2.37494E-28
2.92653E-01 2.29261E-28
2.96632E-01 2.21356E-28
3.00625E-01 2.13765E-28
3.04634E-01 2.06473E-28
3.08658E-01 1.99466E-28
3.12697E-01 1.92732E-28
3.16749E-01 1.86259E-28
3.20816E-01 1.80034E-28
3.24896E-01 1.74048E-28
3.28990E-01 1.68289E-28
3.33097E-01 1.62747E-28
3.37216E-01 1.57413E-28
3.41348E-01 1.52279E-28
3.45492E-01 1.47335E-28
3.49647E-01 1.42573E-28
3.53814E-01 1.37986E-28
3.57992E-01 1.33567E-28
3.62181E-01 1.29307E-28
3.66381E-01 1.25202E-28
3.70590E-01 1.21244E-28
3.74810E-01 1.17427E-28
3.79039E-01 1.13746E-28
3.83277E-01 1.10195E-28
3.87524E-01 1.06768E-28
3.91780E-01 1.03462E-28
3.96044E-01 1.00270E-28
4.00316E-01 9.71887E-29
4.04596E-01 9.42135E-29
4.08882E-01 9.13403E-29
4.13176E-01 8.85651E-29
4.17476E-01 8.58840E-29
4.21783E-01 8.32933E-29
4.26095E-01 8.07898E-29
4.30413E-01 7.83699E-29
4.34737E-01 7.60305E-29
4.39065E-01 7.37687E-29
4.43398E-01 7.15814E-29
4.47736E-01 6.94659E-29
4.52077E-01 6.74195E-29
4.56422E-01 6.54397E-29
4.60770E-01 6.35240E-29
4.65122E-01 6.16700E-29
4.69476E-01 5.98755E-29
4.73832E-01 5.81384E-29
4.78190E-01 5.64566E-29
4.82550E-01 5.48280E-29
4.86912E-01 5.32508E-29
4.91274E-01 5.17232E-29
4.95637E-01 5.02433E-29
5.00000E-01 4.88096E-29
5.04363E-01 4.74203E-29
5.08726E-01 4.60740E-29
5.13088E-01 4.47692E-29
5.17450E-01 4.35043E-29
5.21810E-01 4.22781E-29
5.26168E-01 4.10891E-29
5.30524E-01 3.99362E-29
5.34878E-01 3.88181E-29
5.39230E-01 3.77337E-29
5.43578E-01 3.66817E-29
5.47923E-01 3.56611E-29
5.52264E-01 3.46709E-29
5.56602E-01 3.37100E-29
5.60935E-01 3.27775E-29
5.65263E-01 3.18724E-29
5.69587E-01 3.09939E-29
5.73905E-01 3.01410E-29
5.78217E-01 2.93130E-29
5.82524E-01 2.85089E-29
5.86824E-01 2.77281E-29
5.91118E-01 2.69698E-29
5.95404E-01 2.62333E-29
5.99684E-01 2.55179E-29
6.03956E-01 2.48229E-29
6.08220E-01 2.41476E-29
6.12476E-01 2.34915E-29
6.16723E-01 2.28539E-29
6.20961E-01 2.22343E-29
6.25190E-01 2.16320E-29
6.29410E-01 2.10466E-29
6.33619E-01 2.04776E-29
6.37819E-01 1.99244E-29
6.42008E-01 1.93865E-29
6.46186E-01 1.88635E-29
6.50353E-01 1.83549E-29
6.54508E-01 1.78603E-29
6.58652E-01 1.73793E-29
6.62784E-01 1.69114E-29
6.66903E-01 1.64562E-29
6.71010E-01 1.60135E-29
6.75104E-01 1.55827E-29
6.79184E-01 1.51636E-29
6.83251E-01 1.47557E-29
6.87303E-01 1.43589E-29
6.91342E-01 1.39726E-29
6.95366E-01 1.35968E-29
6.99375E-01 1.32309E-29
7.03368E-01 1.28748E-29
7.07347E-01 1.25281E-29
7.11309E-01 1.21906E-29
7.15256E-01 1.18620E-29
7.19186E-01 1.15421E-29
7.23099E-01 1.12306E-29
7.26995E-01 1.09272E-29
7.30874E-01 1.06318E-29
7.34736E-01 1.03442E-29
7.38579E-01 1.00640E-29
7.42405E-01 9.79105E-30
7.46212E-01 9.52522E-30
7.50000E-01 9.26627E-30
7.53769E-01 9.01402E-30
7.57519E-01 8.76826E-30
7.61249E-01 8.52882E-30
7.64960E-01 8.29554E-30
7.68650E-01 8.06824E-30
7.72320E-01 7.84675E-30
7.75968E-01 7.63092E-30
7.79596E-01 7.42059E-30
7.83203E-01 7.21560E-30
7.86788E-01 7.01583E-30
7.90351E-01 6.82113E-30
7.93893E-01 6.63136E-30
7.97411E-01 6.44638E-30
8.00908E-01 6.26608E-30
8.04381E-01 6.09032E-30
8.07831E-01 5.91898E-30
8.11257E-01 5.75196E-30
8.14660E-01 5.58913E-30
8.18039E-01 5.43039E-30
8.21394E-01 5.27561E-30
8.24724E-01 5.12472E-30
8.28030E-01 4.97759E-30
8.31310E-01 4.83415E-30
8.34565E-01 4.69428E-30
8.37795E-01 4.55791E-30
8.40999E-01 4.42492E-30
8.44177E-01 4.29526E-30
8.47329E-01 4.16882E-30
8.50455E-01 4.04552E-30
8.53553E-01 3.92529E-30
8.56625E-01 3.80805E-30
8.59670E-01 3.69372E-30
8.62687E-01 3.58224E-30
8.65677E-01 3.47353E-30
8.68639E-01 3.36751E-30
8.71572E-01 3.26413E-30
8.74478E-01 3.16333E-30
8.77355E-01 3.06503E-30
8.80203E-01 2.96917E-30
8.83022E-01 2.87571E-30
8.85812E-01 2.78457E-30
8.88573E-01 2.69570E-30
8.91304E-01 2.60906E-30
8.94005E-01 2.52458E-30
8.96677E-01 2.44221E-30
8.99318E-01 2.36192E-30
9.01928E-01 2.28363E-30
9.04508E-01 2.20731E-30
9.07058E-01 2.13292E-30
9.09576E-01 2.06041E-30
9.12063E-01 1.98973E-30
9.14519E-01 1.92085E-30
9.16943E-01 1.85371E-30
9.19335E-01 1.78830E-30
9.21696E-01 1.72456E-30
9.24024E-01 1.66245E-30
9.26320E-01 1.60195E-30
9.28584E-01 1.54301E-30
9.30815E-01 1.48560E-30
9.33013E-01 1.42969E-30
9.35178E-01 1.37525E-30
9.37310E-01 1.32225E-30
9.39409E-01 1.27064E-30
9.41474E-01 1.22042E-30
9.43505E-01 1.17154E-30
9.45503E-01 1.12398E-30
9.47467E-01 1.07770E-30
9.49397E-01 1.03270E-30
9.51293E-01 9.88934E-31
9.53154E-01 9.46382E-31
9.54981E-01 9.05023E-31
9.56773E-01 8.64833E-31
9.58530E-01 8.25790E-31
9.60252E-01 7.87866E-31
9.61940E-01 7.51049E-31
9.63592E-01 7.15313E-31
9.65209E-01 6.80641E-31
9.66790E-01 6.47009E-31
9.68336E-01 6.14407E-31
9.69846E-01 5.82808E-31
9.71321E-01 5.52200E-31
9.72759E-01 5.22566E-31
9.74162E-01 4.93887E-31
9.75528E-01 4.66150E-31
9.76858E-01 4.39338E-31
9.78152E-01 4.13438E-31
9.79410E-01 3.88434E-31
9.80631E-01 3.64314E-31
9.81815E-01 3.41065E-31
9.82963E-01 3.18675E-31
9.84074E-01 2.97130E-31
9.85148E-01 2.76419E-31
9.86185E-01 2.56531E-31
9.87185E-01 2.37455E-31
9.88148E-01 2.19184E-31
9.89074E-01 2.01703E-31
9.89962E-01 1.85006E-31
9.90814E-01 1.69083E-31
9.91627E-01 1.53926E-31
9.92404E-01 1.39529E-31
9.93143E-01 1.25880E-31
9.93844E-01 1.12973E-31
9.94508E-01 1.00803E-31
9.95134E-01 8.93623E-32
9.95722E-01 7.86448E-32
9.96273E-01 6.86437E-32
9.96786E-01 5.93574E-32
9.97261E-01 5.07773E-32
9.97698E-01 4.29007E-32
9.98097E-01 3.57216E-32
9.98459E-01 2.92393E-32
9.98782E-01 2.34474E-32
9.99067E-01 1.83443E-32
9.99315E-01 1.39263E-32
9.99524E-01 1.01926E-32
9.99695E-01 7.14082E-33
9.99829E-01 4.76886E-33
9.99924E-01 3.07527E-33
9.99981E-01 2.05979E-33
1.00000E+00 1.72192E-33
