 #
 # Subroutine ELSEPA. Elastic scattering of electrons and positrons
 #                    by neutral atoms and positive ions
 #
 # Projectile: electron
 # Kinetic energy = 8.00000E+08 eV = 2.93995E+07 a.u.
 #
 # WARNING: High-energy factorization with free-atom DF screening.
 #          Absorption, polarization and exchange corrections are
 #          switched off.
 #          Phase shifts are calculated for the bare nucleus.
 #          Scattering amplitudes are not evaluated.
 #
 # Element: Be,  Z =   4,  atomic weight = 9.01220E+00 g/mol
 #
 # Nuclear model: Fermi distribution
 #                Average radius = 2.22669E-13 cm
 #                Skin thickness = 5.46000E-14 cm
 #
 # Number of electrons =  4
 #
 # Total elastic cross section = 1.68236E-19 cm**2 = 6.00780E-03 a0**2
 # 1st transport cross section = 5.82255E-29 cm**2 = 2.07927E-12 a0**2
 # 2nd transport cross section = 1.74615E-28 cm**2 = 6.23560E-12 a0**2
 #
 #
 # Differential cross section:                       MU=(1-COS(THETA))/2
 #
 #  THETA        MU          DCS          DCS        Sherman      error
 #  (deg)                 (cm**2/sr)   (a0**2/sr)    function
 #----------------------------------------------------------------------
0.00000E+00 2.28816E-09
7.61557E-13 1.85114E-09
1.18994E-12 1.65332E-09
1.71346E-12 1.44804E-09
2.33225E-12 1.24711E-09
3.04617E-12 1.05675E-09
3.85530E-12 8.89296E-10
4.75964E-12 7.39756E-10
5.75917E-12 6.13139E-10
6.85391E-12 5.05808E-10
8.04379E-12 4.16766E-10
9.32893E-12 3.43400E-10
1.07092E-11 2.83333E-10
1.21847E-11 2.34362E-10
1.37554E-11 1.94624E-10
1.54213E-11 1.62248E-10
1.71823E-11 1.35975E-10
1.90386E-11 1.14531E-10
2.09900E-11 9.69891E-11
2.30367E-11 8.26373E-11
2.51785E-11 7.07471E-11
2.74156E-11 6.09892E-11
2.97478E-11 5.28066E-11
3.21752E-11 4.60211E-11
3.46979E-11 4.02897E-11
3.73157E-11 3.54626E-11
4.00286E-11 3.13648E-11
4.28368E-11 2.78612E-11
4.57402E-11 2.48702E-11
4.87388E-11 2.22787E-11
5.18325E-11 2.00504E-11
5.50215E-11 1.81011E-11
5.83057E-11 1.63989E-11
6.16850E-11 1.49061E-11
6.51595E-11 1.35942E-11
6.87293E-11 1.24354E-11
7.23943E-11 1.14054E-11
7.61544E-11 1.04892E-11
1.18991E-10 5.05961E-12
1.71347E-10 2.79781E-12
2.33223E-10 1.68006E-12
3.04617E-10 1.06723E-12
3.85531E-10 7.08160E-13
4.75965E-10 4.86767E-13
5.75917E-10 3.43992E-13
6.85389E-10 2.49410E-13
8.04380E-10 1.84724E-13
9.32891E-10 1.39472E-13
1.07092E-09 1.07128E-13
1.21847E-09 8.35280E-14
1.37554E-09 6.60369E-14
1.54213E-09 5.28507E-14
1.71823E-09 4.27759E-14
1.90386E-09 3.49771E-14
2.09900E-09 2.88657E-14
2.30367E-09 2.40272E-14
2.51785E-09 2.01558E-14
2.74156E-09 1.70309E-14
2.97478E-09 1.44867E-14
3.21752E-09 1.23986E-14
3.46978E-09 1.06727E-14
3.73156E-09 9.23596E-15
4.00286E-09 8.03256E-15
4.28368E-09 7.01853E-15
4.57402E-09 6.15924E-15
4.87388E-09 5.42735E-15
5.18326E-09 4.80079E-15
5.50215E-09 4.26199E-15
5.83057E-09 3.79661E-15
6.16850E-09 3.39297E-15
6.51596E-09 3.04153E-15
6.87293E-09 2.73437E-15
7.23942E-09 2.46500E-15
7.61544E-09 2.22797E-15
1.18991E-08 9.13289E-16
1.71347E-08 4.40560E-16
2.33223E-08 2.37844E-16
3.04617E-08 1.39435E-16
3.85531E-08 8.70553E-17
4.75965E-08 5.71202E-17
5.75917E-08 3.90155E-17
6.85389E-08 2.75484E-17
8.04380E-08 2.00013E-17
9.32891E-08 1.48706E-17
1.07092E-07 1.12845E-17
1.21847E-07 8.71716E-18
1.37554E-07 6.84013E-18
1.54213E-07 5.44220E-18
1.71823E-07 4.38384E-18
1.90386E-07 3.57069E-18
2.09900E-07 2.93764E-18
2.30367E-07 2.43886E-18
2.51785E-07 2.04160E-18
2.74156E-07 1.72202E-18
2.97478E-07 1.46260E-18
3.21752E-07 1.25024E-18
3.46978E-07 1.07506E-18
3.73156E-07 9.29521E-19
4.00286E-07 8.07795E-19
4.28368E-07 7.05358E-19
4.57402E-07 6.18657E-19
4.87388E-07 5.44876E-19
5.18325E-07 4.81774E-19
5.50215E-07 4.27548E-19
5.83057E-07 3.80741E-19
6.16850E-07 3.40168E-19
6.51596E-07 3.04858E-19
6.87293E-07 2.74013E-19
7.23942E-07 2.46973E-19
7.61543E-07 2.23187E-19
1.18991E-06 9.14196E-20
1.71347E-06 4.40884E-20
2.33223E-06 2.37983E-20
3.04617E-06 1.39505E-20
3.85531E-06 8.70939E-21
4.75964E-06 5.71435E-21
5.75916E-06 3.90306E-21
6.85388E-06 2.75588E-21
8.04378E-06 2.00088E-21
9.32888E-06 1.48762E-21
1.07092E-05 1.12888E-21
1.21846E-05 8.72050E-22
1.37553E-05 6.84282E-22
1.54212E-05 5.44440E-22
1.71822E-05 4.38566E-22
1.90385E-05 3.57222E-22
2.09899E-05 2.94140E-22
2.30365E-05 2.44097E-22
2.51783E-05 2.04236E-22
2.74153E-05 1.72204E-22
2.97475E-05 1.46244E-22
3.21749E-05 1.25026E-22
3.46974E-05 1.07539E-22
3.73152E-05 9.30096E-23
4.00281E-05 8.08480E-23
4.28362E-05 7.06010E-23
4.57395E-05 6.19180E-23
4.87380E-05 5.45243E-23
5.18317E-05 4.82011E-23
5.50205E-05 4.27710E-23
5.83045E-05 3.80883E-23
6.16838E-05 3.40326E-23
6.51582E-05 3.05047E-23
6.87277E-05 2.74224E-23
7.23925E-05 2.47186E-23
7.61524E-05 2.20755E-23
9.21439E-05 1.50366E-23
1.09658E-04 1.05909E-23
1.28695E-04 7.66626E-24
1.49255E-04 5.68170E-24
1.71338E-04 4.29724E-24
1.94942E-04 3.30718E-24
2.20070E-04 2.58529E-24
2.46720E-04 2.04835E-24
2.74892E-04 1.64290E-24
3.04586E-04 1.33205E-24
3.35803E-04 1.09058E-24
3.68542E-04 9.00881E-25
4.02802E-04 7.50114E-25
4.38585E-04 6.29225E-25
4.75889E-04 5.31346E-25
5.14715E-04 4.51473E-25
5.55063E-04 3.85802E-25
5.96931E-04 3.31404E-25
6.40321E-04 2.86081E-25
6.85233E-04 2.48063E-25
7.31665E-04 2.16011E-25
7.79618E-04 1.88839E-25
8.29092E-04 1.65690E-25
8.80086E-04 1.45883E-25
9.32601E-04 1.28855E-25
9.86636E-04 1.14162E-25
1.04219E-03 1.01432E-25
1.09927E-03 9.03640E-26
1.15786E-03 8.07087E-26
1.21797E-03 7.22563E-26
1.27961E-03 6.48372E-26
1.34276E-03 5.83036E-26
1.40743E-03 5.25356E-26
1.47362E-03 4.74294E-26
1.54133E-03 4.28976E-26
1.61056E-03 3.88669E-26
1.68131E-03 3.52726E-26
1.75357E-03 3.20616E-26
1.82735E-03 2.91864E-26
1.90265E-03 2.66071E-26
1.97947E-03 2.42890E-26
2.05780E-03 2.22015E-26
2.13765E-03 2.03189E-26
2.21902E-03 1.86178E-26
2.30190E-03 1.70787E-26
2.38630E-03 1.56838E-26
2.47222E-03 1.44178E-26
2.55965E-03 1.32672E-26
2.64859E-03 1.22200E-26
2.73905E-03 1.12659E-26
2.83103E-03 1.03952E-26
2.92452E-03 9.59997E-27
3.01952E-03 8.87272E-27
3.11604E-03 8.20683E-27
3.21407E-03 7.59661E-27
3.31362E-03 7.03671E-27
3.41468E-03 6.52256E-27
3.51725E-03 6.04993E-27
3.62133E-03 5.61507E-27
3.72692E-03 5.21465E-27
3.83403E-03 4.84557E-27
3.94265E-03 4.50514E-27
4.05278E-03 4.19087E-27
4.16442E-03 3.90052E-27
4.27757E-03 3.63210E-27
4.39223E-03 3.38374E-27
4.50840E-03 3.15382E-27
4.62608E-03 2.94080E-27
4.74527E-03 2.74333E-27
4.86597E-03 2.56016E-27
4.98817E-03 2.39014E-27
5.11188E-03 2.23225E-27
5.23711E-03 2.08553E-27
5.36383E-03 1.94914E-27
5.49207E-03 1.82226E-27
5.62181E-03 1.70418E-27
5.75306E-03 1.59423E-27
5.88581E-03 1.49181E-27
6.02007E-03 1.39637E-27
6.15583E-03 1.30737E-27
6.29310E-03 1.22437E-27
6.43187E-03 1.14691E-27
6.57214E-03 1.07461E-27
6.71392E-03 1.00709E-27
6.85720E-03 9.44007E-28
7.00198E-03 8.85062E-28
7.14827E-03 8.29958E-28
7.29605E-03 7.78428E-28
7.44534E-03 7.30227E-28
7.59612E-03 6.85124E-28
7.97965E-03 5.84577E-28
8.37255E-03 4.99218E-28
8.77480E-03 4.26641E-28
9.18641E-03 3.64846E-28
9.60736E-03 3.12165E-28
1.00376E-02 2.67204E-28
1.04773E-02 2.28793E-28
1.09262E-02 1.95950E-28
1.13844E-02 1.67846E-28
1.18520E-02 1.43781E-28
1.23288E-02 1.23164E-28
1.28150E-02 1.05492E-28
1.33104E-02 9.03385E-29
1.38150E-02 7.73419E-29
1.43290E-02 6.61927E-29
1.48521E-02 5.66272E-29
1.53845E-02 4.84204E-29
1.59262E-02 4.13795E-29
1.64770E-02 3.53398E-29
1.70371E-02 3.01601E-29
1.76063E-02 2.57190E-29
1.81848E-02 2.19127E-29
1.87724E-02 1.86518E-29
1.93692E-02 1.58597E-29
1.99751E-02 1.34703E-29
2.05901E-02 1.14270E-29
2.12143E-02 9.68084E-30
2.18476E-02 8.18993E-30
2.24900E-02 6.91809E-30
2.31415E-02 5.83421E-30
2.38021E-02 4.91153E-30
2.44717E-02 4.12699E-30
2.51504E-02 3.46077E-30
2.58382E-02 2.89580E-30
2.65349E-02 2.41742E-30
2.72407E-02 2.01300E-30
2.79555E-02 1.67171E-30
2.86793E-02 1.38424E-30
2.94120E-02 1.14259E-30
3.01537E-02 9.39902E-31
3.09043E-02 7.70303E-31
3.16639E-02 6.28755E-31
3.24324E-02 5.10950E-31
3.32098E-02 4.13206E-31
3.39961E-02 3.32377E-31
3.47912E-02 2.65782E-31
3.55952E-02 2.11136E-31
3.64081E-02 1.66495E-31
3.72297E-02 1.30210E-31
3.80602E-02 1.00881E-31
3.88995E-02 7.73249E-32
3.97476E-02 5.85416E-32
4.06044E-02 4.36884E-32
4.14700E-02 3.20569E-32
4.23443E-02 2.30530E-32
4.32273E-02 1.61799E-32
4.41190E-02 1.10237E-32
4.50194E-02 7.24009E-33
4.59284E-02 4.54452E-33
4.68461E-02 2.70235E-33
4.87074E-02 8.43942E-34
5.06030E-02 5.17352E-34
5.25328E-02 9.78068E-34
5.44967E-02 1.76003E-33
5.64946E-02 2.58638E-33
5.85262E-02 3.30600E-33
6.05914E-02 3.84901E-33
6.26901E-02 4.19585E-33
6.48222E-02 4.35643E-33
6.69873E-02 4.35604E-33
6.91854E-02 4.22641E-33
7.14163E-02 4.00009E-33
7.36799E-02 3.70731E-33
7.59760E-02 3.37426E-33
7.83043E-02 3.02249E-33
8.06647E-02 2.66890E-33
8.30571E-02 2.32610E-33
8.54812E-02 2.00296E-33
8.79369E-02 1.70523E-33
9.04240E-02 1.43612E-33
9.29422E-02 1.19689E-33
9.54915E-02 9.87359E-34
9.80716E-02 8.06284E-34
1.00682E-01 6.51748E-34
1.03323E-01 5.21401E-34
1.05995E-01 4.12702E-34
1.08696E-01 3.23048E-34
1.11427E-01 2.49916E-34
1.14188E-01 1.90920E-34
1.16978E-01 1.43868E-34
1.19797E-01 1.06786E-34
1.22645E-01 7.79310E-35
1.25522E-01 5.57813E-35
1.28428E-01 3.90369E-35
1.31361E-01 2.65929E-35
1.34323E-01 1.75284E-35
1.37313E-01 1.10808E-35
1.40330E-01 6.63067E-36
1.43375E-01 3.67620E-36
1.46447E-01 1.82066E-36
1.49545E-01 7.51773E-37
1.52671E-01 2.28701E-37
1.55823E-01 6.84565E-38
1.59001E-01 1.34859E-37
1.62205E-01 3.28769E-37
1.65435E-01 5.80185E-37
1.68690E-01 8.41716E-37
1.71970E-01 1.08293E-36
1.75276E-01 1.28582E-36
1.78606E-01 1.44173E-36
1.81961E-01 1.54846E-36
1.85340E-01 1.60777E-36
1.88743E-01 1.62437E-36
1.92169E-01 1.60414E-36
1.95619E-01 1.55408E-36
1.99092E-01 1.48012E-36
2.02589E-01 1.38938E-36
2.06107E-01 1.28689E-36
2.09649E-01 1.17761E-36
2.13212E-01 1.06580E-36
2.16797E-01 9.54696E-37
2.20404E-01 8.46891E-37
2.24032E-01 7.44337E-37
2.27680E-01 6.48473E-37
2.31350E-01 5.60152E-37
2.35040E-01 4.79777E-37
2.38751E-01 4.07655E-37
2.42481E-01 3.43516E-37
2.46231E-01 2.87123E-37
2.50000E-01 2.38065E-37
2.53788E-01 1.95674E-37
2.57595E-01 1.59537E-37
2.61421E-01 1.28825E-37
2.65264E-01 1.03082E-37
2.69126E-01 8.16210E-38
2.73005E-01 6.39468E-38
2.76901E-01 4.94947E-38
2.80814E-01 3.78062E-38
2.84744E-01 2.84610E-38
2.88691E-01 2.10729E-38
2.92653E-01 1.52993E-38
2.96632E-01 1.08708E-38
3.00625E-01 7.51249E-39
3.04634E-01 5.03590E-39
3.08658E-01 3.23072E-39
3.12697E-01 1.96508E-39
3.16749E-01 1.10942E-39
3.20816E-01 5.60412E-40
3.24896E-01 1.00000E-45
3.28990E-01 1.00000E-45
3.33097E-01 1.00000E-45
3.37216E-01 1.00000E-45
3.41348E-01 1.00000E-45
3.45492E-01 1.00000E-45
3.49647E-01 1.00000E-45
3.53814E-01 1.00000E-45
3.57992E-01 1.00000E-45
3.62181E-01 1.00000E-45
3.66381E-01 1.00000E-45
3.70590E-01 1.00000E-45
3.74810E-01 1.00000E-45
3.79039E-01 1.00000E-45
3.83277E-01 1.00000E-45
3.87524E-01 1.00000E-45
3.91780E-01 1.00000E-45
3.96044E-01 1.00000E-45
4.00316E-01 1.00000E-45
4.04596E-01 1.00000E-45
4.08882E-01 1.00000E-45
4.13176E-01 1.00000E-45
4.17476E-01 1.00000E-45
4.21783E-01 1.00000E-45
4.26095E-01 1.00000E-45
4.30413E-01 1.00000E-45
4.34737E-01 1.00000E-45
4.39065E-01 1.00000E-45
4.43398E-01 1.00000E-45
4.47736E-01 1.00000E-45
4.52077E-01 1.00000E-45
4.56422E-01 1.00000E-45
4.60770E-01 1.00000E-45
4.65122E-01 1.00000E-45
4.69476E-01 1.00000E-45
4.73832E-01 1.00000E-45
4.78190E-01 1.00000E-45
4.82550E-01 1.00000E-45
4.86912E-01 1.00000E-45
4.91274E-01 1.00000E-45
4.95637E-01 1.00000E-45
5.00000E-01 1.00000E-45
5.04363E-01 1.00000E-45
5.08726E-01 1.00000E-45
5.13088E-01 1.00000E-45
5.17450E-01 1.00000E-45
5.21810E-01 1.00000E-45
5.26168E-01 1.00000E-45
5.30524E-01 1.00000E-45
5.34878E-01 1.00000E-45
5.39230E-01 1.00000E-45
5.43578E-01 1.00000E-45
5.47923E-01 1.00000E-45
5.52264E-01 1.00000E-45
5.56602E-01 1.00000E-45
5.60935E-01 1.00000E-45
5.65263E-01 1.00000E-45
5.69587E-01 1.00000E-45
5.73905E-01 1.00000E-45
5.78217E-01 1.00000E-45
5.82524E-01 1.00000E-45
5.86824E-01 1.00000E-45
5.91118E-01 1.00000E-45
5.95404E-01 1.00000E-45
5.99684E-01 1.00000E-45
6.03956E-01 1.00000E-45
6.08220E-01 1.00000E-45
6.12476E-01 1.00000E-45
6.16723E-01 1.00000E-45
6.20961E-01 1.00000E-45
6.25190E-01 1.00000E-45
6.29410E-01 1.00000E-45
6.33619E-01 1.00000E-45
6.37819E-01 1.00000E-45
6.42008E-01 1.00000E-45
6.46186E-01 1.00000E-45
6.50353E-01 1.00000E-45
6.54508E-01 1.00000E-45
6.58652E-01 1.00000E-45
6.62784E-01 1.00000E-45
6.66903E-01 1.00000E-45
6.71010E-01 1.00000E-45
6.75104E-01 1.00000E-45
6.79184E-01 1.00000E-45
6.83251E-01 1.00000E-45
6.87303E-01 1.00000E-45
6.91342E-01 1.00000E-45
6.95366E-01 1.00000E-45
6.99375E-01 1.00000E-45
7.03368E-01 1.00000E-45
7.07347E-01 1.00000E-45
7.11309E-01 1.00000E-45
7.15256E-01 1.00000E-45
7.19186E-01 1.00000E-45
7.23099E-01 1.00000E-45
7.26995E-01 1.00000E-45
7.30874E-01 1.00000E-45
7.34736E-01 1.00000E-45
7.38579E-01 1.00000E-45
7.42405E-01 1.00000E-45
7.46212E-01 1.00000E-45
7.50000E-01 1.00000E-45
7.53769E-01 1.00000E-45
7.57519E-01 1.00000E-45
7.61249E-01 1.00000E-45
7.64960E-01 1.00000E-45
7.68650E-01 1.00000E-45
7.72320E-01 1.00000E-45
7.75968E-01 1.00000E-45
7.79596E-01 1.00000E-45
7.83203E-01 1.00000E-45
7.86788E-01 1.00000E-45
7.90351E-01 1.00000E-45
7.93893E-01 1.00000E-45
7.97411E-01 1.00000E-45
8.00908E-01 1.00000E-45
8.04381E-01 1.00000E-45
8.07831E-01 1.00000E-45
8.11257E-01 1.00000E-45
8.14660E-01 1.00000E-45
8.18039E-01 1.00000E-45
8.21394E-01 1.00000E-45
8.24724E-01 1.00000E-45
8.28030E-01 1.00000E-45
8.31310E-01 1.00000E-45
8.34565E-01 1.00000E-45
8.37795E-01 1.00000E-45
8.40999E-01 1.00000E-45
8.44177E-01 1.00000E-45
8.47329E-01 1.00000E-45
8.50455E-01 1.00000E-45
8.53553E-01 1.00000E-45
8.56625E-01 1.00000E-45
8.59670E-01 1.00000E-45
8.62687E-01 1.00000E-45
8.65677E-01 1.00000E-45
8.68639E-01 1.00000E-45
8.71572E-01 1.00000E-45
8.74478E-01 1.00000E-45
8.77355E-01 1.00000E-45
8.80203E-01 1.00000E-45
8.83022E-01 1.00000E-45
8.85812E-01 1.00000E-45
8.88573E-01 1.00000E-45
8.91304E-01 1.00000E-45
8.94005E-01 1.00000E-45
8.96677E-01 1.00000E-45
8.99318E-01 1.00000E-45
9.01928E-01 1.00000E-45
9.04508E-01 1.00000E-45
9.07058E-01 1.00000E-45
9.09576E-01 1.00000E-45
9.12063E-01 1.00000E-45
9.14519E-01 1.00000E-45
9.16943E-01 1.00000E-45
9.19335E-01 1.00000E-45
9.21696E-01 1.00000E-45
9.24024E-01 1.00000E-45
9.26320E-01 1.00000E-45
9.28584E-01 1.00000E-45
9.30815E-01 1.00000E-45
9.33013E-01 1.00000E-45
9.35178E-01 1.00000E-45
9.37310E-01 1.00000E-45
9.39409E-01 1.00000E-45
9.41474E-01 1.00000E-45
9.43505E-01 1.00000E-45
9.45503E-01 1.00000E-45
9.47467E-01 1.00000E-45
9.49397E-01 1.00000E-45
9.51293E-01 1.00000E-45
9.53154E-01 1.00000E-45
9.54981E-01 1.00000E-45
9.56773E-01 1.00000E-45
9.58530E-01 1.00000E-45
9.60252E-01 1.00000E-45
9.61940E-01 1.00000E-45
9.63592E-01 1.00000E-45
9.65209E-01 1.00000E-45
9.66790E-01 1.00000E-45
9.68336E-01 1.00000E-45
9.69846E-01 1.00000E-45
9.71321E-01 1.00000E-45
9.72759E-01 1.00000E-45
9.74162E-01 1.00000E-45
9.75528E-01 1.00000E-45
9.76858E-01 1.00000E-45
9.78152E-01 1.00000E-45
9.79410E-01 1.00000E-45
9.80631E-01 1.00000E-45
9.81815E-01 1.00000E-45
9.82963E-01 1.00000E-45
9.84074E-01 1.00000E-45
9.85148E-01 1.00000E-45
9.86185E-01 1.00000E-45
9.87185E-01 1.00000E-45
9.88148E-01 1.00000E-45
9.89074E-01 1.00000E-45
9.89962E-01 1.00000E-45
9.90814E-01 1.00000E-45
9.91627E-01 1.00000E-45
9.92404E-01 1.00000E-45
9.93143E-01 1.00000E-45
9.93844E-01 1.00000E-45
9.94508E-01 1.00000E-45
9.95134E-01 1.00000E-45
9.95722E-01 1.00000E-45
9.96273E-01 1.00000E-45
9.96786E-01 1.00000E-45
9.97261E-01 1.00000E-45
9.97698E-01 1.00000E-45
9.98097E-01 1.00000E-45
9.98459E-01 1.00000E-45
9.98782E-01 1.00000E-45
9.99067E-01 1.00000E-45
9.99315E-01 1.00000E-45
9.99524E-01 1.00000E-45
9.99695E-01 1.00000E-45
9.99829E-01 1.00000E-45
9.99924E-01 1.00000E-45
9.99981E-01 1.00000E-45
1.00000E+00 1.00000E-45
