 #
 # Subroutine ELSEPA. Elastic scattering of electrons and positrons
 #                    by neutral atoms and positive ions
 #
 # Projectile: electron
 # Kinetic energy = 4.50000E+08 eV = 1.65372E+07 a.u.
 #
 # WARNING: High-energy factorization with free-atom DF screening.
 #          Absorption, polarization and exchange corrections are
 #          switched off.
 #          Phase shifts are calculated for the bare nucleus.
 #          Scattering amplitudes are not evaluated.
 #
 # Element: Be,  Z =   4,  atomic weight = 9.01220E+00 g/mol
 #
 # Nuclear model: Fermi distribution
 #                Average radius = 2.22669E-13 cm
 #                Skin thickness = 5.46000E-14 cm
 #
 # Number of electrons =  4
 #
 # Total elastic cross section = 1.70094E-19 cm**2 = 6.07418E-03 a0**2
 # 1st transport cross section = 1.83702E-28 cm**2 = 6.56012E-12 a0**2
 # 2nd transport cross section = 5.50498E-28 cm**2 = 1.96587E-11 a0**2
 #
 #
 # Differential cross section:                       MU=(1-COS(THETA))/2
 #
 #  THETA        MU          DCS          DCS        Sherman      error
 #  (deg)                 (cm**2/sr)   (a0**2/sr)    function
 #----------------------------------------------------------------------
0.00000E+00 7.24708E-10
7.61557E-13 6.76569E-10
1.18994E-12 6.51349E-10
1.71346E-12 6.22194E-10
2.33225E-12 5.89919E-10
3.04617E-12 5.55391E-10
3.85530E-12 5.19438E-10
4.75964E-12 4.82839E-10
5.75917E-12 4.46292E-10
6.85391E-12 4.10395E-10
8.04379E-12 3.75272E-10
9.32893E-12 3.41613E-10
1.07092E-11 3.10436E-10
1.21847E-11 2.81428E-10
1.37554E-11 2.53790E-10
1.54213E-11 2.28726E-10
1.71823E-11 2.06033E-10
1.90386E-11 1.84864E-10
2.09900E-11 1.65889E-10
2.30367E-11 1.48912E-10
2.51785E-11 1.33448E-10
2.74156E-11 1.19630E-10
2.97478E-11 1.07318E-10
3.21752E-11 9.62931E-11
3.46979E-11 8.64568E-11
3.73157E-11 7.76962E-11
4.00286E-11 6.99106E-11
4.28368E-11 6.29813E-11
4.57402E-11 5.67977E-11
4.87388E-11 5.13056E-11
5.18325E-11 4.64311E-11
5.50215E-11 4.20662E-11
5.83057E-11 3.81737E-11
6.16850E-11 3.47274E-11
6.51595E-11 3.16285E-11
6.87293E-11 2.88459E-11
7.23943E-11 2.63862E-11
7.61544E-11 2.41642E-11
1.18991E-10 1.10372E-11
1.71347E-10 5.86890E-12
2.33223E-10 3.49391E-12
3.04617E-10 2.25397E-12
3.85531E-10 1.53661E-12
4.75965E-10 1.09169E-12
5.75917E-10 7.99853E-13
6.85389E-10 5.99881E-13
8.04380E-10 4.58120E-13
9.32891E-10 3.56411E-13
1.07092E-09 2.80799E-13
1.21847E-09 2.23899E-13
1.37554E-09 1.80567E-13
1.54213E-09 1.47091E-13
1.71823E-09 1.20910E-13
1.90386E-09 1.00152E-13
2.09900E-09 8.35880E-14
2.30367E-09 7.02709E-14
2.51785E-09 5.94706E-14
2.74156E-09 5.06386E-14
2.97478E-09 4.33503E-14
3.21752E-09 3.73145E-14
3.46978E-09 3.22827E-14
3.73156E-09 2.80624E-14
4.00286E-09 2.45031E-14
4.28368E-09 2.14814E-14
4.57402E-09 1.89084E-14
4.87388E-09 1.67066E-14
5.18326E-09 1.48137E-14
5.50215E-09 1.31790E-14
5.83057E-09 1.17619E-14
6.16850E-09 1.05290E-14
6.51596E-09 9.45270E-15
6.87293E-09 8.50984E-15
7.23942E-09 7.68077E-15
7.61544E-09 6.94969E-15
1.18991E-08 2.86821E-15
1.71347E-08 1.38744E-15
2.33223E-08 7.49965E-16
3.04617E-08 4.39909E-16
3.85531E-08 2.74698E-16
4.75965E-08 1.80260E-16
5.75917E-08 1.23136E-16
6.85389E-08 8.69506E-17
8.04380E-08 6.31331E-17
9.32891E-08 4.69402E-17
1.07092E-07 3.56216E-17
1.21847E-07 2.75180E-17
1.37554E-07 2.15931E-17
1.54213E-07 1.71804E-17
1.71823E-07 1.38395E-17
1.90386E-07 1.12726E-17
2.09900E-07 9.27416E-18
2.30367E-07 7.69960E-18
2.51785E-07 6.44546E-18
2.74156E-07 5.43658E-18
2.97478E-07 4.61760E-18
3.21752E-07 3.94718E-18
3.46978E-07 3.39414E-18
3.73156E-07 2.93465E-18
4.00286E-07 2.55035E-18
4.28368E-07 2.22695E-18
4.57402E-07 1.95322E-18
4.87388E-07 1.72029E-18
5.18325E-07 1.52107E-18
5.50215E-07 1.34987E-18
5.83057E-07 1.20209E-18
6.16850E-07 1.07399E-18
6.51596E-07 9.62513E-19
6.87293E-07 8.65130E-19
7.23942E-07 7.79757E-19
7.61543E-07 7.04660E-19
1.18991E-06 2.88639E-19
1.71347E-06 1.39201E-19
2.33223E-06 7.51393E-20
3.04617E-06 4.40463E-20
3.85531E-06 2.74985E-20
4.75964E-06 1.80422E-20
5.75916E-06 1.23233E-20
6.85388E-06 8.70128E-21
8.04378E-06 6.31748E-21
9.32888E-06 4.69693E-21
1.07092E-05 3.56427E-21
1.21846E-05 2.75337E-21
1.37553E-05 2.16052E-21
1.54212E-05 1.71899E-21
1.71822E-05 1.38471E-21
1.90385E-05 1.12788E-21
2.09899E-05 9.28706E-22
2.30365E-05 7.70703E-22
2.51783E-05 6.44847E-22
2.74153E-05 5.43710E-22
2.97475E-05 4.61744E-22
3.21749E-05 3.94752E-22
3.46974E-05 3.39539E-22
3.73152E-05 2.93665E-22
4.00281E-05 2.55266E-22
4.28362E-05 2.22913E-22
4.57395E-05 1.95497E-22
4.87380E-05 1.72153E-22
5.18317E-05 1.52188E-22
5.50205E-05 1.35043E-22
5.83045E-05 1.20258E-22
6.16838E-05 1.07453E-22
6.51582E-05 9.63143E-23
6.87277E-05 8.65824E-23
7.23925E-05 7.80456E-23
7.61524E-05 7.02658E-23
9.21439E-05 4.79429E-23
1.09658E-04 3.38312E-23
1.28695E-04 2.45385E-23
1.49255E-04 1.82261E-23
1.71338E-04 1.38175E-23
1.94942E-04 1.06608E-23
2.20070E-04 8.35611E-24
2.46720E-04 6.63946E-24
2.74892E-04 5.34126E-24
3.04586E-04 4.34438E-24
3.35803E-04 3.56871E-24
3.68542E-04 2.95828E-24
4.02802E-04 2.47221E-24
4.38585E-04 2.08172E-24
4.75889E-04 1.76490E-24
5.14715E-04 1.50582E-24
5.55063E-04 1.29233E-24
5.96931E-04 1.11508E-24
6.40321E-04 9.67044E-25
6.85233E-04 8.42558E-25
7.31665E-04 7.37332E-25
7.79618E-04 6.47887E-25
8.29092E-04 5.71470E-25
8.80086E-04 5.05897E-25
9.32601E-04 4.49352E-25
9.86636E-04 4.00414E-25
1.04219E-03 3.57876E-25
1.09927E-03 3.20769E-25
1.15786E-03 2.88288E-25
1.21797E-03 2.59755E-25
1.27961E-03 2.34618E-25
1.34276E-03 2.12399E-25
1.40743E-03 1.92708E-25
1.47362E-03 1.75208E-25
1.54133E-03 1.59613E-25
1.61056E-03 1.45685E-25
1.68131E-03 1.33211E-25
1.75357E-03 1.22019E-25
1.82735E-03 1.11952E-25
1.90265E-03 1.02879E-25
1.97947E-03 9.46857E-26
2.05780E-03 8.72718E-26
2.13765E-03 8.05523E-26
2.21902E-03 7.44498E-26
2.30190E-03 6.88992E-26
2.38630E-03 6.38419E-26
2.47222E-03 5.92266E-26
2.55965E-03 5.50089E-26
2.64859E-03 5.11480E-26
2.73905E-03 4.76095E-26
2.83103E-03 4.43615E-26
2.92452E-03 4.13765E-26
3.01952E-03 3.86297E-26
3.11604E-03 3.60986E-26
3.21407E-03 3.37641E-26
3.31362E-03 3.16078E-26
3.41468E-03 2.96143E-26
3.51725E-03 2.77692E-26
3.62133E-03 2.60595E-26
3.72692E-03 2.44739E-26
3.83403E-03 2.30017E-26
3.94265E-03 2.16336E-26
4.05278E-03 2.03611E-26
4.16442E-03 1.91763E-26
4.27757E-03 1.80724E-26
4.39223E-03 1.70428E-26
4.50840E-03 1.60818E-26
4.62608E-03 1.51841E-26
4.74527E-03 1.43448E-26
4.86597E-03 1.35596E-26
4.98817E-03 1.28244E-26
5.11188E-03 1.21356E-26
5.23711E-03 1.14897E-26
5.36383E-03 1.08837E-26
5.49207E-03 1.03148E-26
5.62181E-03 9.78023E-27
5.75306E-03 9.27773E-27
5.88581E-03 8.80501E-27
6.02007E-03 8.36009E-27
6.15583E-03 7.94105E-27
6.29310E-03 7.54618E-27
6.43187E-03 7.17387E-27
6.57214E-03 6.82264E-27
6.71392E-03 6.49113E-27
6.85720E-03 6.17804E-27
7.00198E-03 5.88224E-27
7.14827E-03 5.60261E-27
7.29605E-03 5.33813E-27
7.44534E-03 5.08789E-27
7.59612E-03 4.85099E-27
7.97965E-03 4.31194E-27
8.37255E-03 3.84013E-27
8.77480E-03 3.42611E-27
9.18641E-03 3.06193E-27
9.60736E-03 2.74084E-27
1.00376E-02 2.45713E-27
1.04773E-02 2.20593E-27
1.09262E-02 1.98308E-27
1.13844E-02 1.78501E-27
1.18520E-02 1.60865E-27
1.23288E-02 1.45137E-27
1.28150E-02 1.31088E-27
1.33104E-02 1.18518E-27
1.38150E-02 1.07257E-27
1.43290E-02 9.71544E-28
1.48521E-02 8.80788E-28
1.53845E-02 7.99159E-28
1.59262E-02 7.25652E-28
1.64770E-02 6.59386E-28
1.70371E-02 5.99581E-28
1.76063E-02 5.45555E-28
1.81848E-02 4.96700E-28
1.87724E-02 4.52481E-28
1.93692E-02 4.12423E-28
1.99751E-02 3.76104E-28
2.05901E-02 3.43149E-28
2.12143E-02 3.13224E-28
2.18476E-02 2.86030E-28
2.24900E-02 2.61301E-28
2.31415E-02 2.38800E-28
2.38021E-02 2.18312E-28
2.44717E-02 1.99648E-28
2.51504E-02 1.82634E-28
2.58382E-02 1.67117E-28
2.65349E-02 1.52958E-28
2.72407E-02 1.40033E-28
2.79555E-02 1.28228E-28
2.86793E-02 1.17442E-28
2.94120E-02 1.07582E-28
3.01537E-02 9.85671E-29
3.09043E-02 9.03206E-29
3.16639E-02 8.27748E-29
3.24324E-02 7.58681E-29
3.32098E-02 6.95446E-29
3.39961E-02 6.37533E-29
3.47912E-02 5.84483E-29
3.55952E-02 5.35875E-29
3.64081E-02 4.91328E-29
3.72297E-02 4.50495E-29
3.80602E-02 4.13059E-29
3.88995E-02 3.78733E-29
3.97476E-02 3.47253E-29
4.06044E-02 3.18380E-29
4.14700E-02 2.91894E-29
4.23443E-02 2.67596E-29
4.32273E-02 2.45304E-29
4.41190E-02 2.24850E-29
4.50194E-02 2.06082E-29
4.59284E-02 1.88860E-29
4.68461E-02 1.73056E-29
4.87074E-02 1.45245E-29
5.06030E-02 1.21825E-29
5.25328E-02 1.02107E-29
5.44967E-02 8.55089E-30
5.64946E-02 7.15413E-30
5.85262E-02 5.97927E-30
6.05914E-02 4.99157E-30
6.26901E-02 4.16174E-30
6.48222E-02 3.46506E-30
6.69873E-02 2.88065E-30
6.91854E-02 2.39088E-30
7.14163E-02 1.98086E-30
7.36799E-02 1.63799E-30
7.59760E-02 1.35165E-30
7.83043E-02 1.11285E-30
8.06647E-02 9.14011E-31
8.30571E-02 7.48714E-31
8.54812E-02 6.11555E-31
8.79369E-02 4.97969E-31
9.04240E-02 4.04109E-31
9.29422E-02 3.26732E-31
9.54915E-02 2.63106E-31
9.80716E-02 2.10934E-31
1.00682E-01 1.68286E-31
1.03323E-01 1.33541E-31
1.05995E-01 1.05338E-31
1.08696E-01 8.25406E-32
1.11427E-01 6.41956E-32
1.14188E-01 4.95088E-32
1.16978E-01 3.78177E-32
1.19797E-01 2.85717E-32
1.22645E-01 2.13133E-32
1.25522E-01 1.56642E-32
1.28428E-01 1.13114E-32
1.31361E-01 7.99746E-33
1.34323E-01 5.51078E-33
1.37313E-01 3.67832E-33
1.40330E-01 2.35894E-33
1.43375E-01 1.43814E-33
1.46447E-01 8.23354E-34
1.49545E-01 4.40242E-34
1.52671E-01 2.29425E-34
1.55823E-01 1.43828E-34
1.59001E-01 1.46432E-34
1.62205E-01 2.08422E-34
1.65435E-01 3.07628E-34
1.68690E-01 4.27243E-34
1.71970E-01 5.54764E-34
1.75276E-01 6.81122E-34
1.78606E-01 7.99953E-34
1.81961E-01 9.07004E-34
1.85340E-01 9.99680E-34
1.88743E-01 1.07662E-33
1.92169E-01 1.13742E-33
1.95619E-01 1.18233E-33
1.99092E-01 1.21216E-33
2.02589E-01 1.22793E-33
2.06107E-01 1.23099E-33
2.09649E-01 1.22274E-33
2.13212E-01 1.20462E-33
2.16797E-01 1.17806E-33
2.20404E-01 1.14446E-33
2.24032E-01 1.10512E-33
2.27680E-01 1.06124E-33
2.31350E-01 1.01393E-33
2.35040E-01 9.64179E-34
2.38751E-01 9.12855E-34
2.42481E-01 8.60737E-34
2.46231E-01 8.08481E-34
2.50000E-01 7.56648E-34
2.53788E-01 7.05720E-34
2.57595E-01 6.56067E-34
2.61421E-01 6.08023E-34
2.65264E-01 5.61816E-34
2.69126E-01 5.17640E-34
2.73005E-01 4.75618E-34
2.76901E-01 4.35842E-34
2.80814E-01 3.98356E-34
2.84744E-01 3.63172E-34
2.88691E-01 3.30277E-34
2.92653E-01 2.99633E-34
2.96632E-01 2.71181E-34
3.00625E-01 2.44853E-34
3.04634E-01 2.20560E-34
3.08658E-01 1.98220E-34
3.12697E-01 1.77728E-34
3.16749E-01 1.58984E-34
3.20816E-01 1.41886E-34
3.24896E-01 1.26329E-34
3.28990E-01 1.12212E-34
3.33097E-01 9.94337E-35
3.37216E-01 8.78946E-35
3.41348E-01 7.75010E-35
3.45492E-01 6.81634E-35
3.49647E-01 5.97926E-35
3.53814E-01 5.23076E-35
3.57992E-01 4.56324E-35
3.62181E-01 3.96935E-35
3.66381E-01 3.44230E-35
3.70590E-01 2.97580E-35
3.74810E-01 2.56391E-35
3.79039E-01 2.20132E-35
3.83277E-01 1.88307E-35
3.87524E-01 1.60437E-35
3.91780E-01 1.36131E-35
3.96044E-01 1.14973E-35
4.00316E-01 9.66377E-36
4.04596E-01 8.07993E-36
4.08882E-01 6.71671E-36
4.13176E-01 5.54835E-36
4.17476E-01 4.55122E-36
4.21783E-01 3.70443E-36
4.26095E-01 2.98917E-36
4.30413E-01 2.38884E-36
4.34737E-01 1.88755E-36
4.39065E-01 1.47245E-36
4.43398E-01 1.13161E-36
4.47736E-01 8.54043E-37
4.52077E-01 6.31079E-37
4.56422E-01 4.54210E-37
4.60770E-01 3.16357E-37
4.65122E-01 2.11261E-37
4.69476E-01 1.33550E-37
4.73832E-01 7.83740E-38
4.78190E-01 4.17251E-38
4.82550E-01 2.00598E-38
4.86912E-01 1.03755E-38
4.91274E-01 1.00940E-38
4.95637E-01 1.70683E-38
5.00000E-01 2.93890E-38
5.04363E-01 4.56459E-38
5.08726E-01 6.44754E-38
5.13088E-01 8.47760E-38
5.17450E-01 1.05788E-37
5.21810E-01 1.26850E-37
5.26168E-01 1.47341E-37
5.30524E-01 1.66868E-37
5.34878E-01 1.85076E-37
5.39230E-01 2.01834E-37
5.43578E-01 2.16896E-37
5.47923E-01 2.30162E-37
5.52264E-01 2.41785E-37
5.56602E-01 2.51439E-37
5.60935E-01 2.59420E-37
5.65263E-01 2.65566E-37
5.69587E-01 2.70174E-37
5.73905E-01 2.73242E-37
5.78217E-01 2.74830E-37
5.82524E-01 2.75116E-37
5.86824E-01 2.74141E-37
5.91118E-01 2.72137E-37
5.95404E-01 2.69051E-37
5.99684E-01 2.65075E-37
6.03956E-01 2.60309E-37
6.08220E-01 2.54890E-37
6.12476E-01 2.48877E-37
6.16723E-01 2.42329E-37
6.20961E-01 2.35481E-37
6.25190E-01 2.28209E-37
6.29410E-01 2.20733E-37
6.33619E-01 2.13026E-37
6.37819E-01 2.05218E-37
6.42008E-01 1.97362E-37
6.46186E-01 1.89466E-37
6.50353E-01 1.81565E-37
6.54508E-01 1.73671E-37
6.58652E-01 1.65950E-37
6.62784E-01 1.58317E-37
6.66903E-01 1.50833E-37
6.71010E-01 1.43460E-37
6.75104E-01 1.36276E-37
6.79184E-01 1.29420E-37
6.83251E-01 1.22616E-37
6.87303E-01 1.16138E-37
6.91342E-01 1.09834E-37
6.95366E-01 1.03727E-37
6.99375E-01 9.79362E-38
7.03368E-01 9.23112E-38
7.07347E-01 8.69835E-38
7.11309E-01 8.18575E-38
7.15256E-01 7.69973E-38
7.19186E-01 7.23641E-38
7.23099E-01 6.78472E-38
7.26995E-01 6.37003E-38
7.30874E-01 5.97158E-38
7.34736E-01 5.59743E-38
7.38579E-01 5.23734E-38
7.42405E-01 4.89746E-38
7.46212E-01 4.58030E-38
7.50000E-01 4.27919E-38
7.53769E-01 3.99724E-38
7.57519E-01 3.73148E-38
7.61249E-01 3.47462E-38
7.64960E-01 3.24213E-38
7.68650E-01 3.01921E-38
7.72320E-01 2.80940E-38
7.75968E-01 2.61423E-38
7.79596E-01 2.43193E-38
7.83203E-01 2.25596E-38
7.86788E-01 2.09661E-38
7.90351E-01 1.94770E-38
7.93893E-01 1.80765E-38
7.97411E-01 1.67579E-38
8.00908E-01 1.55264E-38
8.04381E-01 1.43909E-38
8.07831E-01 1.33118E-38
8.11257E-01 1.23279E-38
8.14660E-01 1.13990E-38
8.18039E-01 1.05495E-38
8.21394E-01 9.72947E-39
8.24724E-01 8.99944E-39
8.28030E-01 8.29559E-39
8.31310E-01 7.66297E-39
8.34565E-01 7.06429E-39
8.37795E-01 6.52912E-39
8.40999E-01 6.00751E-39
8.44177E-01 5.54612E-39
8.47329E-01 5.10897E-39
8.50455E-01 4.70799E-39
8.53553E-01 4.32768E-39
8.56625E-01 3.99240E-39
8.59670E-01 3.66584E-39
8.62687E-01 3.38340E-39
8.65677E-01 3.10981E-39
8.68639E-01 2.85408E-39
8.71572E-01 2.61636E-39
8.74478E-01 2.40435E-39
8.77355E-01 2.21637E-39
8.80203E-01 2.02418E-39
8.83022E-01 1.85575E-39
8.85812E-01 1.70341E-39
8.88573E-01 1.55129E-39
8.91304E-01 1.41995E-39
8.94005E-01 1.30604E-39
8.96677E-01 1.18853E-39
8.99318E-01 1.09046E-39
9.01928E-01 9.90312E-40
9.04508E-01 9.08182E-40
9.07058E-01 8.27307E-40
9.09576E-01 7.52682E-40
9.12063E-01 6.90972E-40
9.14519E-01 6.28567E-40
9.16943E-01 5.70241E-40
9.19335E-01 5.22497E-40
9.21696E-01 4.78532E-40
9.24024E-01 4.33111E-40
9.26320E-01 3.96841E-40
9.28584E-01 3.59873E-40
9.30815E-01 3.29849E-40
9.33013E-01 2.99354E-40
9.35178E-01 2.71353E-40
9.37310E-01 2.52706E-40
9.39409E-01 2.24529E-40
9.41474E-01 2.06083E-40
9.43505E-01 1.86785E-40
9.45503E-01 1.71971E-40
9.47467E-01 1.52704E-40
9.49397E-01 1.40379E-40
9.51293E-01 1.27386E-40
9.53154E-01 1.13121E-40
9.54981E-01 1.02856E-40
9.56773E-01 9.33363E-41
9.58530E-01 8.55552E-41
9.60252E-01 7.36793E-41
9.61940E-01 6.75476E-41
9.63592E-01 6.00045E-41
9.65209E-01 5.57032E-41
9.66790E-01 4.78825E-41
9.68336E-01 4.53998E-41
9.69846E-01 3.94191E-41
9.71321E-01 3.58299E-41
9.72759E-01 3.26031E-41
9.74162E-01 2.92235E-41
9.75528E-01 2.65755E-41
9.76858E-01 2.36297E-41
9.78152E-01 2.19360E-41
9.79410E-01 1.88963E-41
9.80631E-01 1.71584E-41
9.81815E-01 1.49372E-41
9.82963E-01 1.43632E-41
9.84074E-01 1.32358E-41
9.85148E-01 1.11534E-41
9.86185E-01 9.77243E-42
9.87185E-01 7.77219E-42
9.88148E-01 7.73734E-42
9.89074E-01 6.19623E-42
9.89962E-01 5.47424E-42
9.90814E-01 4.71036E-42
9.91627E-01 3.64700E-42
9.92404E-01 3.90236E-42
9.93143E-01 3.62212E-42
9.93844E-01 2.52948E-42
9.94508E-01 2.63734E-42
9.95134E-01 2.22009E-42
9.95722E-01 1.99908E-42
9.96273E-01 9.83519E-43
9.96786E-01 1.24268E-42
9.97261E-01 9.69373E-43
9.97698E-01 8.84881E-43
9.98097E-01 3.64403E-43
9.98459E-01 5.94220E-43
9.98782E-01 3.36329E-43
9.99067E-01 2.81996E-43
9.99315E-01 1.30664E-43
9.99524E-01 2.27910E-43
9.99695E-01 2.70084E-43
9.99829E-01 2.02069E-43
9.99924E-01 1.53672E-43
9.99981E-01 8.21832E-43
1.00000E+00 3.38764E-42
