 #
 # Subroutine ELSEPA. Elastic scattering of electrons and positrons
 #                    by neutral atoms and positive ions
 #
 # Projectile: electron
 # Kinetic energy = 3.50000E+07 eV = 1.28623E+06 a.u.
 #
 # WARNING: High-energy factorization with free-atom DF screening.
 #          Absorption, polarization and exchange corrections are
 #          switched off.
 #          Phase shifts are calculated for the bare nucleus.
 #          Scattering amplitudes are not evaluated.
 #
 # Element: Be,  Z =   4,  atomic weight = 9.01220E+00 g/mol
 #
 # Nuclear model: Fermi distribution
 #                Average radius = 2.22669E-13 cm
 #                Skin thickness = 5.46000E-14 cm
 #
 # Number of electrons =  4
 #
 # Total elastic cross section = 1.70316E-19 cm**2 = 6.08208E-03 a0**2
 # 1st transport cross section = 2.68269E-26 cm**2 = 9.58006E-10 a0**2
 # 2nd transport cross section = 7.81776E-26 cm**2 = 2.79177E-09 a0**2
 #
 #
 # Differential cross section:                       MU=(1-COS(THETA))/2
 #
 #  THETA        MU          DCS          DCS        Sherman      error
 #  (deg)                 (cm**2/sr)   (a0**2/sr)    function
 #----------------------------------------------------------------------
0.00000E+00 4.50275E-12
7.61557E-13 4.50080E-12
1.18994E-12 4.49971E-12
1.71346E-12 4.49837E-12
2.33225E-12 4.49679E-12
3.04617E-12 4.49497E-12
3.85530E-12 4.49291E-12
4.75964E-12 4.49061E-12
5.75917E-12 4.48807E-12
6.85391E-12 4.48528E-12
8.04379E-12 4.48226E-12
9.32893E-12 4.47900E-12
1.07092E-11 4.47551E-12
1.21847E-11 4.47177E-12
1.37554E-11 4.46780E-12
1.54213E-11 4.46359E-12
1.71823E-11 4.45915E-12
1.90386E-11 4.45448E-12
2.09900E-11 4.44957E-12
2.30367E-11 4.44443E-12
2.51785E-11 4.43906E-12
2.74156E-11 4.43346E-12
2.97478E-11 4.42763E-12
3.21752E-11 4.42157E-12
3.46979E-11 4.41530E-12
3.73157E-11 4.40880E-12
4.00286E-11 4.40206E-12
4.28368E-11 4.39511E-12
4.57402E-11 4.38794E-12
4.87388E-11 4.38056E-12
5.18325E-11 4.37295E-12
5.50215E-11 4.36512E-12
5.83057E-11 4.35709E-12
6.16850E-11 4.34885E-12
6.51595E-11 4.34039E-12
6.87293E-11 4.33171E-12
7.23943E-11 4.32284E-12
7.61544E-11 4.31377E-12
1.18991E-10 4.21207E-12
1.71347E-10 4.09209E-12
2.33223E-10 3.95600E-12
3.04617E-10 3.80642E-12
3.85531E-10 3.64575E-12
4.75965E-10 3.47677E-12
5.75917E-10 3.30182E-12
6.85389E-10 3.12353E-12
8.04380E-10 2.94391E-12
9.32891E-10 2.76522E-12
1.07092E-09 2.58900E-12
1.21847E-09 2.41701E-12
1.37554E-09 2.24646E-12
1.54213E-09 2.08514E-12
1.71823E-09 1.93346E-12
1.90386E-09 1.79149E-12
2.09900E-09 1.65188E-12
2.30367E-09 1.52224E-12
2.51785E-09 1.40236E-12
2.74156E-09 1.29175E-12
2.97478E-09 1.18607E-12
3.21752E-09 1.08896E-12
3.46978E-09 9.99943E-13
3.73156E-09 9.18433E-13
4.00286E-09 8.42284E-13
4.28368E-09 7.72665E-13
4.57402E-09 7.09089E-13
4.87388E-09 6.51046E-13
5.18326E-09 5.97697E-13
5.50215E-09 5.48997E-13
5.83057E-09 5.04546E-13
6.16850E-09 4.63966E-13
6.51596E-09 4.27067E-13
6.87293E-09 3.93357E-13
7.23942E-09 3.62542E-13
7.61544E-09 3.34358E-13
1.18991E-08 1.58144E-13
1.71347E-08 8.33776E-14
2.33223E-08 4.86743E-14
3.04617E-08 3.07924E-14
3.85531E-08 2.07780E-14
4.75965E-08 1.47038E-14
5.75917E-08 1.07799E-14
6.85389E-08 8.12850E-15
8.04380E-08 6.26745E-15
9.32891E-08 4.91958E-15
1.07092E-07 3.91641E-15
1.21847E-07 3.15751E-15
1.37554E-07 2.56942E-15
1.54213E-07 2.11481E-15
1.71823E-07 1.75474E-15
1.90386E-07 1.46597E-15
2.09900E-07 1.23477E-15
2.30367E-07 1.04550E-15
2.51785E-07 8.90789E-16
2.74156E-07 7.63605E-16
2.97478E-07 6.57242E-16
3.21752E-07 5.68828E-16
3.46978E-07 4.94468E-16
3.73156E-07 4.31579E-16
4.00286E-07 3.78376E-16
4.28368E-07 3.32863E-16
4.57402E-07 2.93930E-16
4.87388E-07 2.60500E-16
5.18325E-07 2.31543E-16
5.50215E-07 2.06497E-16
5.83057E-07 1.84696E-16
6.16850E-07 1.65655E-16
6.51596E-07 1.49001E-16
6.87293E-07 1.34345E-16
7.23942E-07 1.21437E-16
7.61543E-07 1.10037E-16
1.18991E-06 4.58052E-17
1.71347E-06 2.22429E-17
2.33223E-06 1.20459E-17
3.04617E-06 7.07335E-18
3.85531E-06 4.42016E-18
4.75964E-06 2.90170E-18
5.75916E-06 1.98234E-18
6.85388E-06 1.39991E-18
8.04378E-06 1.01651E-18
9.32888E-06 7.55828E-19
1.07092E-05 5.73604E-19
1.21846E-05 4.43133E-19
1.37553E-05 3.47736E-19
1.54212E-05 2.76683E-19
1.71822E-05 2.22887E-19
1.90385E-05 1.81726E-19
2.09899E-05 1.49494E-19
2.30365E-05 1.24064E-19
2.51783E-05 1.03807E-19
2.74153E-05 8.75281E-20
2.97475E-05 7.43343E-20
3.21749E-05 6.35503E-20
3.46974E-05 5.46620E-20
3.73152E-05 4.72771E-20
4.00281E-05 4.10956E-20
4.28362E-05 3.58873E-20
4.57395E-05 3.14739E-20
4.87380E-05 2.77159E-20
5.18317E-05 2.45019E-20
5.50205E-05 2.17418E-20
5.83045E-05 1.93615E-20
6.16838E-05 1.73000E-20
6.51582E-05 1.55067E-20
6.87277E-05 1.39398E-20
7.23925E-05 1.25655E-20
7.61524E-05 1.13552E-20
9.21439E-05 7.75401E-21
1.09658E-04 5.47642E-21
1.28695E-04 3.97594E-21
1.49255E-04 2.95617E-21
1.71338E-04 2.24356E-21
1.94942E-04 1.73304E-21
2.20070E-04 1.36008E-21
2.46720E-04 1.08209E-21
2.74892E-04 8.71730E-22
3.04586E-04 7.10076E-22
3.35803E-04 5.84197E-22
3.68542E-04 4.85055E-22
4.02802E-04 4.06046E-22
4.38585E-04 3.42515E-22
4.75889E-04 2.90925E-22
5.14715E-04 2.48697E-22
5.55063E-04 2.13864E-22
5.96931E-04 1.84915E-22
6.40321E-04 1.60711E-22
6.85233E-04 1.40334E-22
7.31665E-04 1.23091E-22
7.79618E-04 1.08416E-22
8.29092E-04 9.58634E-23
8.80086E-04 8.50782E-23
9.32601E-04 7.57659E-23
9.86636E-04 6.76953E-23
1.04219E-03 6.06704E-23
1.09927E-03 5.45338E-23
1.15786E-03 4.91542E-23
1.21797E-03 4.44212E-23
1.27961E-03 4.02453E-23
1.34276E-03 3.65481E-23
1.40743E-03 3.32663E-23
1.47362E-03 3.03446E-23
1.54133E-03 2.77366E-23
1.61056E-03 2.54032E-23
1.68131E-03 2.33097E-23
1.75357E-03 2.14278E-23
1.82735E-03 1.97319E-23
1.90265E-03 1.82005E-23
1.97947E-03 1.68149E-23
2.05780E-03 1.55586E-23
2.13765E-03 1.44176E-23
2.21902E-03 1.33791E-23
2.30190E-03 1.24326E-23
2.38630E-03 1.15683E-23
2.47222E-03 1.07777E-23
2.55965E-03 1.00536E-23
2.64859E-03 9.38927E-24
2.73905E-03 8.77894E-24
2.83103E-03 8.21737E-24
2.92452E-03 7.69999E-24
3.01952E-03 7.22271E-24
3.11604E-03 6.78180E-24
3.21407E-03 6.37407E-24
3.31362E-03 5.99648E-24
3.41468E-03 5.64646E-24
3.51725E-03 5.32160E-24
3.62133E-03 5.01975E-24
3.72692E-03 4.73902E-24
3.83403E-03 4.47762E-24
3.94265E-03 4.23400E-24
4.05278E-03 4.00672E-24
4.16442E-03 3.79448E-24
4.27757E-03 3.59612E-24
4.39223E-03 3.41053E-24
4.50840E-03 3.23677E-24
4.62608E-03 3.07392E-24
4.74527E-03 2.92119E-24
4.86597E-03 2.77783E-24
4.98817E-03 2.64314E-24
5.11188E-03 2.51652E-24
5.23711E-03 2.39739E-24
5.36383E-03 2.28522E-24
5.49207E-03 2.17953E-24
5.62181E-03 2.07988E-24
5.75306E-03 1.98586E-24
5.88581E-03 1.89708E-24
6.02007E-03 1.81322E-24
6.15583E-03 1.73393E-24
6.29310E-03 1.65892E-24
6.43187E-03 1.58793E-24
6.57214E-03 1.52069E-24
6.71392E-03 1.45697E-24
6.85720E-03 1.39655E-24
7.00198E-03 1.33923E-24
7.14827E-03 1.28481E-24
7.29605E-03 1.23313E-24
7.44534E-03 1.18403E-24
7.59612E-03 1.13733E-24
7.97965E-03 1.03028E-24
8.37255E-03 9.35527E-25
8.77480E-03 8.51408E-25
9.18641E-03 7.76526E-25
9.60736E-03 7.09691E-25
1.00376E-02 6.49886E-25
1.04773E-02 5.96243E-25
1.09262E-02 5.48015E-25
1.13844E-02 5.04561E-25
1.18520E-02 4.65323E-25
1.23288E-02 4.29821E-25
1.28150E-02 3.97636E-25
1.33104E-02 3.68404E-25
1.38150E-02 3.41804E-25
1.43290E-02 3.17558E-25
1.48521E-02 2.95421E-25
1.53845E-02 2.75175E-25
1.59262E-02 2.56631E-25
1.64770E-02 2.39620E-25
1.70371E-02 2.23992E-25
1.76063E-02 2.09615E-25
1.81848E-02 1.96370E-25
1.87724E-02 1.84153E-25
1.93692E-02 1.72868E-25
1.99751E-02 1.62433E-25
2.05901E-02 1.52771E-25
2.12143E-02 1.43814E-25
2.18476E-02 1.35503E-25
2.24900E-02 1.27781E-25
2.31415E-02 1.20600E-25
2.38021E-02 1.13915E-25
2.44717E-02 1.07685E-25
2.51504E-02 1.01873E-25
2.58382E-02 9.64473E-26
2.65349E-02 9.13763E-26
2.72407E-02 8.66329E-26
2.79555E-02 8.21921E-26
2.86793E-02 7.80310E-26
2.94120E-02 7.41288E-26
3.01537E-02 7.04664E-26
3.09043E-02 6.70263E-26
3.16639E-02 6.37926E-26
3.24324E-02 6.07507E-26
3.32098E-02 5.78870E-26
3.39961E-02 5.51892E-26
3.47912E-02 5.26459E-26
3.55952E-02 5.02466E-26
3.64081E-02 4.79817E-26
3.72297E-02 4.58423E-26
3.80602E-02 4.38200E-26
3.88995E-02 4.19074E-26
3.97476E-02 4.00973E-26
4.06044E-02 3.83833E-26
4.14700E-02 3.67593E-26
4.23443E-02 3.52197E-26
4.32273E-02 3.37594E-26
4.41190E-02 3.23734E-26
4.50194E-02 3.10572E-26
4.59284E-02 2.98068E-26
4.68461E-02 2.86183E-26
4.87074E-02 2.64123E-26
5.06030E-02 2.44133E-26
5.25328E-02 2.25983E-26
5.44967E-02 2.09475E-26
5.64946E-02 1.94435E-26
5.85262E-02 1.80708E-26
6.05914E-02 1.68159E-26
6.26901E-02 1.56671E-26
6.48222E-02 1.46137E-26
6.69873E-02 1.36465E-26
6.91854E-02 1.27570E-26
7.14163E-02 1.19381E-26
7.36799E-02 1.11830E-26
7.59760E-02 1.04860E-26
7.83043E-02 9.84174E-27
8.06647E-02 9.24557E-27
8.30571E-02 8.69325E-27
8.54812E-02 8.18098E-27
8.79369E-02 7.70535E-27
9.04240E-02 7.26328E-27
9.29422E-02 6.85196E-27
9.54915E-02 6.46889E-27
9.80716E-02 6.11178E-27
1.00682E-01 5.77856E-27
1.03323E-01 5.46735E-27
1.05995E-01 5.17643E-27
1.08696E-01 4.90425E-27
1.11427E-01 4.64939E-27
1.14188E-01 4.41055E-27
1.16978E-01 4.18654E-27
1.19797E-01 3.97628E-27
1.22645E-01 3.77878E-27
1.25522E-01 3.59313E-27
1.28428E-01 3.41848E-27
1.31361E-01 3.25407E-27
1.34323E-01 3.09920E-27
1.37313E-01 2.95322E-27
1.40330E-01 2.81552E-27
1.43375E-01 2.68554E-27
1.46447E-01 2.56279E-27
1.49545E-01 2.44679E-27
1.52671E-01 2.33710E-27
1.55823E-01 2.23332E-27
1.59001E-01 2.13508E-27
1.62205E-01 2.04202E-27
1.65435E-01 1.95383E-27
1.68690E-01 1.87020E-27
1.71970E-01 1.79086E-27
1.75276E-01 1.71555E-27
1.78606E-01 1.64404E-27
1.81961E-01 1.57608E-27
1.85340E-01 1.51149E-27
1.88743E-01 1.45006E-27
1.92169E-01 1.39160E-27
1.95619E-01 1.33596E-27
1.99092E-01 1.28297E-27
2.02589E-01 1.23249E-27
2.06107E-01 1.18437E-27
2.09649E-01 1.13848E-27
2.13212E-01 1.09471E-27
2.16797E-01 1.05294E-27
2.20404E-01 1.01306E-27
2.24032E-01 9.74969E-28
2.27680E-01 9.38578E-28
2.31350E-01 9.03796E-28
2.35040E-01 8.70540E-28
2.38751E-01 8.38731E-28
2.42481E-01 8.08296E-28
2.46231E-01 7.79165E-28
2.50000E-01 7.51272E-28
2.53788E-01 7.24557E-28
2.57595E-01 6.98960E-28
2.61421E-01 6.74428E-28
2.65264E-01 6.50909E-28
2.69126E-01 6.28353E-28
2.73005E-01 6.06715E-28
2.76901E-01 5.85951E-28
2.80814E-01 5.66019E-28
2.84744E-01 5.46882E-28
2.88691E-01 5.28501E-28
2.92653E-01 5.10843E-28
2.96632E-01 4.93873E-28
3.00625E-01 4.77561E-28
3.04634E-01 4.61877E-28
3.08658E-01 4.46792E-28
3.12697E-01 4.32281E-28
3.16749E-01 4.18317E-28
3.20816E-01 4.04877E-28
3.24896E-01 3.91938E-28
3.28990E-01 3.79477E-28
3.33097E-01 3.67475E-28
3.37216E-01 3.55912E-28
3.41348E-01 3.44770E-28
3.45492E-01 3.34029E-28
3.49647E-01 3.23675E-28
3.53814E-01 3.13689E-28
3.57992E-01 3.04058E-28
3.62181E-01 2.94767E-28
3.66381E-01 2.85801E-28
3.70590E-01 2.77148E-28
3.74810E-01 2.68795E-28
3.79039E-01 2.60729E-28
3.83277E-01 2.52940E-28
3.87524E-01 2.45417E-28
3.91780E-01 2.38148E-28
3.96044E-01 2.31124E-28
4.00316E-01 2.24335E-28
4.04596E-01 2.17773E-28
4.08882E-01 2.11429E-28
4.13176E-01 2.05293E-28
4.17476E-01 1.99359E-28
4.21783E-01 1.93619E-28
4.26095E-01 1.88065E-28
4.30413E-01 1.82690E-28
4.34737E-01 1.77488E-28
4.39065E-01 1.72452E-28
4.43398E-01 1.67576E-28
4.47736E-01 1.62855E-28
4.52077E-01 1.58283E-28
4.56422E-01 1.53853E-28
4.60770E-01 1.49562E-28
4.65122E-01 1.45405E-28
4.69476E-01 1.41375E-28
4.73832E-01 1.37470E-28
4.78190E-01 1.33684E-28
4.82550E-01 1.30013E-28
4.86912E-01 1.26453E-28
4.91274E-01 1.23002E-28
4.95637E-01 1.19653E-28
5.00000E-01 1.16405E-28
5.04363E-01 1.13254E-28
5.08726E-01 1.10196E-28
5.13088E-01 1.07228E-28
5.17450E-01 1.04348E-28
5.21810E-01 1.01552E-28
5.26168E-01 9.88368E-29
5.30524E-01 9.62008E-29
5.34878E-01 9.36410E-29
5.39230E-01 9.11549E-29
5.43578E-01 8.87400E-29
5.47923E-01 8.63939E-29
5.52264E-01 8.41146E-29
5.56602E-01 8.18998E-29
5.60935E-01 7.97474E-29
5.65263E-01 7.76555E-29
5.69587E-01 7.56221E-29
5.73905E-01 7.36453E-29
5.78217E-01 7.17234E-29
5.82524E-01 6.98547E-29
5.86824E-01 6.80374E-29
5.91118E-01 6.62700E-29
5.95404E-01 6.45510E-29
5.99684E-01 6.28787E-29
6.03956E-01 6.12519E-29
6.08220E-01 5.96690E-29
6.12476E-01 5.81288E-29
6.16723E-01 5.66299E-29
6.20961E-01 5.51712E-29
6.25190E-01 5.37514E-29
6.29410E-01 5.23693E-29
6.33619E-01 5.10238E-29
6.37819E-01 4.97138E-29
6.42008E-01 4.84383E-29
6.46186E-01 4.71962E-29
6.50353E-01 4.59866E-29
6.54508E-01 4.48085E-29
6.58652E-01 4.36609E-29
6.62784E-01 4.25431E-29
6.66903E-01 4.14542E-29
6.71010E-01 4.03932E-29
6.75104E-01 3.93595E-29
6.79184E-01 3.83522E-29
6.83251E-01 3.73706E-29
6.87303E-01 3.64139E-29
6.91342E-01 3.54815E-29
6.95366E-01 3.45727E-29
6.99375E-01 3.36867E-29
7.03368E-01 3.28231E-29
7.07347E-01 3.19810E-29
7.11309E-01 3.11601E-29
7.15256E-01 3.03595E-29
7.19186E-01 2.95789E-29
7.23099E-01 2.88177E-29
7.26995E-01 2.80753E-29
7.30874E-01 2.73512E-29
7.34736E-01 2.66449E-29
7.38579E-01 2.59560E-29
7.42405E-01 2.52839E-29
7.46212E-01 2.46283E-29
7.50000E-01 2.39887E-29
7.53769E-01 2.33646E-29
7.57519E-01 2.27557E-29
7.61249E-01 2.21615E-29
7.64960E-01 2.15817E-29
7.68650E-01 2.10159E-29
7.72320E-01 2.04637E-29
7.75968E-01 1.99247E-29
7.79596E-01 1.93988E-29
7.83203E-01 1.88853E-29
7.86788E-01 1.83842E-29
7.90351E-01 1.78950E-29
7.93893E-01 1.74175E-29
7.97411E-01 1.69514E-29
8.00908E-01 1.64963E-29
8.04381E-01 1.60520E-29
8.07831E-01 1.56182E-29
8.11257E-01 1.51947E-29
8.14660E-01 1.47811E-29
8.18039E-01 1.43774E-29
8.21394E-01 1.39831E-29
8.24724E-01 1.35982E-29
8.28030E-01 1.32222E-29
8.31310E-01 1.28552E-29
8.34565E-01 1.24967E-29
8.37795E-01 1.21466E-29
8.40999E-01 1.18048E-29
8.44177E-01 1.14710E-29
8.47329E-01 1.11450E-29
8.50455E-01 1.08266E-29
8.53553E-01 1.05156E-29
8.56625E-01 1.02120E-29
8.59670E-01 9.91545E-30
8.62687E-01 9.62586E-30
8.65677E-01 9.34304E-30
8.68639E-01 9.06684E-30
8.71572E-01 8.79711E-30
8.74478E-01 8.53371E-30
8.77355E-01 8.27649E-30
8.80203E-01 8.02530E-30
8.83022E-01 7.78002E-30
8.85812E-01 7.54051E-30
8.88573E-01 7.30664E-30
8.91304E-01 7.07828E-30
8.94005E-01 6.85533E-30
8.96677E-01 6.63765E-30
8.99318E-01 6.42513E-30
9.01928E-01 6.21766E-30
9.04508E-01 6.01513E-30
9.07058E-01 5.81743E-30
9.09576E-01 5.62447E-30
9.12063E-01 5.43614E-30
9.14519E-01 5.25234E-30
9.16943E-01 5.07298E-30
9.19335E-01 4.89798E-30
9.21696E-01 4.72723E-30
9.24024E-01 4.56065E-30
9.26320E-01 4.39816E-30
9.28584E-01 4.23968E-30
9.30815E-01 4.08512E-30
9.33013E-01 3.93440E-30
9.35178E-01 3.78746E-30
9.37310E-01 3.64423E-30
9.39409E-01 3.50461E-30
9.41474E-01 3.36856E-30
9.43505E-01 3.23599E-30
9.45503E-01 3.10686E-30
9.47467E-01 2.98108E-30
9.49397E-01 2.85861E-30
9.51293E-01 2.73937E-30
9.53154E-01 2.62332E-30
9.54981E-01 2.51040E-30
9.56773E-01 2.40055E-30
9.58530E-01 2.29372E-30
9.60252E-01 2.18984E-30
9.61940E-01 2.08890E-30
9.63592E-01 1.99082E-30
9.65209E-01 1.89557E-30
9.66790E-01 1.80309E-30
9.68336E-01 1.71335E-30
9.69846E-01 1.62629E-30
9.71321E-01 1.54189E-30
9.72759E-01 1.46010E-30
9.74162E-01 1.38088E-30
9.75528E-01 1.30419E-30
9.76858E-01 1.22999E-30
9.78152E-01 1.15827E-30
9.79410E-01 1.08897E-30
9.80631E-01 1.02207E-30
9.81815E-01 9.57529E-31
9.82963E-01 8.95334E-31
9.84074E-01 8.35443E-31
9.85148E-01 7.77828E-31
9.86185E-01 7.22469E-31
9.87185E-01 6.69334E-31
9.88148E-01 6.18409E-31
9.89074E-01 5.69658E-31
9.89962E-01 5.23067E-31
9.90814E-01 4.78610E-31
9.91627E-01 4.36268E-31
9.92404E-01 3.96027E-31
9.93143E-01 3.57861E-31
9.93844E-01 3.21752E-31
9.94508E-01 2.87691E-31
9.95134E-01 2.55657E-31
9.95722E-01 2.25635E-31
9.96273E-01 1.97611E-31
9.96786E-01 1.71580E-31
9.97261E-01 1.47521E-31
9.97698E-01 1.25428E-31
9.98097E-01 1.05287E-31
9.98459E-01 8.70949E-32
9.98782E-01 7.08373E-32
9.99067E-01 5.65102E-32
9.99315E-01 4.41044E-32
9.99524E-01 3.36191E-32
9.99695E-01 2.50470E-32
9.99829E-01 1.83839E-32
9.99924E-01 1.36260E-32
9.99981E-01 1.07733E-32
1.00000E+00 9.82444E-33
