 #
 # Subroutine ELSEPA. Elastic scattering of electrons and positrons
 #                    by neutral atoms and positive ions
 #
 # Projectile: electron
 # Kinetic energy = 2.00000E+08 eV = 7.34987E+06 a.u.
 #
 # WARNING: High-energy factorization with free-atom DF screening.
 #          Absorption, polarization and exchange corrections are
 #          switched off.
 #          Phase shifts are calculated for the bare nucleus.
 #          Scattering amplitudes are not evaluated.
 #
 # Element: Be,  Z =   4,  atomic weight = 9.01220E+00 g/mol
 #
 # Nuclear model: Fermi distribution
 #                Average radius = 2.22669E-13 cm
 #                Skin thickness = 5.46000E-14 cm
 #
 # Number of electrons =  4
 #
 # Total elastic cross section = 1.69998E-19 cm**2 = 6.07074E-03 a0**2
 # 1st transport cross section = 9.23349E-28 cm**2 = 3.29734E-11 a0**2
 # 2nd transport cross section = 2.75587E-27 cm**2 = 9.84139E-11 a0**2
 #
 #
 # Differential cross section:                       MU=(1-COS(THETA))/2
 #
 #  THETA        MU          DCS          DCS        Sherman      error
 #  (deg)                 (cm**2/sr)   (a0**2/sr)    function
 #----------------------------------------------------------------------
0.00000E+00 1.43558E-10
7.61557E-13 1.41599E-10
1.18994E-12 1.40513E-10
1.71346E-12 1.39200E-10
2.33225E-12 1.37670E-10
3.04617E-12 1.35932E-10
3.85530E-12 1.33997E-10
4.75964E-12 1.31878E-10
5.75917E-12 1.29586E-10
6.85391E-12 1.27138E-10
8.04379E-12 1.24544E-10
9.32893E-12 1.21822E-10
1.07092E-11 1.18986E-10
1.21847E-11 1.16049E-10
1.37554E-11 1.13030E-10
1.54213E-11 1.09939E-10
1.71823E-11 1.06794E-10
1.90386E-11 1.03607E-10
2.09900E-11 1.00391E-10
2.30367E-11 9.71623E-11
2.51785E-11 9.39267E-11
2.74156E-11 9.07021E-11
2.97478E-11 8.74948E-11
3.21752E-11 8.43161E-11
3.46979E-11 8.11763E-11
3.73157E-11 7.80793E-11
4.00286E-11 7.49816E-11
4.28368E-11 7.19348E-11
4.57402E-11 6.89831E-11
4.87388E-11 6.61283E-11
5.18325E-11 6.33718E-11
5.50215E-11 6.07139E-11
5.83057E-11 5.81547E-11
6.16850E-11 5.56187E-11
6.51595E-11 5.31228E-11
6.87293E-11 5.07305E-11
7.23943E-11 4.84397E-11
7.61544E-11 4.62481E-11
1.18991E-10 2.86925E-11
1.71347E-10 1.76790E-11
2.33223E-10 1.10732E-11
3.04617E-10 7.13961E-12
3.85531E-10 4.76310E-12
4.75965E-10 3.29110E-12
5.75917E-10 2.35468E-12
6.85389E-10 1.73633E-12
8.04380E-10 1.31689E-12
9.32891E-10 1.02218E-12
1.07092E-09 8.10216E-13
1.21847E-09 6.53952E-13
1.37554E-09 5.35745E-13
1.54213E-09 4.44437E-13
1.71823E-09 3.72688E-13
1.90386E-09 3.15473E-13
2.09900E-09 2.69276E-13
2.30367E-09 2.31579E-13
2.51785E-09 2.00412E-13
2.74156E-09 1.74445E-13
2.97478E-09 1.52580E-13
3.21752E-09 1.34052E-13
3.46978E-09 1.18271E-13
3.73156E-09 1.04735E-13
4.00286E-09 9.29920E-14
4.28368E-09 8.28844E-14
4.57402E-09 7.42178E-14
4.87388E-09 6.65155E-14
5.18326E-09 5.98018E-14
5.50215E-09 5.39723E-14
5.83057E-09 4.87261E-14
6.16850E-09 4.41334E-14
6.51596E-09 4.00884E-14
6.87293E-09 3.64329E-14
7.23942E-09 3.32062E-14
7.61544E-09 3.03281E-14
1.18991E-08 1.33349E-14
1.71347E-08 6.67195E-15
2.33223E-08 3.67351E-15
3.04617E-08 2.17804E-15
3.85531E-08 1.36902E-15
4.75965E-08 9.02043E-16
5.75917E-08 6.17801E-16
6.85389E-08 4.37011E-16
8.04380E-08 3.17680E-16
9.32891E-08 2.36394E-16
1.07092E-07 1.79499E-16
1.21847E-07 1.38723E-16
1.37554E-07 1.08889E-16
1.54213E-07 8.66527E-17
1.71823E-07 6.98085E-17
1.90386E-07 5.68652E-17
2.09900E-07 4.67871E-17
2.30367E-07 3.88459E-17
2.51785E-07 3.25202E-17
2.74156E-07 2.74312E-17
2.97478E-07 2.32998E-17
3.21752E-07 1.99177E-17
3.46978E-07 1.71275E-17
3.73156E-07 1.48093E-17
4.00286E-07 1.28703E-17
4.28368E-07 1.12385E-17
4.57402E-07 9.85733E-18
4.87388E-07 8.68195E-18
5.18325E-07 7.67664E-18
5.50215E-07 6.81272E-18
5.83057E-07 6.06698E-18
6.16850E-07 5.42054E-18
6.51596E-07 4.85795E-18
6.87293E-07 4.36649E-18
7.23942E-07 3.93564E-18
7.61543E-07 3.55664E-18
1.18991E-06 1.45695E-18
1.71347E-06 7.02663E-19
2.33223E-06 3.79298E-19
3.04617E-06 2.22346E-19
3.85531E-06 1.38814E-19
4.75964E-06 9.10784E-20
5.75916E-06 6.22094E-20
6.85388E-06 4.39251E-20
8.04378E-06 3.18915E-20
9.32888E-06 2.37108E-20
1.07092E-05 1.79930E-20
1.21846E-05 1.38995E-20
1.37553E-05 1.09067E-20
1.54212E-05 8.67778E-21
1.71822E-05 6.99027E-21
1.90385E-05 5.69374E-21
2.09899E-05 4.68828E-21
2.30365E-05 3.89066E-21
2.51783E-05 3.25532E-21
2.74153E-05 2.74476E-21
2.97475E-05 2.33098E-21
3.21749E-05 1.99279E-21
3.46974E-05 1.71406E-21
3.73152E-05 1.48248E-21
4.00281E-05 1.28864E-21
4.28362E-05 1.12531E-21
4.57395E-05 9.86912E-22
4.87380E-05 8.69065E-22
5.18317E-05 7.68280E-22
5.50205E-05 6.81729E-22
5.83045E-05 6.07091E-22
6.16838E-05 5.42448E-22
6.51582E-05 4.86215E-22
6.87277E-05 4.37087E-22
7.23925E-05 3.93991E-22
7.61524E-05 3.55785E-22
9.21439E-05 2.42909E-22
1.09658E-04 1.71529E-22
1.28695E-04 1.24508E-22
1.49255E-04 9.25548E-23
1.71338E-04 7.02285E-23
1.94942E-04 5.42353E-23
2.20070E-04 4.25531E-23
2.46720E-04 3.38470E-23
2.74892E-04 2.72596E-23
3.04586E-04 2.21981E-23
3.35803E-04 1.82574E-23
3.68542E-04 1.51542E-23
4.02802E-04 1.26815E-23
4.38585E-04 1.06937E-23
4.75889E-04 9.07969E-24
5.14715E-04 7.75882E-24
5.55063E-04 6.66952E-24
5.96931E-04 5.76437E-24
6.40321E-04 5.00774E-24
6.85233E-04 4.37092E-24
7.31665E-04 3.83212E-24
7.79618E-04 3.37369E-24
8.29092E-04 2.98164E-24
8.80086E-04 2.64488E-24
9.32601E-04 2.35418E-24
9.86636E-04 2.10232E-24
1.04219E-03 1.88314E-24
1.09927E-03 1.69173E-24
1.15786E-03 1.52398E-24
1.21797E-03 1.37644E-24
1.27961E-03 1.24630E-24
1.34276E-03 1.13111E-24
1.40743E-03 1.02890E-24
1.47362E-03 9.37930E-25
1.54133E-03 8.56756E-25
1.61056E-03 7.84152E-25
1.68131E-03 7.19037E-25
1.75357E-03 6.60523E-25
1.82735E-03 6.07810E-25
1.90265E-03 5.60229E-25
1.97947E-03 5.17194E-25
2.05780E-03 4.78188E-25
2.13765E-03 4.42776E-25
2.21902E-03 4.10560E-25
2.30190E-03 3.81207E-25
2.38630E-03 3.54415E-25
2.47222E-03 3.29920E-25
2.55965E-03 3.07494E-25
2.64859E-03 2.86927E-25
2.73905E-03 2.68040E-25
2.83103E-03 2.50671E-25
2.92452E-03 2.34675E-25
3.01952E-03 2.19926E-25
3.11604E-03 2.06307E-25
3.21407E-03 1.93719E-25
3.31362E-03 1.82068E-25
3.41468E-03 1.71272E-25
3.51725E-03 1.61258E-25
3.62133E-03 1.51958E-25
3.72692E-03 1.43313E-25
3.83403E-03 1.35267E-25
3.94265E-03 1.27773E-25
4.05278E-03 1.20785E-25
4.16442E-03 1.14263E-25
4.27757E-03 1.08171E-25
4.39223E-03 1.02474E-25
4.50840E-03 9.71438E-26
4.62608E-03 9.21511E-26
4.74527E-03 8.74712E-26
4.86597E-03 8.30810E-26
4.98817E-03 7.89591E-26
5.11188E-03 7.50864E-26
5.23711E-03 7.14449E-26
5.36383E-03 6.80185E-26
5.49207E-03 6.47921E-26
5.62181E-03 6.17520E-26
5.75306E-03 5.88855E-26
5.88581E-03 5.61807E-26
6.02007E-03 5.36271E-26
6.15583E-03 5.12146E-26
6.29310E-03 4.89340E-26
6.43187E-03 4.67769E-26
6.57214E-03 4.47352E-26
6.71392E-03 4.28019E-26
6.85720E-03 4.09699E-26
7.00198E-03 3.92332E-26
7.14827E-03 3.75858E-26
7.29605E-03 3.60222E-26
7.44534E-03 3.45377E-26
7.59612E-03 3.31272E-26
7.97965E-03 2.98978E-26
8.37255E-03 2.70448E-26
8.77480E-03 2.45173E-26
9.18641E-03 2.22719E-26
9.60736E-03 2.02721E-26
1.00376E-02 1.84865E-26
1.04773E-02 1.68885E-26
1.09262E-02 1.54551E-26
1.13844E-02 1.41665E-26
1.18520E-02 1.30058E-26
1.23288E-02 1.19581E-26
1.28150E-02 1.10108E-26
1.33104E-02 1.01524E-26
1.38150E-02 9.37349E-27
1.43290E-02 8.66535E-27
1.48521E-02 8.02053E-27
1.53845E-02 7.43247E-27
1.59262E-02 6.89534E-27
1.64770E-02 6.40403E-27
1.70371E-02 5.95400E-27
1.76063E-02 5.54122E-27
1.81848E-02 5.16212E-27
1.87724E-02 4.81349E-27
1.93692E-02 4.49252E-27
1.99751E-02 4.19664E-27
2.05901E-02 3.92360E-27
2.12143E-02 3.67134E-27
2.18476E-02 3.43803E-27
2.24900E-02 3.22204E-27
2.31415E-02 3.02187E-27
2.38021E-02 2.83618E-27
2.44717E-02 2.66377E-27
2.51504E-02 2.50353E-27
2.58382E-02 2.35448E-27
2.65349E-02 2.21571E-27
2.72407E-02 2.08641E-27
2.79555E-02 1.96584E-27
2.86793E-02 1.85331E-27
2.94120E-02 1.74820E-27
3.01537E-02 1.64997E-27
3.09043E-02 1.55808E-27
3.16639E-02 1.47207E-27
3.24324E-02 1.39150E-27
3.32098E-02 1.31599E-27
3.39961E-02 1.24517E-27
3.47912E-02 1.17870E-27
3.55952E-02 1.11629E-27
3.64081E-02 1.05764E-27
3.72297E-02 1.00249E-27
3.80602E-02 9.50618E-28
3.88995E-02 9.01790E-28
3.97476E-02 8.55806E-28
4.06044E-02 8.12477E-28
4.14700E-02 7.71628E-28
4.23443E-02 7.33099E-28
4.32273E-02 6.96739E-28
4.41190E-02 6.62410E-28
4.50194E-02 6.29984E-28
4.59284E-02 5.99341E-28
4.68461E-02 5.70369E-28
4.87074E-02 5.17038E-28
5.06030E-02 4.69246E-28
5.25328E-02 4.26351E-28
5.44967E-02 3.87792E-28
5.64946E-02 3.53079E-28
5.85262E-02 3.21786E-28
6.05914E-02 2.93538E-28
6.26901E-02 2.68006E-28
6.48222E-02 2.44900E-28
6.69873E-02 2.23966E-28
6.91854E-02 2.04978E-28
7.14163E-02 1.87738E-28
7.36799E-02 1.72067E-28
7.59760E-02 1.57809E-28
7.83043E-02 1.44825E-28
8.06647E-02 1.32991E-28
8.30571E-02 1.22194E-28
8.54812E-02 1.12336E-28
8.79369E-02 1.03328E-28
9.04240E-02 9.50902E-29
9.29422E-02 8.75518E-29
9.54915E-02 8.06482E-29
9.80716E-02 7.43218E-29
1.00682E-01 6.85206E-29
1.03323E-01 6.31977E-29
1.05995E-01 5.83107E-29
1.08696E-01 5.38213E-29
1.11427E-01 4.96951E-29
1.14188E-01 4.59005E-29
1.16978E-01 4.24092E-29
1.19797E-01 3.91955E-29
1.22645E-01 3.62357E-29
1.25522E-01 3.35088E-29
1.28428E-01 3.09952E-29
1.31361E-01 2.86774E-29
1.34323E-01 2.65393E-29
1.37313E-01 2.45661E-29
1.40330E-01 2.27446E-29
1.43375E-01 2.10624E-29
1.46447E-01 1.95085E-29
1.49545E-01 1.80725E-29
1.52671E-01 1.67451E-29
1.55823E-01 1.55178E-29
1.59001E-01 1.43827E-29
1.62205E-01 1.33326E-29
1.65435E-01 1.23608E-29
1.68690E-01 1.14614E-29
1.71970E-01 1.06287E-29
1.75276E-01 9.85764E-30
1.78606E-01 9.14347E-30
1.81961E-01 8.48188E-30
1.85340E-01 7.86889E-30
1.88743E-01 7.30081E-30
1.92169E-01 6.77427E-30
1.95619E-01 6.28615E-30
1.99092E-01 5.83358E-30
2.02589E-01 5.41391E-30
2.06107E-01 5.02469E-30
2.09649E-01 4.66367E-30
2.13212E-01 4.32876E-30
2.16797E-01 4.01804E-30
2.20404E-01 3.72974E-30
2.24032E-01 3.46220E-30
2.27680E-01 3.21390E-30
2.31350E-01 2.98346E-30
2.35040E-01 2.76955E-30
2.38751E-01 2.57099E-30
2.42481E-01 2.38666E-30
2.46231E-01 2.21553E-30
2.50000E-01 2.05664E-30
2.53788E-01 1.90911E-30
2.57595E-01 1.77213E-30
2.61421E-01 1.64493E-30
2.65264E-01 1.52681E-30
2.69126E-01 1.41712E-30
2.73005E-01 1.31526E-30
2.76901E-01 1.22067E-30
2.80814E-01 1.13282E-30
2.84744E-01 1.05123E-30
2.88691E-01 9.75468E-31
2.92653E-01 9.05105E-31
2.96632E-01 8.39761E-31
3.00625E-01 7.79077E-31
3.04634E-01 7.22723E-31
3.08658E-01 6.70391E-31
3.12697E-01 6.21794E-31
3.16749E-01 5.76668E-31
3.20816E-01 5.34766E-31
3.24896E-01 4.95859E-31
3.28990E-01 4.59735E-31
3.33097E-01 4.26196E-31
3.37216E-01 3.95059E-31
3.41348E-01 3.66153E-31
3.45492E-01 3.39320E-31
3.49647E-01 3.14414E-31
3.53814E-01 2.91297E-31
3.57992E-01 2.69842E-31
3.62181E-01 2.49932E-31
3.66381E-01 2.31456E-31
3.70590E-01 2.14314E-31
3.74810E-01 1.98409E-31
3.79039E-01 1.83655E-31
3.83277E-01 1.69968E-31
3.87524E-01 1.57275E-31
3.91780E-01 1.45502E-31
3.96044E-01 1.34586E-31
4.00316E-01 1.24464E-31
4.04596E-01 1.15081E-31
4.08882E-01 1.06383E-31
4.13176E-01 9.83218E-32
4.17476E-01 9.08514E-32
4.21783E-01 8.39296E-32
4.26095E-01 7.75170E-32
4.30413E-01 7.15769E-32
4.34737E-01 6.60757E-32
4.39065E-01 6.09816E-32
4.43398E-01 5.62652E-32
4.47736E-01 5.18996E-32
4.52077E-01 4.78591E-32
4.56422E-01 4.41204E-32
4.60770E-01 4.06616E-32
4.65122E-01 3.74623E-32
4.69476E-01 3.45036E-32
4.73832E-01 3.17682E-32
4.78190E-01 2.92396E-32
4.82550E-01 2.69028E-32
4.86912E-01 2.47438E-32
4.91274E-01 2.27494E-32
4.95637E-01 2.09078E-32
5.00000E-01 1.92074E-32
5.04363E-01 1.76381E-32
5.08726E-01 1.61900E-32
5.13088E-01 1.48542E-32
5.17450E-01 1.36223E-32
5.21810E-01 1.24866E-32
5.26168E-01 1.14400E-32
5.30524E-01 1.04757E-32
5.34878E-01 9.58765E-33
5.39230E-01 8.77005E-33
5.43578E-01 8.01757E-33
5.47923E-01 7.32530E-33
5.52264E-01 6.68873E-33
5.56602E-01 6.10352E-33
5.60935E-01 5.56584E-33
5.65263E-01 5.07197E-33
5.69587E-01 4.61863E-33
5.73905E-01 4.20264E-33
5.78217E-01 3.82113E-33
5.82524E-01 3.47142E-33
5.86824E-01 3.15103E-33
5.91118E-01 2.85768E-33
5.95404E-01 2.58921E-33
5.99684E-01 2.34368E-33
6.03956E-01 2.11928E-33
6.08220E-01 1.91432E-33
6.12476E-01 1.72725E-33
6.16723E-01 1.55662E-33
6.20961E-01 1.40113E-33
6.25190E-01 1.25952E-33
6.29410E-01 1.13068E-33
6.33619E-01 1.01356E-33
6.37819E-01 9.07188E-34
6.42008E-01 8.10682E-34
6.46186E-01 7.23210E-34
6.50353E-01 6.44013E-34
6.54508E-01 5.72391E-34
6.58652E-01 5.07711E-34
6.62784E-01 4.49369E-34
6.66903E-01 3.96819E-34
6.71010E-01 3.49553E-34
6.75104E-01 3.07113E-34
6.79184E-01 2.69083E-34
6.83251E-01 2.35045E-34
6.87303E-01 2.04662E-34
6.91342E-01 1.77589E-34
6.95366E-01 1.53523E-34
6.99375E-01 1.32195E-34
7.03368E-01 1.13336E-34
7.07347E-01 9.67220E-35
7.11309E-01 8.21305E-35
7.15256E-01 6.93687E-35
7.19186E-01 5.82543E-35
7.23099E-01 4.86181E-35
7.26995E-01 4.03205E-35
7.30874E-01 3.32153E-35
7.34736E-01 2.71802E-35
7.38579E-01 2.20980E-35
7.42405E-01 1.78666E-35
7.46212E-01 1.43915E-35
7.50000E-01 1.15853E-35
7.53769E-01 9.37032E-36
7.57519E-01 7.67507E-36
7.61249E-01 6.43530E-36
7.64960E-01 5.59277E-36
7.68650E-01 5.09501E-36
7.72320E-01 4.89451E-36
7.75968E-01 4.94813E-36
7.79596E-01 5.21738E-36
7.83203E-01 5.66939E-36
7.86788E-01 6.27016E-36
7.90351E-01 6.99337E-36
7.93893E-01 7.81486E-36
7.97411E-01 8.71288E-36
8.00908E-01 9.66757E-36
8.04381E-01 1.06608E-35
8.07831E-01 1.16797E-35
8.11257E-01 1.27081E-35
8.14660E-01 1.37369E-35
8.18039E-01 1.47538E-35
8.21394E-01 1.57542E-35
8.24724E-01 1.67248E-35
8.28030E-01 1.76653E-35
8.31310E-01 1.85651E-35
8.34565E-01 1.94239E-35
8.37795E-01 2.02339E-35
8.40999E-01 2.09985E-35
8.44177E-01 2.17089E-35
8.47329E-01 2.23681E-35
8.50455E-01 2.29730E-35
8.53553E-01 2.35251E-35
8.56625E-01 2.40198E-35
8.59670E-01 2.44632E-35
8.62687E-01 2.48487E-35
8.65677E-01 2.51836E-35
8.68639E-01 2.54670E-35
8.71572E-01 2.56996E-35
8.74478E-01 2.58806E-35
8.77355E-01 2.60112E-35
8.80203E-01 2.61001E-35
8.83022E-01 2.61415E-35
8.85812E-01 2.61387E-35
8.88573E-01 2.60978E-35
8.91304E-01 2.60146E-35
8.94005E-01 2.58913E-35
8.96677E-01 2.57364E-35
8.99318E-01 2.55439E-35
9.01928E-01 2.53231E-35
9.04508E-01 2.50682E-35
9.07058E-01 2.47872E-35
9.09576E-01 2.44799E-35
9.12063E-01 2.41449E-35
9.14519E-01 2.37896E-35
9.16943E-01 2.34136E-35
9.19335E-01 2.30152E-35
9.21696E-01 2.25991E-35
9.24024E-01 2.21694E-35
9.26320E-01 2.17221E-35
9.28584E-01 2.12635E-35
9.30815E-01 2.07908E-35
9.33013E-01 2.03095E-35
9.35178E-01 1.98190E-35
9.37310E-01 1.93161E-35
9.39409E-01 1.88140E-35
9.41474E-01 1.83013E-35
9.43505E-01 1.77860E-35
9.45503E-01 1.72652E-35
9.47467E-01 1.67465E-35
9.49397E-01 1.62224E-35
9.51293E-01 1.56992E-35
9.53154E-01 1.51787E-35
9.54981E-01 1.46570E-35
9.56773E-01 1.41376E-35
9.58530E-01 1.36204E-35
9.60252E-01 1.31114E-35
9.61940E-01 1.26020E-35
9.63592E-01 1.20996E-35
9.65209E-01 1.16001E-35
9.66790E-01 1.11111E-35
9.68336E-01 1.06233E-35
9.69846E-01 1.01473E-35
9.71321E-01 9.67666E-36
9.72759E-01 9.21410E-36
9.74162E-01 8.76065E-36
9.75528E-01 8.31556E-36
9.76858E-01 7.88046E-36
9.78152E-01 7.45363E-36
9.79410E-01 7.03880E-36
9.80631E-01 6.63268E-36
9.81815E-01 6.23794E-36
9.82963E-01 5.85176E-36
9.84074E-01 5.47747E-36
9.85148E-01 5.11599E-36
9.86185E-01 4.76502E-36
9.87185E-01 4.42682E-36
9.88148E-01 4.09718E-36
9.89074E-01 3.78215E-36
9.89962E-01 3.47785E-36
9.90814E-01 3.18598E-36
9.91627E-01 2.90708E-36
9.92404E-01 2.63801E-36
9.93143E-01 2.38288E-36
9.93844E-01 2.14174E-36
9.94508E-01 1.91100E-36
9.95134E-01 1.69427E-36
9.95722E-01 1.49018E-36
9.96273E-01 1.30064E-36
9.96786E-01 1.12125E-36
9.97261E-01 9.56343E-37
9.97698E-01 8.03966E-37
9.98097E-01 6.66004E-37
9.98459E-01 5.39237E-37
9.98782E-01 4.26987E-37
9.99067E-01 3.27383E-37
9.99315E-01 2.41837E-37
9.99524E-01 1.69092E-37
9.99695E-01 1.08918E-37
9.99829E-01 6.20057E-38
9.99924E-01 2.87540E-38
9.99981E-01 8.76036E-39
1.00000E+00 1.89877E-39
