 #
 # Subroutine ELSEPA. Elastic scattering of electrons and positrons
 #                    by neutral atoms and positive ions
 #
 # Projectile: electron
 # Kinetic energy = 1.00000E+06 eV = 3.67493E+04 a.u.
 #
 # Element: Be,  Z =   4,  atomic weight = 9.01220E+00 g/mol
 #
 # Nuclear model: Fermi distribution
 #                Average radius = 2.22669E-13 cm
 #                Skin thickness = 5.46000E-14 cm
 #
 # Number of electrons =  4
 #
 # Electron density: Read from file Data/z_004.d
 #                   Number of data points =  757
 #                   Volume integral = 4.00000E+00
 #
 # Furness-McCarthy exchange potential
 #
 # LDA absorption potential (only electron-hole excitations):
 #                           Delta = 2.73000E+00 eV
 #                            Aabs = 2.00000E+00
 #
 # Total elastic cross section = 1.91973E-19 cm**2 = 6.85547E-03 a0**2
 # 1st transport cross section = 1.16900E-23 cm**2 = 4.17458E-07 a0**2
 # 2nd transport cross section = 3.30745E-23 cm**2 = 1.18111E-06 a0**2
 #
 #    Absorption cross section = 2.70315E-19 cm**2 = 9.65313E-03 a0**2
 #   Grand total cross section = 4.62763E-19 cm**2 = 1.65256E-02 a0**2
 #
 #
 # Differential cross section:                       MU=(1-COS(THETA))/2
 #
 #  THETA        MU          DCS          DCS        Sherman      error
 #  (deg)                 (cm**2/sr)   (a0**2/sr)    function
 #----------------------------------------------------------------------
0.00000E+00 8.15512E-15
7.61557E-13 8.15511E-15
1.18994E-12 8.15511E-15
1.71346E-12 8.15510E-15
2.33225E-12 8.15510E-15
3.04617E-12 8.15509E-15
3.85530E-12 8.15509E-15
4.75964E-12 8.15508E-15
5.75917E-12 8.15507E-15
6.85391E-12 8.15506E-15
8.04379E-12 8.15506E-15
9.32893E-12 8.15505E-15
1.07092E-11 8.15504E-15
1.21847E-11 8.15502E-15
1.37554E-11 8.15501E-15
1.54213E-11 8.15500E-15
1.71823E-11 8.15499E-15
1.90386E-11 8.15497E-15
2.09900E-11 8.15496E-15
2.30367E-11 8.15494E-15
2.51785E-11 8.15493E-15
2.74156E-11 8.15491E-15
2.97478E-11 8.15489E-15
3.21752E-11 8.15488E-15
3.46979E-11 8.15486E-15
3.73157E-11 8.15484E-15
4.00286E-11 8.15482E-15
4.28368E-11 8.15480E-15
4.57402E-11 8.15478E-15
4.87388E-11 8.15475E-15
5.18325E-11 8.15473E-15
5.50215E-11 8.15471E-15
5.83057E-11 8.15468E-15
6.16850E-11 8.15466E-15
6.51595E-11 8.15463E-15
6.87293E-11 8.15461E-15
7.23943E-11 8.15458E-15
7.61544E-11 8.15455E-15
1.18991E-10 8.15423E-15
1.71347E-10 8.15384E-15
2.33223E-10 8.15339E-15
3.04617E-10 8.15286E-15
3.85531E-10 8.15226E-15
4.75965E-10 8.15159E-15
5.75917E-10 8.15085E-15
6.85389E-10 8.15003E-15
8.04380E-10 8.14915E-15
9.32891E-10 8.14820E-15
1.07092E-09 8.14718E-15
1.21847E-09 8.14608E-15
1.37554E-09 8.14492E-15
1.54213E-09 8.14369E-15
1.71823E-09 8.14238E-15
1.90386E-09 8.14101E-15
2.09900E-09 8.13957E-15
2.30367E-09 8.13805E-15
2.51785E-09 8.13647E-15
2.74156E-09 8.13482E-15
2.97478E-09 8.13309E-15
3.21752E-09 8.13130E-15
3.46978E-09 8.12943E-15
3.73156E-09 8.12750E-15
4.00286E-09 8.12550E-15
4.28368E-09 8.12343E-15
4.57402E-09 8.12128E-15
4.87388E-09 8.11907E-15
5.18326E-09 8.11679E-15
5.50215E-09 8.11444E-15
5.83057E-09 8.11202E-15
6.16850E-09 8.10953E-15
6.51596E-09 8.10698E-15
6.87293E-09 8.10435E-15
7.23942E-09 8.10166E-15
7.61544E-09 8.09889E-15
1.18991E-08 8.06749E-15
1.71347E-08 8.02933E-15
2.33223E-08 7.98454E-15
3.04617E-08 7.93327E-15
3.85531E-08 7.87569E-15
4.75965E-08 7.81198E-15
5.75917E-08 7.74236E-15
6.85389E-08 7.66705E-15
8.04380E-08 7.58629E-15
9.32891E-08 7.50033E-15
1.07092E-07 7.40943E-15
1.21847E-07 7.31387E-15
1.37554E-07 7.21394E-15
1.54213E-07 7.10991E-15
1.71823E-07 7.00210E-15
1.90386E-07 6.89080E-15
2.09900E-07 6.77630E-15
2.30367E-07 6.65893E-15
2.51785E-07 6.53897E-15
2.74156E-07 6.41672E-15
2.97478E-07 6.29250E-15
3.21752E-07 6.16658E-15
3.46978E-07 6.03925E-15
3.73156E-07 5.91080E-15
4.00286E-07 5.78149E-15
4.28368E-07 5.65159E-15
4.57402E-07 5.52136E-15
4.87388E-07 5.39103E-15
5.18325E-07 5.26083E-15
5.50215E-07 5.13100E-15
5.83057E-07 5.00174E-15
6.16850E-07 4.87325E-15
6.51596E-07 4.74571E-15
6.87293E-07 4.61930E-15
7.23942E-07 4.49418E-15
7.61543E-07 4.37049E-15
1.18991E-06 3.23746E-15
1.71347E-06 2.33290E-15
2.33223E-06 1.65777E-15
3.04617E-06 1.17459E-15
3.85531E-06 8.36761E-16
4.75964E-06 6.02855E-16
5.75916E-06 4.40902E-16
6.85388E-06 3.28012E-16
8.04378E-06 2.48441E-16
9.32888E-06 1.91567E-16
1.07092E-05 1.50282E-16
1.21846E-05 1.19824E-16
1.37553E-05 9.69844E-17
1.54212E-05 7.95831E-17
1.71822E-05 6.61206E-17
1.90385E-05 5.55532E-17
2.09899E-05 4.71448E-17
2.30365E-05 4.03695E-17
2.51783E-05 3.48461E-17
2.74153E-05 3.02946E-17
2.97475E-05 2.65071E-17
3.21749E-05 2.33269E-17
3.46974E-05 2.06347E-17
3.73152E-05 1.83384E-17
4.00281E-05 1.63666E-17
4.28362E-05 1.46628E-17
4.57395E-05 1.31823E-17
4.87380E-05 1.18892E-17
5.18317E-05 1.07545E-17
5.50205E-05 9.75461E-18
5.83045E-05 8.86990E-18
6.16838E-05 8.08424E-18
6.51582E-05 7.38420E-18
6.87277E-05 6.75852E-18
7.23925E-05 6.19768E-18
7.61524E-05 5.69367E-18
9.21439E-05 4.12201E-18
1.09658E-04 3.05207E-18
1.28695E-04 2.30353E-18
1.49255E-04 1.76763E-18
1.71338E-04 1.37654E-18
1.94942E-04 1.08615E-18
2.20070E-04 8.67311E-19
2.46720E-04 7.00102E-19
2.74892E-04 5.70763E-19
3.04586E-04 4.69579E-19
3.35803E-04 3.89580E-19
3.68542E-04 3.25739E-19
4.02802E-04 2.74309E-19
4.38585E-04 2.32559E-19
4.75889E-04 1.98376E-19
5.14715E-04 1.70213E-19
5.55063E-04 1.46827E-19
5.96931E-04 1.27306E-19
6.40321E-04 1.10897E-19
6.85233E-04 9.70391E-20
7.31665E-04 8.52647E-20
7.79618E-04 7.52176E-20
8.29092E-04 6.66003E-20
8.80086E-04 5.91773E-20
9.32601E-04 5.27576E-20
9.86636E-04 4.71811E-20
1.04219E-03 4.23216E-20
1.09927E-03 3.80683E-20
1.15786E-03 3.43367E-20
1.21797E-03 3.10486E-20
1.27961E-03 2.81454E-20
1.34276E-03 2.55719E-20
1.40743E-03 2.32862E-20
1.47362E-03 2.12493E-20
1.54133E-03 1.94304E-20
1.61056E-03 1.78014E-20
1.68131E-03 1.63395E-20
1.75357E-03 1.50244E-20
1.82735E-03 1.38388E-20
1.90265E-03 1.27679E-20
1.97947E-03 1.17984E-20
2.05780E-03 1.09192E-20
2.13765E-03 1.01202E-20
2.21902E-03 9.39303E-21
2.30190E-03 8.72991E-21
2.38630E-03 8.12425E-21
2.47222E-03 7.57019E-21
2.55965E-03 7.06256E-21
2.64859E-03 6.59673E-21
2.73905E-03 6.16866E-21
2.83103E-03 5.77476E-21
2.92452E-03 5.41178E-21
3.01952E-03 5.07687E-21
3.11604E-03 4.76746E-21
3.21407E-03 4.48126E-21
3.31362E-03 4.21621E-21
3.41468E-03 3.97047E-21
3.51725E-03 3.74237E-21
3.62133E-03 3.53041E-21
3.72692E-03 3.33325E-21
3.83403E-03 3.14965E-21
3.94265E-03 2.97853E-21
4.05278E-03 2.81887E-21
4.16442E-03 2.66976E-21
4.27757E-03 2.53038E-21
4.39223E-03 2.39998E-21
4.50840E-03 2.27787E-21
4.62608E-03 2.16342E-21
4.74527E-03 2.05608E-21
4.86597E-03 1.95531E-21
4.98817E-03 1.86064E-21
5.11188E-03 1.77163E-21
5.23711E-03 1.68788E-21
5.36383E-03 1.60902E-21
5.49207E-03 1.53471E-21
5.62181E-03 1.46464E-21
5.75306E-03 1.39853E-21
5.88581E-03 1.33610E-21
6.02007E-03 1.27712E-21
6.15583E-03 1.22136E-21
6.29310E-03 1.16861E-21
6.43187E-03 1.11867E-21
6.57214E-03 1.07138E-21
6.71392E-03 1.02656E-21
6.85720E-03 9.84051E-22
7.00198E-03 9.43726E-22
7.14827E-03 9.05444E-22
7.29605E-03 8.69087E-22
7.44534E-03 8.34534E-22
7.59612E-03 8.01684E-22
7.97965E-03 7.26353E-22
8.37255E-03 6.59669E-22
8.77480E-03 6.00463E-22
9.18641E-03 5.47752E-22
9.60736E-03 5.00702E-22
1.00376E-02 4.58596E-22
1.04773E-02 4.20824E-22
1.09262E-02 3.86862E-22
1.13844E-02 3.56257E-22
1.18520E-02 3.28619E-22
1.23288E-02 3.03611E-22
1.28150E-02 2.80936E-22
1.33104E-02 2.60339E-22
1.38150E-02 2.41594E-22
1.43290E-02 2.24507E-22
1.48521E-02 2.08903E-22
1.53845E-02 1.94632E-22
1.59262E-02 1.81558E-22
1.64770E-02 1.69564E-22
1.70371E-02 1.58543E-22
1.76063E-02 1.48403E-22
1.81848E-02 1.39061E-22
1.87724E-02 1.30442E-22
1.93692E-02 1.22481E-22
1.99751E-02 1.15117E-22
2.05901E-02 1.08298E-22
2.12143E-02 1.01977E-22
2.18476E-02 9.61094E-23
2.24900E-02 9.06579E-23
2.31415E-02 8.55875E-23
2.38021E-02 8.08661E-23
2.44717E-02 7.64656E-23
2.51504E-02 7.23601E-23
2.58382E-02 6.85265E-23
2.65349E-02 6.49432E-23
2.72407E-02 6.15909E-23
2.79555E-02 5.84519E-23
2.86793E-02 5.55101E-23
2.94120E-02 5.27509E-23
3.01537E-02 5.01608E-23
3.09043E-02 4.77277E-23
3.16639E-02 4.54402E-23
3.24324E-02 4.32878E-23
3.32098E-02 4.12612E-23
3.39961E-02 3.93517E-23
3.47912E-02 3.75513E-23
3.55952E-02 3.58526E-23
3.64081E-02 3.42487E-23
3.72297E-02 3.27334E-23
3.80602E-02 3.13007E-23
3.88995E-02 2.99455E-23
3.97476E-02 2.86628E-23
4.06044E-02 2.74479E-23
4.14700E-02 2.62966E-23
4.23443E-02 2.52049E-23
4.32273E-02 2.41691E-23
4.41190E-02 2.31859E-23
4.50194E-02 2.22521E-23
4.59284E-02 2.13648E-23
4.68461E-02 2.05211E-23
4.87074E-02 1.89548E-23
5.06030E-02 1.75349E-23
5.25328E-02 1.62452E-23
5.44967E-02 1.50715E-23
5.64946E-02 1.40017E-23
5.85262E-02 1.30250E-23
6.05914E-02 1.21316E-23
6.26901E-02 1.13134E-23
6.48222E-02 1.05628E-23
6.69873E-02 9.87316E-24
6.91854E-02 9.23873E-24
7.14163E-02 8.65427E-24
7.36799E-02 8.11511E-24
7.59760E-02 7.61714E-24
7.83043E-02 7.15664E-24
8.06647E-02 6.73026E-24
8.30571E-02 6.33503E-24
8.54812E-02 5.96826E-24
8.79369E-02 5.62750E-24
9.04240E-02 5.31061E-24
9.29422E-02 5.01558E-24
9.54915E-02 4.74067E-24
9.80716E-02 4.48422E-24
1.00682E-01 4.24479E-24
1.03323E-01 4.02102E-24
1.05995E-01 3.81171E-24
1.08696E-01 3.61575E-24
1.11427E-01 3.43215E-24
1.14188E-01 3.25997E-24
1.16978E-01 3.09838E-24
1.19797E-01 2.94660E-24
1.22645E-01 2.80393E-24
1.25522E-01 2.66972E-24
1.28428E-01 2.54338E-24
1.31361E-01 2.42436E-24
1.34323E-01 2.31217E-24
1.37313E-01 2.20633E-24
1.40330E-01 2.10642E-24
1.43375E-01 2.01205E-24
1.46447E-01 1.92285E-24
1.49545E-01 1.83850E-24
1.52671E-01 1.75866E-24
1.55823E-01 1.68307E-24
1.59001E-01 1.61146E-24
1.62205E-01 1.54357E-24
1.65435E-01 1.47917E-24
1.68690E-01 1.41806E-24
1.71970E-01 1.36003E-24
1.75276E-01 1.30491E-24
1.78606E-01 1.25251E-24
1.81961E-01 1.20268E-24
1.85340E-01 1.15527E-24
1.88743E-01 1.11015E-24
1.92169E-01 1.06717E-24
1.95619E-01 1.02622E-24
1.99092E-01 9.87185E-25
2.02589E-01 9.49962E-25
2.06107E-01 9.14451E-25
2.09649E-01 8.80557E-25
2.13212E-01 8.48191E-25
2.16797E-01 8.17273E-25
2.20404E-01 7.87726E-25
2.24032E-01 7.59479E-25
2.27680E-01 7.32465E-25
2.31350E-01 7.06620E-25
2.35040E-01 6.81883E-25
2.38751E-01 6.58197E-25
2.42481E-01 6.35510E-25
2.46231E-01 6.13772E-25
2.50000E-01 5.92936E-25
2.53788E-01 5.72959E-25
2.57595E-01 5.53798E-25
2.61421E-01 5.35414E-25
2.65264E-01 5.17770E-25
2.69126E-01 5.00828E-25
2.73005E-01 4.84557E-25
2.76901E-01 4.68926E-25
2.80814E-01 4.53905E-25
2.84744E-01 4.39467E-25
2.88691E-01 4.25583E-25
2.92653E-01 4.12229E-25
2.96632E-01 3.99379E-25
3.00625E-01 3.87013E-25
3.04634E-01 3.75109E-25
3.08658E-01 3.63646E-25
3.12697E-01 3.52606E-25
3.16749E-01 3.41969E-25
3.20816E-01 3.31719E-25
3.24896E-01 3.21837E-25
3.28990E-01 3.12308E-25
3.33097E-01 3.03119E-25
3.37216E-01 2.94255E-25
3.41348E-01 2.85703E-25
3.45492E-01 2.77450E-25
3.49647E-01 2.69480E-25
3.53814E-01 2.61783E-25
3.57992E-01 2.54351E-25
3.62181E-01 2.47172E-25
3.66381E-01 2.40236E-25
3.70590E-01 2.33532E-25
3.74810E-01 2.27051E-25
3.79039E-01 2.20784E-25
3.83277E-01 2.14724E-25
3.87524E-01 2.08862E-25
3.91780E-01 2.03191E-25
3.96044E-01 1.97703E-25
4.00316E-01 1.92392E-25
4.04596E-01 1.87250E-25
4.08882E-01 1.82271E-25
4.13176E-01 1.77449E-25
4.17476E-01 1.72779E-25
4.21783E-01 1.68255E-25
4.26095E-01 1.63870E-25
4.30413E-01 1.59622E-25
4.34737E-01 1.55503E-25
4.39065E-01 1.51510E-25
4.43398E-01 1.47638E-25
4.47736E-01 1.43882E-25
4.52077E-01 1.40240E-25
4.56422E-01 1.36706E-25
4.60770E-01 1.33277E-25
4.65122E-01 1.29949E-25
4.69476E-01 1.26719E-25
4.73832E-01 1.23582E-25
4.78190E-01 1.20538E-25
4.82550E-01 1.17581E-25
4.86912E-01 1.14709E-25
4.91274E-01 1.11919E-25
4.95637E-01 1.09209E-25
5.00000E-01 1.06575E-25
5.04363E-01 1.04015E-25
5.08726E-01 1.01528E-25
5.13088E-01 9.91091E-26
5.17450E-01 9.67577E-26
5.21810E-01 9.44714E-26
5.26168E-01 9.22478E-26
5.30524E-01 9.00850E-26
5.34878E-01 8.79811E-26
5.39230E-01 8.59341E-26
5.43578E-01 8.39423E-26
5.47923E-01 8.20040E-26
5.52264E-01 8.01174E-26
5.56602E-01 7.82811E-26
5.60935E-01 7.64933E-26
5.65263E-01 7.47526E-26
5.69587E-01 7.30576E-26
5.73905E-01 7.14067E-26
5.78217E-01 6.97989E-26
5.82524E-01 6.82326E-26
5.86824E-01 6.67068E-26
5.91118E-01 6.52201E-26
5.95404E-01 6.37713E-26
5.99684E-01 6.23594E-26
6.03956E-01 6.09833E-26
6.08220E-01 5.96418E-26
6.12476E-01 5.83342E-26
6.16723E-01 5.70593E-26
6.20961E-01 5.58161E-26
6.25190E-01 5.46038E-26
6.29410E-01 5.34214E-26
6.33619E-01 5.22682E-26
6.37819E-01 5.11432E-26
6.42008E-01 5.00458E-26
6.46186E-01 4.89751E-26
6.50353E-01 4.79304E-26
6.54508E-01 4.69109E-26
6.58652E-01 4.59159E-26
6.62784E-01 4.49448E-26
6.66903E-01 4.39970E-26
6.71010E-01 4.30716E-26
6.75104E-01 4.21684E-26
6.79184E-01 4.12864E-26
6.83251E-01 4.04252E-26
6.87303E-01 3.95843E-26
6.91342E-01 3.87630E-26
6.95366E-01 3.79609E-26
6.99375E-01 3.71775E-26
7.03368E-01 3.64122E-26
7.07347E-01 3.56647E-26
7.11309E-01 3.49343E-26
7.15256E-01 3.42207E-26
7.19186E-01 3.35235E-26
7.23099E-01 3.28421E-26
7.26995E-01 3.21763E-26
7.30874E-01 3.15257E-26
7.34736E-01 3.08897E-26
7.38579E-01 3.02682E-26
7.42405E-01 2.96606E-26
7.46212E-01 2.90666E-26
7.50000E-01 2.84859E-26
7.53769E-01 2.79183E-26
7.57519E-01 2.73633E-26
7.61249E-01 2.68206E-26
7.64960E-01 2.62900E-26
7.68650E-01 2.57712E-26
7.72320E-01 2.52637E-26
7.75968E-01 2.47675E-26
7.79596E-01 2.42821E-26
7.83203E-01 2.38075E-26
7.86788E-01 2.33432E-26
7.90351E-01 2.28891E-26
7.93893E-01 2.24450E-26
7.97411E-01 2.20104E-26
8.00908E-01 2.15854E-26
8.04381E-01 2.11695E-26
8.07831E-01 2.07627E-26
8.11257E-01 2.03648E-26
8.14660E-01 1.99754E-26
8.18039E-01 1.95945E-26
8.21394E-01 1.92218E-26
8.24724E-01 1.88570E-26
8.28030E-01 1.85002E-26
8.31310E-01 1.81511E-26
8.34565E-01 1.78095E-26
8.37795E-01 1.74752E-26
8.40999E-01 1.71481E-26
8.44177E-01 1.68281E-26
8.47329E-01 1.65149E-26
8.50455E-01 1.62084E-26
8.53553E-01 1.59085E-26
8.56625E-01 1.56151E-26
8.59670E-01 1.53280E-26
8.62687E-01 1.50471E-26
8.65677E-01 1.47722E-26
8.68639E-01 1.45032E-26
8.71572E-01 1.42400E-26
8.74478E-01 1.39825E-26
8.77355E-01 1.37306E-26
8.80203E-01 1.34841E-26
8.83022E-01 1.32430E-26
8.85812E-01 1.30070E-26
8.88573E-01 1.27762E-26
8.91304E-01 1.25504E-26
8.94005E-01 1.23296E-26
8.96677E-01 1.21136E-26
8.99318E-01 1.19023E-26
9.01928E-01 1.16957E-26
9.04508E-01 1.14937E-26
9.07058E-01 1.12960E-26
9.09576E-01 1.11028E-26
9.12063E-01 1.09139E-26
9.14519E-01 1.07292E-26
9.16943E-01 1.05487E-26
9.19335E-01 1.03723E-26
9.21696E-01 1.01998E-26
9.24024E-01 1.00313E-26
9.26320E-01 9.86659E-27
9.28584E-01 9.70573E-27
9.30815E-01 9.54859E-27
9.33013E-01 9.39514E-27
9.35178E-01 9.24528E-27
9.37310E-01 9.09894E-27
9.39409E-01 8.95609E-27
9.41474E-01 8.81664E-27
9.43505E-01 8.68057E-27
9.45503E-01 8.54785E-27
9.47467E-01 8.41838E-27
9.49397E-01 8.29215E-27
9.51293E-01 8.16905E-27
9.53154E-01 8.04905E-27
9.54981E-01 7.93214E-27
9.56773E-01 7.81822E-27
9.58530E-01 7.70732E-27
9.60252E-01 7.59936E-27
9.61940E-01 7.49429E-27
9.63592E-01 7.39209E-27
9.65209E-01 7.29266E-27
9.66790E-01 7.19602E-27
9.68336E-01 7.10212E-27
9.69846E-01 7.01092E-27
9.71321E-01 6.92244E-27
9.72759E-01 6.83657E-27
9.74162E-01 6.75331E-27
9.75528E-01 6.67263E-27
9.76858E-01 6.59444E-27
9.78152E-01 6.51881E-27
9.79410E-01 6.44565E-27
9.80631E-01 6.37497E-27
9.81815E-01 6.30675E-27
9.82963E-01 6.24090E-27
9.84074E-01 6.17746E-27
9.85148E-01 6.11634E-27
9.86185E-01 6.05755E-27
9.87185E-01 6.00113E-27
9.88148E-01 5.94697E-27
9.89074E-01 5.89513E-27
9.89962E-01 5.84555E-27
9.90814E-01 5.79816E-27
9.91627E-01 5.75302E-27
9.92404E-01 5.71005E-27
9.93143E-01 5.66929E-27
9.93844E-01 5.63074E-27
9.94508E-01 5.59433E-27
9.95134E-01 5.56012E-27
9.95722E-01 5.52799E-27
9.96273E-01 5.49798E-27
9.96786E-01 5.47009E-27
9.97261E-01 5.44427E-27
9.97698E-01 5.42062E-27
9.98097E-01 5.39904E-27
9.98459E-01 5.37954E-27
9.98782E-01 5.36215E-27
9.99067E-01 5.34673E-27
9.99315E-01 5.33340E-27
9.99524E-01 5.32212E-27
9.99695E-01 5.31287E-27
9.99829E-01 5.30580E-27
9.99924E-01 5.30071E-27
9.99981E-01 5.29771E-27
1.00000E+00 5.29717E-27
