 #
 # Subroutine ELSEPA. Elastic scattering of electrons and positrons
 #                    by neutral atoms and positive ions
 #
 # Projectile: electron
 # Kinetic energy = 4.00000E+07 eV = 1.46997E+06 a.u.
 #
 # WARNING: High-energy factorization with free-atom DF screening.
 #          Absorption, polarization and exchange corrections are
 #          switched off.
 #          Phase shifts are calculated for the bare nucleus.
 #          Scattering amplitudes are not evaluated.
 #
 # Element: Co,  Z =  27,  atomic weight = 5.89332E+01 g/mol
 #
 # Nuclear model: Fermi distribution
 #                Average radius = 4.16393E-13 cm
 #                Skin thickness = 5.46000E-14 cm
 #
 # Number of electrons = 27
 #
 # Total elastic cross section = 1.96557E-18 cm**2 = 7.01917E-02 a0**2
 # 1st transport cross section = 8.88848E-25 cm**2 = 3.17413E-08 a0**2
 # 2nd transport cross section = 2.58948E-24 cm**2 = 9.24721E-08 a0**2
 #
 #
 # Differential cross section:                       MU=(1-COS(THETA))/2
 #
 #  THETA        MU          DCS          DCS        Sherman      error
 #  (deg)                 (cm**2/sr)   (a0**2/sr)    function
 #----------------------------------------------------------------------
0.00000E+00 2.91895E-11
7.61557E-13 2.91761E-11
1.18994E-12 2.91685E-11
1.71346E-12 2.91594E-11
2.33225E-12 2.91485E-11
3.04617E-12 2.91360E-11
3.85530E-12 2.91219E-11
4.75964E-12 2.91061E-11
5.75917E-12 2.90886E-11
6.85391E-12 2.90695E-11
8.04379E-12 2.90488E-11
9.32893E-12 2.90265E-11
1.07092E-11 2.90025E-11
1.21847E-11 2.89769E-11
1.37554E-11 2.89497E-11
1.54213E-11 2.89209E-11
1.71823E-11 2.88905E-11
1.90386E-11 2.88585E-11
2.09900E-11 2.88250E-11
2.30367E-11 2.87898E-11
2.51785E-11 2.87532E-11
2.74156E-11 2.87149E-11
2.97478E-11 2.86751E-11
3.21752E-11 2.86339E-11
3.46979E-11 2.85910E-11
3.73157E-11 2.85467E-11
4.00286E-11 2.85009E-11
4.28368E-11 2.84536E-11
4.57402E-11 2.84049E-11
4.87388E-11 2.83547E-11
5.18325E-11 2.83030E-11
5.50215E-11 2.82499E-11
5.83057E-11 2.81954E-11
6.16850E-11 2.81395E-11
6.51595E-11 2.80823E-11
6.87293E-11 2.80236E-11
7.23943E-11 2.79636E-11
7.61544E-11 2.79023E-11
1.18991E-10 2.72187E-11
1.71347E-10 2.64175E-11
2.33223E-10 2.55231E-11
3.04617E-10 2.45517E-11
3.85531E-10 2.35202E-11
4.75965E-10 2.24524E-11
5.75917E-10 2.13665E-11
6.85389E-10 2.02737E-11
8.04380E-10 1.91882E-11
9.32891E-10 1.81258E-11
1.07092E-09 1.70955E-11
1.21847E-09 1.60991E-11
1.37554E-09 1.51456E-11
1.54213E-09 1.42402E-11
1.71823E-09 1.33847E-11
1.90386E-09 1.25751E-11
2.09900E-09 1.18158E-11
2.30367E-09 1.11061E-11
2.51785E-09 1.04437E-11
2.74156E-09 9.82382E-12
2.97478E-09 9.24758E-12
3.21752E-09 8.71228E-12
3.46978E-09 8.21457E-12
3.73156E-09 7.75084E-12
4.00286E-09 7.32044E-12
4.28368E-09 6.92086E-12
4.57402E-09 6.54883E-12
4.87388E-09 6.20203E-12
5.18326E-09 5.87950E-12
5.50215E-09 5.57928E-12
5.83057E-09 5.29853E-12
6.16850E-09 5.03609E-12
6.51596E-09 4.79106E-12
6.87293E-09 4.56204E-12
7.23942E-09 4.34660E-12
7.61544E-09 4.14451E-12
1.18991E-08 2.66553E-12
1.71347E-08 1.76541E-12
2.33223E-08 1.22761E-12
3.04617E-08 8.65608E-13
3.85531E-08 6.16139E-13
4.75965E-08 4.47702E-13
5.75917E-08 3.30756E-13
6.85389E-08 2.47224E-13
8.04380E-08 1.87611E-13
9.32891E-08 1.44756E-13
1.07092E-07 1.13380E-13
1.21847E-07 8.99904E-14
1.37554E-07 7.24115E-14
1.54213E-07 5.90121E-14
1.71823E-07 4.86514E-14
1.90386E-07 4.05189E-14
2.09900E-07 3.40700E-14
2.30367E-07 2.88965E-14
2.51785E-07 2.46999E-14
2.74156E-07 2.12507E-14
2.97478E-07 1.83989E-14
3.21752E-07 1.60213E-14
3.46978E-07 1.40215E-14
3.73156E-07 1.23221E-14
4.00286E-07 1.08753E-14
4.28368E-07 9.63650E-15
4.57402E-07 8.56779E-15
4.87388E-07 7.64110E-15
5.18325E-07 6.83622E-15
5.50215E-07 6.13408E-15
5.83057E-07 5.51748E-15
6.16850E-07 4.97492E-15
6.51596E-07 4.49676E-15
6.87293E-07 4.07395E-15
7.23942E-07 3.69797E-15
7.61543E-07 3.36365E-15
1.18991E-06 1.43818E-15
1.71347E-06 7.08403E-16
2.33223E-06 3.87837E-16
3.04617E-06 2.30004E-16
3.85531E-06 1.45079E-16
4.75964E-06 9.60656E-17
5.75916E-06 6.61482E-17
6.85388E-06 4.70359E-17
8.04378E-06 3.43575E-17
9.32888E-06 2.56757E-17
1.07092E-05 1.95697E-17
1.21846E-05 1.51741E-17
1.37553E-05 1.19449E-17
1.54212E-05 9.52979E-18
1.71822E-05 7.69456E-18
1.90385E-05 6.27961E-18
2.09899E-05 5.17582E-18
2.30365E-05 4.30384E-18
2.51783E-05 3.60761E-18
2.74153E-05 3.04634E-18
2.97475E-05 2.58992E-18
3.21749E-05 2.21578E-18
3.46974E-05 1.90679E-18
3.73152E-05 1.64983E-18
4.00281E-05 1.43474E-18
4.28362E-05 1.25358E-18
4.57395E-05 1.10011E-18
4.87380E-05 9.69403E-19
5.18317E-05 8.57521E-19
5.50205E-05 7.61306E-19
5.83045E-05 6.78206E-19
6.16838E-05 6.06139E-19
6.51582E-05 5.43398E-19
6.87277E-05 4.88573E-19
7.23925E-05 4.40494E-19
7.61524E-05 3.98192E-19
9.21439E-05 2.72244E-19
1.09658E-04 1.92383E-19
1.28695E-04 1.39783E-19
1.49255E-04 1.03993E-19
1.71338E-04 7.89651E-20
1.94942E-04 6.10354E-20
2.20070E-04 4.79201E-20
2.46720E-04 3.81478E-20
2.74892E-04 3.07454E-20
3.04586E-04 2.50559E-20
3.35803E-04 2.06243E-20
3.68542E-04 1.71314E-20
4.02802E-04 1.43481E-20
4.38585E-04 1.21082E-20
4.75889E-04 1.02892E-20
5.14715E-04 8.79966E-21
5.55063E-04 7.57041E-21
5.96931E-04 6.54870E-21
6.40321E-04 5.69386E-21
6.85233E-04 4.97421E-21
7.31665E-04 4.36487E-21
7.79618E-04 3.84615E-21
8.29092E-04 3.40234E-21
8.80086E-04 3.02081E-21
9.32601E-04 2.69136E-21
9.86636E-04 2.40568E-21
1.04219E-03 2.15697E-21
1.09927E-03 1.93962E-21
1.15786E-03 1.74902E-21
1.21797E-03 1.58129E-21
1.27961E-03 1.43323E-21
1.34276E-03 1.30212E-21
1.40743E-03 1.18569E-21
1.47362E-03 1.08201E-21
1.54133E-03 9.89430E-22
1.61056E-03 9.06563E-22
1.68131E-03 8.32205E-22
1.75357E-03 7.65329E-22
1.82735E-03 7.05050E-22
1.90265E-03 6.50600E-22
1.97947E-03 6.01315E-22
2.05780E-03 5.56618E-22
2.13765E-03 5.16004E-22
2.21902E-03 4.79035E-22
2.30190E-03 4.45324E-22
2.38630E-03 4.14533E-22
2.47222E-03 3.86361E-22
2.55965E-03 3.60548E-22
2.64859E-03 3.36858E-22
2.73905E-03 3.15086E-22
2.83103E-03 2.95049E-22
2.92452E-03 2.76581E-22
3.01952E-03 2.59540E-22
3.11604E-03 2.43793E-22
3.21407E-03 2.29225E-22
3.31362E-03 2.15731E-22
3.41468E-03 2.03217E-22
3.51725E-03 1.91600E-22
3.62133E-03 1.80802E-22
3.72692E-03 1.70756E-22
3.83403E-03 1.61400E-22
3.94265E-03 1.52677E-22
4.05278E-03 1.44536E-22
4.16442E-03 1.36932E-22
4.27757E-03 1.29822E-22
4.39223E-03 1.23169E-22
4.50840E-03 1.16938E-22
4.62608E-03 1.11096E-22
4.74527E-03 1.05615E-22
4.86597E-03 1.00469E-22
4.98817E-03 9.56331E-23
5.11188E-03 9.10852E-23
5.23711E-03 8.68050E-23
5.36383E-03 8.27737E-23
5.49207E-03 7.89742E-23
5.62181E-03 7.53907E-23
5.75306E-03 7.20085E-23
5.88581E-03 6.88141E-23
6.02007E-03 6.57953E-23
6.15583E-03 6.29405E-23
6.29310E-03 6.02392E-23
6.43187E-03 5.76815E-23
6.57214E-03 5.52583E-23
6.71392E-03 5.29613E-23
6.85720E-03 5.07826E-23
7.00198E-03 4.87150E-23
7.14827E-03 4.67518E-23
7.29605E-03 4.48866E-23
7.44534E-03 4.31137E-23
7.59612E-03 4.14276E-23
7.97965E-03 3.75597E-23
8.37255E-03 3.41336E-23
8.77480E-03 3.10898E-23
9.18641E-03 2.83784E-23
9.60736E-03 2.59565E-23
1.00376E-02 2.37879E-23
1.04773E-02 2.18413E-23
1.09262E-02 2.00900E-23
1.13844E-02 1.85109E-23
1.18520E-02 1.70841E-23
1.23288E-02 1.57922E-23
1.28150E-02 1.46202E-23
1.33104E-02 1.35550E-23
1.38150E-02 1.25851E-23
1.43290E-02 1.17005E-23
1.48521E-02 1.08922E-23
1.53845E-02 1.01525E-23
1.59262E-02 9.47452E-24
1.64770E-02 8.85219E-24
1.70371E-02 8.28010E-24
1.76063E-02 7.75345E-24
1.81848E-02 7.26797E-24
1.87724E-02 6.81987E-24
1.93692E-02 6.40573E-24
1.99751E-02 6.02251E-24
2.05901E-02 5.66747E-24
2.12143E-02 5.33817E-24
2.18476E-02 5.03240E-24
2.24900E-02 4.74816E-24
2.31415E-02 4.48366E-24
2.38021E-02 4.23727E-24
2.44717E-02 4.00754E-24
2.51504E-02 3.79311E-24
2.58382E-02 3.59279E-24
2.65349E-02 3.40547E-24
2.72407E-02 3.23016E-24
2.79555E-02 3.06594E-24
2.86793E-02 2.91198E-24
2.94120E-02 2.76752E-24
3.01537E-02 2.63187E-24
3.09043E-02 2.50439E-24
3.16639E-02 2.38449E-24
3.24324E-02 2.27164E-24
3.32098E-02 2.16535E-24
3.39961E-02 2.06517E-24
3.47912E-02 1.97068E-24
3.55952E-02 1.88149E-24
3.64081E-02 1.79726E-24
3.72297E-02 1.71766E-24
3.80602E-02 1.64238E-24
3.88995E-02 1.57115E-24
3.97476E-02 1.50371E-24
4.06044E-02 1.43982E-24
4.14700E-02 1.37925E-24
4.23443E-02 1.32181E-24
4.32273E-02 1.26730E-24
4.41190E-02 1.21555E-24
4.50194E-02 1.16638E-24
4.59284E-02 1.11965E-24
4.68461E-02 1.07521E-24
4.87074E-02 9.92680E-25
5.06030E-02 9.17834E-25
5.25328E-02 8.49829E-25
5.44967E-02 7.87929E-25
5.64946E-02 7.31490E-25
5.85262E-02 6.79945E-25
6.05914E-02 6.32796E-25
6.26901E-02 5.89602E-25
6.48222E-02 5.49972E-25
6.69873E-02 5.13561E-25
6.91854E-02 4.80061E-25
7.14163E-02 4.49198E-25
7.36799E-02 4.20729E-25
7.59760E-02 3.94436E-25
7.83043E-02 3.70122E-25
8.06647E-02 3.47612E-25
8.30571E-02 3.26750E-25
8.54812E-02 3.07393E-25
8.79369E-02 2.89415E-25
9.04240E-02 2.72699E-25
9.29422E-02 2.57141E-25
9.54915E-02 2.42648E-25
9.80716E-02 2.29133E-25
1.00682E-01 2.16520E-25
1.03323E-01 2.04737E-25
1.05995E-01 1.93721E-25
1.08696E-01 1.83413E-25
1.11427E-01 1.73759E-25
1.14188E-01 1.64712E-25
1.16978E-01 1.56225E-25
1.19797E-01 1.48259E-25
1.22645E-01 1.40777E-25
1.25522E-01 1.33743E-25
1.28428E-01 1.27126E-25
1.31361E-01 1.20898E-25
1.34323E-01 1.15032E-25
1.37313E-01 1.09502E-25
1.40330E-01 1.04287E-25
1.43375E-01 9.93661E-26
1.46447E-01 9.47190E-26
1.49545E-01 9.03284E-26
1.52671E-01 8.61777E-26
1.55823E-01 8.22517E-26
1.59001E-01 7.85361E-26
1.62205E-01 7.50178E-26
1.65435E-01 7.16846E-26
1.68690E-01 6.85252E-26
1.71970E-01 6.55290E-26
1.75276E-01 6.26861E-26
1.78606E-01 5.99876E-26
1.81961E-01 5.74248E-26
1.85340E-01 5.49899E-26
1.88743E-01 5.26753E-26
1.92169E-01 5.04743E-26
1.95619E-01 4.83804E-26
1.99092E-01 4.63874E-26
2.02589E-01 4.44899E-26
2.06107E-01 4.26824E-26
2.09649E-01 4.09600E-26
2.13212E-01 3.93182E-26
2.16797E-01 3.77525E-26
2.20404E-01 3.62588E-26
2.24032E-01 3.48334E-26
2.27680E-01 3.34726E-26
2.31350E-01 3.21731E-26
2.35040E-01 3.09316E-26
2.38751E-01 2.97453E-26
2.42481E-01 2.86112E-26
2.46231E-01 2.75267E-26
2.50000E-01 2.64893E-26
2.53788E-01 2.54967E-26
2.57595E-01 2.45467E-26
2.61421E-01 2.36371E-26
2.65264E-01 2.27659E-26
2.69126E-01 2.19314E-26
2.73005E-01 2.11318E-26
2.76901E-01 2.03653E-26
2.80814E-01 1.96304E-26
2.84744E-01 1.89256E-26
2.88691E-01 1.82496E-26
2.92653E-01 1.76009E-26
2.96632E-01 1.69783E-26
3.00625E-01 1.63806E-26
3.04634E-01 1.58066E-26
3.08658E-01 1.52554E-26
3.12697E-01 1.47258E-26
3.16749E-01 1.42169E-26
3.20816E-01 1.37279E-26
3.24896E-01 1.32577E-26
3.28990E-01 1.28056E-26
3.33097E-01 1.23707E-26
3.37216E-01 1.19524E-26
3.41348E-01 1.15500E-26
3.45492E-01 1.11626E-26
3.49647E-01 1.07898E-26
3.53814E-01 1.04309E-26
3.57992E-01 1.00853E-26
3.62181E-01 9.75237E-27
3.66381E-01 9.43169E-27
3.70590E-01 9.12272E-27
3.74810E-01 8.82498E-27
3.79039E-01 8.53801E-27
3.83277E-01 8.26136E-27
3.87524E-01 7.99462E-27
3.91780E-01 7.73739E-27
3.96044E-01 7.48930E-27
4.00316E-01 7.24996E-27
4.04596E-01 7.01905E-27
4.08882E-01 6.79622E-27
4.13176E-01 6.58117E-27
4.17476E-01 6.37357E-27
4.21783E-01 6.17315E-27
4.26095E-01 5.97963E-27
4.30413E-01 5.79275E-27
4.34737E-01 5.61224E-27
4.39065E-01 5.43787E-27
4.43398E-01 5.26940E-27
4.47736E-01 5.10661E-27
4.52077E-01 4.94928E-27
4.56422E-01 4.79722E-27
4.60770E-01 4.65023E-27
4.65122E-01 4.50812E-27
4.69476E-01 4.37070E-27
4.73832E-01 4.23781E-27
4.78190E-01 4.10929E-27
4.82550E-01 3.98496E-27
4.86912E-01 3.86469E-27
4.91274E-01 3.74832E-27
4.95637E-01 3.63572E-27
5.00000E-01 3.52674E-27
5.04363E-01 3.42126E-27
5.08726E-01 3.31917E-27
5.13088E-01 3.22032E-27
5.17450E-01 3.12462E-27
5.21810E-01 3.03195E-27
5.26168E-01 2.94221E-27
5.30524E-01 2.85529E-27
5.34878E-01 2.77110E-27
5.39230E-01 2.68955E-27
5.43578E-01 2.61053E-27
5.47923E-01 2.53397E-27
5.52264E-01 2.45978E-27
5.56602E-01 2.38789E-27
5.60935E-01 2.31820E-27
5.65263E-01 2.25066E-27
5.69587E-01 2.18518E-27
5.73905E-01 2.12170E-27
5.78217E-01 2.06016E-27
5.82524E-01 2.00047E-27
5.86824E-01 1.94260E-27
5.91118E-01 1.88647E-27
5.95404E-01 1.83203E-27
5.99684E-01 1.77922E-27
6.03956E-01 1.72800E-27
6.08220E-01 1.67830E-27
6.12476E-01 1.63008E-27
6.16723E-01 1.58329E-27
6.20961E-01 1.53788E-27
6.25190E-01 1.49382E-27
6.29410E-01 1.45105E-27
6.33619E-01 1.40954E-27
6.37819E-01 1.36925E-27
6.42008E-01 1.33013E-27
6.46186E-01 1.29216E-27
6.50353E-01 1.25529E-27
6.54508E-01 1.21949E-27
6.58652E-01 1.18472E-27
6.62784E-01 1.15096E-27
6.66903E-01 1.11817E-27
6.71010E-01 1.08633E-27
6.75104E-01 1.05539E-27
6.79184E-01 1.02535E-27
6.83251E-01 9.96158E-28
6.87303E-01 9.67801E-28
6.91342E-01 9.40250E-28
6.95366E-01 9.13481E-28
6.99375E-01 8.87469E-28
7.03368E-01 8.62193E-28
7.07347E-01 8.37629E-28
7.11309E-01 8.13757E-28
7.15256E-01 7.90555E-28
7.19186E-01 7.68004E-28
7.23099E-01 7.46083E-28
7.26995E-01 7.24774E-28
7.30874E-01 7.04060E-28
7.34736E-01 6.83921E-28
7.38579E-01 6.64342E-28
7.42405E-01 6.45306E-28
7.46212E-01 6.26796E-28
7.50000E-01 6.08798E-28
7.53769E-01 5.91296E-28
7.57519E-01 5.74276E-28
7.61249E-01 5.57724E-28
7.64960E-01 5.41626E-28
7.68650E-01 5.25969E-28
7.72320E-01 5.10741E-28
7.75968E-01 4.95928E-28
7.79596E-01 4.81520E-28
7.83203E-01 4.67504E-28
7.86788E-01 4.53869E-28
7.90351E-01 4.40605E-28
7.93893E-01 4.27701E-28
7.97411E-01 4.15146E-28
8.00908E-01 4.02931E-28
8.04381E-01 3.91046E-28
8.07831E-01 3.79482E-28
8.11257E-01 3.68230E-28
8.14660E-01 3.57281E-28
8.18039E-01 3.46627E-28
8.21394E-01 3.36259E-28
8.24724E-01 3.26170E-28
8.28030E-01 3.16351E-28
8.31310E-01 3.06796E-28
8.34565E-01 2.97497E-28
8.37795E-01 2.88447E-28
8.40999E-01 2.79639E-28
8.44177E-01 2.71066E-28
8.47329E-01 2.62723E-28
8.50455E-01 2.54602E-28
8.53553E-01 2.46699E-28
8.56625E-01 2.39006E-28
8.59670E-01 2.31519E-28
8.62687E-01 2.24231E-28
8.65677E-01 2.17138E-28
8.68639E-01 2.10234E-28
8.71572E-01 2.03515E-28
8.74478E-01 1.96974E-28
8.77355E-01 1.90609E-28
8.80203E-01 1.84413E-28
8.83022E-01 1.78383E-28
8.85812E-01 1.72513E-28
8.88573E-01 1.66801E-28
8.91304E-01 1.61242E-28
8.94005E-01 1.55832E-28
8.96677E-01 1.50566E-28
8.99318E-01 1.45442E-28
9.01928E-01 1.40456E-28
9.04508E-01 1.35604E-28
9.07058E-01 1.30882E-28
9.09576E-01 1.26288E-28
9.12063E-01 1.21819E-28
9.14519E-01 1.17470E-28
9.16943E-01 1.13240E-28
9.19335E-01 1.09125E-28
9.21696E-01 1.05122E-28
9.24024E-01 1.01229E-28
9.26320E-01 9.74421E-29
9.28584E-01 9.37599E-29
9.30815E-01 9.01795E-29
9.33013E-01 8.66983E-29
9.35178E-01 8.33142E-29
9.37310E-01 8.00246E-29
9.39409E-01 7.68274E-29
9.41474E-01 7.37205E-29
9.43505E-01 7.07016E-29
9.45503E-01 6.77689E-29
9.47467E-01 6.49202E-29
9.49397E-01 6.21538E-29
9.51293E-01 5.94676E-29
9.53154E-01 5.68601E-29
9.54981E-01 5.43293E-29
9.56773E-01 5.18736E-29
9.58530E-01 4.94914E-29
9.60252E-01 4.71811E-29
9.61940E-01 4.49411E-29
9.63592E-01 4.27701E-29
9.65209E-01 4.06664E-29
9.66790E-01 3.86289E-29
9.68336E-01 3.66560E-29
9.69846E-01 3.47465E-29
9.71321E-01 3.28993E-29
9.72759E-01 3.11129E-29
9.74162E-01 2.93864E-29
9.75528E-01 2.77185E-29
9.76858E-01 2.61081E-29
9.78152E-01 2.45543E-29
9.79410E-01 2.30560E-29
9.80631E-01 2.16122E-29
9.81815E-01 2.02221E-29
9.82963E-01 1.88846E-29
9.84074E-01 1.75989E-29
9.85148E-01 1.63643E-29
9.86185E-01 1.51798E-29
9.87185E-01 1.40448E-29
9.88148E-01 1.29585E-29
9.89074E-01 1.19202E-29
9.89962E-01 1.09293E-29
9.90814E-01 9.98505E-30
9.91627E-01 9.08690E-30
9.92404E-01 8.23428E-30
9.93143E-01 7.42663E-30
9.93844E-01 6.66344E-30
9.94508E-01 5.94423E-30
9.95134E-01 5.26853E-30
9.95722E-01 4.63591E-30
9.96273E-01 4.04597E-30
9.96786E-01 3.49832E-30
9.97261E-01 2.99263E-30
9.97698E-01 2.52858E-30
9.98097E-01 2.10585E-30
9.98459E-01 1.72419E-30
9.98782E-01 1.38336E-30
9.99067E-01 1.08313E-30
9.99315E-01 8.23312E-31
9.99524E-01 6.03746E-31
9.99695E-01 4.24293E-31
9.99829E-01 2.84835E-31
9.99924E-01 1.85287E-31
9.99981E-01 1.25583E-31
1.00000E+00 1.05686E-31
