 #
 # Subroutine ELSEPA. Elastic scattering of electrons and positrons
 #                    by neutral atoms and positive ions
 #
 # Projectile: electron
 # Kinetic energy = 1.50000E+06 eV = 5.51240E+04 a.u.
 #
 # WARNING: High-energy factorization with free-atom DF screening.
 #          Absorption, polarization and exchange corrections are
 #          switched off.
 #          Phase shifts are calculated for the bare nucleus.
 #          Scattering amplitudes are not evaluated.
 #
 # Element: Co,  Z =  27,  atomic weight = 5.89332E+01 g/mol
 #
 # Nuclear model: Fermi distribution
 #                Average radius = 4.16393E-13 cm
 #                Skin thickness = 5.46000E-14 cm
 #
 # Number of electrons = 27
 #
 # Total elastic cross section = 2.10514E-18 cm**2 = 7.51761E-02 a0**2
 # 1st transport cross section = 2.66596E-22 cm**2 = 9.52033E-06 a0**2
 # 2nd transport cross section = 7.45404E-22 cm**2 = 2.66188E-05 a0**2
 #
 #
 # Differential cross section:                       MU=(1-COS(THETA))/2
 #
 #  THETA        MU          DCS          DCS        Sherman      error
 #  (deg)                 (cm**2/sr)   (a0**2/sr)    function
 #----------------------------------------------------------------------
0.00000E+00 7.19290E-14
7.61557E-13 7.19290E-14
1.18994E-12 7.19290E-14
1.71346E-12 7.19289E-14
2.33225E-12 7.19289E-14
3.04617E-12 7.19288E-14
3.85530E-12 7.19287E-14
4.75964E-12 7.19286E-14
5.75917E-12 7.19285E-14
6.85391E-12 7.19284E-14
8.04379E-12 7.19283E-14
9.32893E-12 7.19282E-14
1.07092E-11 7.19281E-14
1.21847E-11 7.19279E-14
1.37554E-11 7.19278E-14
1.54213E-11 7.19276E-14
1.71823E-11 7.19274E-14
1.90386E-11 7.19273E-14
2.09900E-11 7.19271E-14
2.30367E-11 7.19269E-14
2.51785E-11 7.19267E-14
2.74156E-11 7.19264E-14
2.97478E-11 7.19262E-14
3.21752E-11 7.19260E-14
3.46979E-11 7.19257E-14
3.73157E-11 7.19255E-14
4.00286E-11 7.19252E-14
4.28368E-11 7.19249E-14
4.57402E-11 7.19247E-14
4.87388E-11 7.19244E-14
5.18325E-11 7.19241E-14
5.50215E-11 7.19237E-14
5.83057E-11 7.19234E-14
6.16850E-11 7.19231E-14
6.51595E-11 7.19227E-14
6.87293E-11 7.19224E-14
7.23943E-11 7.19220E-14
7.61544E-11 7.19217E-14
1.18991E-10 7.19175E-14
1.71347E-10 7.19123E-14
2.33223E-10 7.19062E-14
3.04617E-10 7.18991E-14
3.85531E-10 7.18911E-14
4.75965E-10 7.18822E-14
5.75917E-10 7.18723E-14
6.85389E-10 7.18615E-14
8.04380E-10 7.18497E-14
9.32891E-10 7.18370E-14
1.07092E-09 7.18233E-14
1.21847E-09 7.18087E-14
1.37554E-09 7.17932E-14
1.54213E-09 7.17767E-14
1.71823E-09 7.17593E-14
1.90386E-09 7.17409E-14
2.09900E-09 7.17216E-14
2.30367E-09 7.17014E-14
2.51785E-09 7.16803E-14
2.74156E-09 7.16582E-14
2.97478E-09 7.16352E-14
3.21752E-09 7.16112E-14
3.46978E-09 7.15863E-14
3.73156E-09 7.15605E-14
4.00286E-09 7.15338E-14
4.28368E-09 7.15062E-14
4.57402E-09 7.14776E-14
4.87388E-09 7.14481E-14
5.18326E-09 7.14177E-14
5.50215E-09 7.13864E-14
5.83057E-09 7.13542E-14
6.16850E-09 7.13210E-14
6.51596E-09 7.12870E-14
6.87293E-09 7.12520E-14
7.23942E-09 7.12161E-14
7.61544E-09 7.11794E-14
1.18991E-08 7.07627E-14
1.71347E-08 7.02586E-14
2.33223E-08 6.96703E-14
3.04617E-08 6.90014E-14
3.85531E-08 6.82560E-14
4.75965E-08 6.74382E-14
5.75917E-08 6.65529E-14
6.85389E-08 6.56004E-14
8.04380E-08 6.45936E-14
9.32891E-08 6.35411E-14
1.07092E-07 6.24309E-14
1.21847E-07 6.12848E-14
1.37554E-07 6.01093E-14
1.54213E-07 5.88890E-14
1.71823E-07 5.76525E-14
1.90386E-07 5.63983E-14
2.09900E-07 5.51178E-14
2.30367E-07 5.38365E-14
2.51785E-07 5.25465E-14
2.74156E-07 5.12482E-14
2.97478E-07 4.99618E-14
3.21752E-07 4.86732E-14
3.46978E-07 4.73924E-14
3.73156E-07 4.61330E-14
4.00286E-07 4.48761E-14
4.28368E-07 4.36400E-14
4.57402E-07 4.24319E-14
4.87388E-07 4.12293E-14
5.18325E-07 4.00572E-14
5.50215E-07 3.89139E-14
5.83057E-07 3.77843E-14
6.16850E-07 3.66887E-14
6.51596E-07 3.56205E-14
6.87293E-07 3.45732E-14
7.23942E-07 3.35605E-14
7.61543E-07 3.25732E-14
1.18991E-06 2.42097E-14
1.71347E-06 1.82477E-14
2.33223E-06 1.40409E-14
3.04617E-06 1.10274E-14
3.85531E-06 8.81589E-15
4.75964E-06 7.14668E-15
5.75916E-06 5.85893E-15
6.85388E-06 4.78987E-15
8.04378E-06 3.97654E-15
9.32888E-06 3.36664E-15
1.07092E-05 2.80809E-15
1.21846E-05 2.37086E-15
1.37553E-05 2.02681E-15
1.54212E-05 1.71179E-15
1.71822E-05 1.46297E-15
1.90385E-05 1.25789E-15
2.09899E-05 1.07712E-15
2.30365E-05 9.30612E-16
2.51783E-05 8.06388E-16
2.74153E-05 6.99068E-16
2.97475E-05 6.10248E-16
3.21749E-05 5.33682E-16
3.46974E-05 4.68108E-16
3.73152E-05 4.12884E-16
4.00281E-05 3.64772E-16
4.28362E-05 3.23509E-16
4.57395E-05 2.88211E-16
4.87380E-05 2.57207E-16
5.18317E-05 2.30427E-16
5.50205E-05 2.07165E-16
5.83045E-05 1.86675E-16
6.16838E-05 1.68777E-16
6.51582E-05 1.53037E-16
6.87277E-05 1.39099E-16
7.23925E-05 1.26795E-16
7.61524E-05 1.15856E-16
9.21439E-05 8.25842E-17
1.09658E-04 6.07462E-17
1.28695E-04 4.58075E-17
1.49255E-04 3.52763E-17
1.71338E-04 2.76217E-17
1.94942E-04 2.19397E-17
2.20070E-04 1.76440E-17
2.46720E-04 1.43367E-17
2.74892E-04 1.17626E-17
3.04586E-04 9.72948E-18
3.35803E-04 8.11120E-18
3.68542E-04 6.81048E-18
4.02802E-04 5.75633E-18
4.38585E-04 4.89638E-18
4.75889E-04 4.18874E-18
5.14715E-04 3.60343E-18
5.55063E-04 3.11580E-18
5.96931E-04 2.70738E-18
6.40321E-04 2.36266E-18
6.85233E-04 2.07148E-18
7.31665E-04 1.82444E-18
7.79618E-04 1.61226E-18
8.29092E-04 1.43038E-18
8.80086E-04 1.27367E-18
9.32601E-04 1.13757E-18
9.86636E-04 1.01939E-18
1.04219E-03 9.16253E-19
1.09927E-03 8.25799E-19
1.15786E-03 7.46377E-19
1.21797E-03 6.76302E-19
1.27961E-03 6.14275E-19
1.34276E-03 5.59291E-19
1.40743E-03 5.10324E-19
1.47362E-03 4.66634E-19
1.54133E-03 4.27583E-19
1.61056E-03 3.92516E-19
1.68131E-03 3.61007E-19
1.75357E-03 3.32639E-19
1.82735E-03 3.06980E-19
1.90265E-03 2.83781E-19
1.97947E-03 2.62754E-19
2.05780E-03 2.43628E-19
2.13765E-03 2.26235E-19
2.21902E-03 2.10373E-19
2.30190E-03 1.95874E-19
2.38630E-03 1.82620E-19
2.47222E-03 1.70468E-19
2.55965E-03 1.59312E-19
2.64859E-03 1.49066E-19
2.73905E-03 1.39625E-19
2.83103E-03 1.30924E-19
2.92452E-03 1.22900E-19
3.01952E-03 1.15473E-19
3.11604E-03 1.08606E-19
3.21407E-03 1.02246E-19
3.31362E-03 9.63398E-20
3.41468E-03 9.08591E-20
3.51725E-03 8.57649E-20
3.62133E-03 8.10195E-20
3.72692E-03 7.66020E-20
3.83403E-03 7.24818E-20
3.94265E-03 6.86337E-20
4.05278E-03 6.50409E-20
4.16442E-03 6.16789E-20
4.27757E-03 5.85315E-20
4.39223E-03 5.55848E-20
4.50840E-03 5.28195E-20
4.62608E-03 5.02249E-20
4.74527E-03 4.77896E-20
4.86597E-03 4.54980E-20
4.98817E-03 4.33435E-20
5.11188E-03 4.13161E-20
5.23711E-03 3.94043E-20
5.36383E-03 3.76032E-20
5.49207E-03 3.59041E-20
5.62181E-03 3.42993E-20
5.75306E-03 3.27841E-20
5.88581E-03 3.13516E-20
6.02007E-03 2.99962E-20
6.15583E-03 2.87141E-20
6.29310E-03 2.74994E-20
6.43187E-03 2.63484E-20
6.57214E-03 2.52576E-20
6.71392E-03 2.42222E-20
6.85720E-03 2.32396E-20
7.00198E-03 2.23068E-20
7.14827E-03 2.14198E-20
7.29605E-03 2.05768E-20
7.44534E-03 1.97752E-20
7.59612E-03 1.90120E-20
7.97965E-03 1.72597E-20
8.37255E-03 1.57052E-20
8.77480E-03 1.43222E-20
9.18641E-03 1.30884E-20
9.60736E-03 1.19849E-20
1.00376E-02 1.09957E-20
1.04773E-02 1.01067E-20
1.09262E-02 9.30596E-21
1.13844E-02 8.58323E-21
1.18520E-02 7.92953E-21
1.23288E-02 7.33708E-21
1.28150E-02 6.79912E-21
1.33104E-02 6.30970E-21
1.38150E-02 5.86368E-21
1.43290E-02 5.45652E-21
1.48521E-02 5.08422E-21
1.53845E-02 4.74326E-21
1.59262E-02 4.43051E-21
1.64770E-02 4.14321E-21
1.70371E-02 3.87892E-21
1.76063E-02 3.63544E-21
1.81848E-02 3.41085E-21
1.87724E-02 3.20341E-21
1.93692E-02 3.01156E-21
1.99751E-02 2.83393E-21
2.05901E-02 2.66925E-21
2.12143E-02 2.51642E-21
2.18476E-02 2.37442E-21
2.24900E-02 2.24234E-21
2.31415E-02 2.11935E-21
2.38021E-02 2.00472E-21
2.44717E-02 1.89777E-21
2.51504E-02 1.79790E-21
2.58382E-02 1.70453E-21
2.65349E-02 1.61718E-21
2.72407E-02 1.53538E-21
2.79555E-02 1.45871E-21
2.86793E-02 1.38679E-21
2.94120E-02 1.31927E-21
3.01537E-02 1.25583E-21
3.09043E-02 1.19617E-21
3.16639E-02 1.14004E-21
3.24324E-02 1.08717E-21
3.32098E-02 1.03735E-21
3.39961E-02 9.90359E-22
3.47912E-02 9.46015E-22
3.55952E-02 9.04137E-22
3.64081E-02 8.64563E-22
3.72297E-02 8.27140E-22
3.80602E-02 7.91731E-22
3.88995E-02 7.58205E-22
3.97476E-02 7.26444E-22
4.06044E-02 6.96337E-22
4.14700E-02 6.67780E-22
4.23443E-02 6.40680E-22
4.32273E-02 6.14947E-22
4.41190E-02 5.90499E-22
4.50194E-02 5.67260E-22
4.59284E-02 5.45158E-22
4.68461E-02 5.24127E-22
4.87074E-02 4.85035E-22
5.06030E-02 4.49536E-22
5.25328E-02 4.17240E-22
5.44967E-02 3.87804E-22
5.64946E-02 3.60930E-22
5.85262E-02 3.36352E-22
6.05914E-02 3.13840E-22
6.26901E-02 2.93186E-22
6.48222E-02 2.74211E-22
6.69873E-02 2.56751E-22
6.91854E-02 2.40663E-22
7.14163E-02 2.25820E-22
7.36799E-02 2.12107E-22
7.59760E-02 1.99422E-22
7.83043E-02 1.87674E-22
8.06647E-02 1.76781E-22
8.30571E-02 1.66668E-22
8.54812E-02 1.57270E-22
8.79369E-02 1.48526E-22
9.04240E-02 1.40382E-22
9.29422E-02 1.32790E-22
9.54915E-02 1.25704E-22
9.80716E-02 1.19085E-22
1.00682E-01 1.12897E-22
1.03323E-01 1.07105E-22
1.05995E-01 1.01680E-22
1.08696E-01 9.65945E-23
1.11427E-01 9.18225E-23
1.14188E-01 8.73413E-23
1.16978E-01 8.31299E-23
1.19797E-01 7.91689E-23
1.22645E-01 7.54406E-23
1.25522E-01 7.19287E-23
1.28428E-01 6.86183E-23
1.31361E-01 6.54956E-23
1.34323E-01 6.25479E-23
1.37313E-01 5.97637E-23
1.40330E-01 5.71320E-23
1.43375E-01 5.46430E-23
1.46447E-01 5.22874E-23
1.49545E-01 5.00567E-23
1.52671E-01 4.79430E-23
1.55823E-01 4.59391E-23
1.59001E-01 4.40381E-23
1.62205E-01 4.22337E-23
1.65435E-01 4.05201E-23
1.68690E-01 3.88919E-23
1.71970E-01 3.73440E-23
1.75276E-01 3.58716E-23
1.78606E-01 3.44704E-23
1.81961E-01 3.31363E-23
1.85340E-01 3.18654E-23
1.88743E-01 3.06542E-23
1.92169E-01 2.94994E-23
1.95619E-01 2.83978E-23
1.99092E-01 2.73464E-23
2.02589E-01 2.63427E-23
2.06107E-01 2.53840E-23
2.09649E-01 2.44678E-23
2.13212E-01 2.35920E-23
2.16797E-01 2.27545E-23
2.20404E-01 2.19532E-23
2.24032E-01 2.11862E-23
2.27680E-01 2.04519E-23
2.31350E-01 1.97486E-23
2.35040E-01 1.90746E-23
2.38751E-01 1.84286E-23
2.42481E-01 1.78092E-23
2.46231E-01 1.72151E-23
2.50000E-01 1.66450E-23
2.53788E-01 1.60978E-23
2.57595E-01 1.55723E-23
2.61421E-01 1.50677E-23
2.65264E-01 1.45828E-23
2.69126E-01 1.41168E-23
2.73005E-01 1.36688E-23
2.76901E-01 1.32379E-23
2.80814E-01 1.28234E-23
2.84744E-01 1.24245E-23
2.88691E-01 1.20406E-23
2.92653E-01 1.16710E-23
2.96632E-01 1.13150E-23
3.00625E-01 1.09721E-23
3.04634E-01 1.06416E-23
3.08658E-01 1.03230E-23
3.12697E-01 1.00159E-23
3.16749E-01 9.71976E-24
3.20816E-01 9.43406E-24
3.24896E-01 9.15839E-24
3.28990E-01 8.89234E-24
3.33097E-01 8.63551E-24
3.37216E-01 8.38752E-24
3.41348E-01 8.14800E-24
3.45492E-01 7.91662E-24
3.49647E-01 7.69305E-24
3.53814E-01 7.47697E-24
3.57992E-01 7.26808E-24
3.62181E-01 7.06611E-24
3.66381E-01 6.87078E-24
3.70590E-01 6.68183E-24
3.74810E-01 6.49901E-24
3.79039E-01 6.32209E-24
3.83277E-01 6.15085E-24
3.87524E-01 5.98506E-24
3.91780E-01 5.82452E-24
3.96044E-01 5.66904E-24
4.00316E-01 5.51843E-24
4.04596E-01 5.37250E-24
4.08882E-01 5.23108E-24
4.13176E-01 5.09402E-24
4.17476E-01 4.96114E-24
4.21783E-01 4.83230E-24
4.26095E-01 4.70736E-24
4.30413E-01 4.58617E-24
4.34737E-01 4.46860E-24
4.39065E-01 4.35453E-24
4.43398E-01 4.24382E-24
4.47736E-01 4.13637E-24
4.52077E-01 4.03206E-24
4.56422E-01 3.93079E-24
4.60770E-01 3.83244E-24
4.65122E-01 3.73692E-24
4.69476E-01 3.64413E-24
4.73832E-01 3.55398E-24
4.78190E-01 3.46639E-24
4.82550E-01 3.38126E-24
4.86912E-01 3.29851E-24
4.91274E-01 3.21808E-24
4.95637E-01 3.13987E-24
5.00000E-01 3.06383E-24
5.04363E-01 2.98987E-24
5.08726E-01 2.91793E-24
5.13088E-01 2.84795E-24
5.17450E-01 2.77986E-24
5.21810E-01 2.71360E-24
5.26168E-01 2.64912E-24
5.30524E-01 2.58636E-24
5.34878E-01 2.52527E-24
5.39230E-01 2.46579E-24
5.43578E-01 2.40788E-24
5.47923E-01 2.35148E-24
5.52264E-01 2.29655E-24
5.56602E-01 2.24304E-24
5.60935E-01 2.19092E-24
5.65263E-01 2.14014E-24
5.69587E-01 2.09066E-24
5.73905E-01 2.04244E-24
5.78217E-01 1.99544E-24
5.82524E-01 1.94963E-24
5.86824E-01 1.90498E-24
5.91118E-01 1.86144E-24
5.95404E-01 1.81899E-24
5.99684E-01 1.77759E-24
6.03956E-01 1.73722E-24
6.08220E-01 1.69784E-24
6.12476E-01 1.65943E-24
6.16723E-01 1.62196E-24
6.20961E-01 1.58540E-24
6.25190E-01 1.54973E-24
6.29410E-01 1.51492E-24
6.33619E-01 1.48095E-24
6.37819E-01 1.44779E-24
6.42008E-01 1.41542E-24
6.46186E-01 1.38383E-24
6.50353E-01 1.35298E-24
6.54508E-01 1.32287E-24
6.58652E-01 1.29346E-24
6.62784E-01 1.26474E-24
6.66903E-01 1.23670E-24
6.71010E-01 1.20931E-24
6.75104E-01 1.18255E-24
6.79184E-01 1.15641E-24
6.83251E-01 1.13088E-24
6.87303E-01 1.10593E-24
6.91342E-01 1.08156E-24
6.95366E-01 1.05774E-24
6.99375E-01 1.03446E-24
7.03368E-01 1.01172E-24
7.07347E-01 9.89485E-25
7.11309E-01 9.67755E-25
7.15256E-01 9.46513E-25
7.19186E-01 9.25749E-25
7.23099E-01 9.05449E-25
7.26995E-01 8.85602E-25
7.30874E-01 8.66197E-25
7.34736E-01 8.47222E-25
7.38579E-01 8.28668E-25
7.42405E-01 8.10523E-25
7.46212E-01 7.92778E-25
7.50000E-01 7.75423E-25
7.53769E-01 7.58448E-25
7.57519E-01 7.41845E-25
7.61249E-01 7.25604E-25
7.64960E-01 7.09716E-25
7.68650E-01 6.94174E-25
7.72320E-01 6.78969E-25
7.75968E-01 6.64094E-25
7.79596E-01 6.49539E-25
7.83203E-01 6.35298E-25
7.86788E-01 6.21364E-25
7.90351E-01 6.07729E-25
7.93893E-01 5.94387E-25
7.97411E-01 5.81330E-25
8.00908E-01 5.68553E-25
8.04381E-01 5.56049E-25
8.07831E-01 5.43811E-25
8.11257E-01 5.31835E-25
8.14660E-01 5.20113E-25
8.18039E-01 5.08641E-25
8.21394E-01 4.97412E-25
8.24724E-01 4.86422E-25
8.28030E-01 4.75665E-25
8.31310E-01 4.65136E-25
8.34565E-01 4.54830E-25
8.37795E-01 4.44742E-25
8.40999E-01 4.34868E-25
8.44177E-01 4.25203E-25
8.47329E-01 4.15743E-25
8.50455E-01 4.06483E-25
8.53553E-01 3.97420E-25
8.56625E-01 3.88548E-25
8.59670E-01 3.79864E-25
8.62687E-01 3.71365E-25
8.65677E-01 3.63046E-25
8.68639E-01 3.54903E-25
8.71572E-01 3.46934E-25
8.74478E-01 3.39134E-25
8.77355E-01 3.31501E-25
8.80203E-01 3.24031E-25
8.83022E-01 3.16720E-25
8.85812E-01 3.09566E-25
8.88573E-01 3.02566E-25
8.91304E-01 2.95716E-25
8.94005E-01 2.89014E-25
8.96677E-01 2.82457E-25
8.99318E-01 2.76043E-25
9.01928E-01 2.69767E-25
9.04508E-01 2.63629E-25
9.07058E-01 2.57625E-25
9.09576E-01 2.51753E-25
9.12063E-01 2.46010E-25
9.14519E-01 2.40395E-25
9.16943E-01 2.34904E-25
9.19335E-01 2.29537E-25
9.21696E-01 2.24290E-25
9.24024E-01 2.19161E-25
9.26320E-01 2.14149E-25
9.28584E-01 2.09251E-25
9.30815E-01 2.04466E-25
9.33013E-01 1.99791E-25
9.35178E-01 1.95225E-25
9.37310E-01 1.90766E-25
9.39409E-01 1.86413E-25
9.41474E-01 1.82163E-25
9.43505E-01 1.78015E-25
9.45503E-01 1.73967E-25
9.47467E-01 1.70018E-25
9.49397E-01 1.66167E-25
9.51293E-01 1.62411E-25
9.53154E-01 1.58750E-25
9.54981E-01 1.55182E-25
9.56773E-01 1.51706E-25
9.58530E-01 1.48320E-25
9.60252E-01 1.45023E-25
9.61940E-01 1.41814E-25
9.63592E-01 1.38692E-25
9.65209E-01 1.35655E-25
9.66790E-01 1.32703E-25
9.68336E-01 1.29834E-25
9.69846E-01 1.27048E-25
9.71321E-01 1.24342E-25
9.72759E-01 1.21717E-25
9.74162E-01 1.19172E-25
9.75528E-01 1.16705E-25
9.76858E-01 1.14315E-25
9.78152E-01 1.12002E-25
9.79410E-01 1.09765E-25
9.80631E-01 1.07603E-25
9.81815E-01 1.05515E-25
9.82963E-01 1.03500E-25
9.84074E-01 1.01559E-25
9.85148E-01 9.96889E-26
9.86185E-01 9.78908E-26
9.87185E-01 9.61633E-26
9.88148E-01 9.45061E-26
9.89074E-01 9.29184E-26
9.89962E-01 9.13997E-26
9.90814E-01 8.99496E-26
9.91627E-01 8.85673E-26
9.92404E-01 8.72526E-26
9.93143E-01 8.60049E-26
9.93844E-01 8.48237E-26
9.94508E-01 8.37087E-26
9.95134E-01 8.26595E-26
9.95722E-01 8.16757E-26
9.96273E-01 8.07569E-26
9.96786E-01 7.99029E-26
9.97261E-01 7.91134E-26
9.97698E-01 7.83880E-26
9.98097E-01 7.77265E-26
9.98459E-01 7.71287E-26
9.98782E-01 7.65944E-26
9.99067E-01 7.61234E-26
9.99315E-01 7.57156E-26
9.99524E-01 7.53707E-26
9.99695E-01 7.50887E-26
9.99829E-01 7.48694E-26
9.99924E-01 7.47129E-26
9.99981E-01 7.46190E-26
1.00000E+00 7.45877E-26
