 #
 # Subroutine ELSEPA. Elastic scattering of electrons and positrons
 #                    by neutral atoms and positive ions
 #
 # Projectile: electron
 # Kinetic energy = 1.50000E+08 eV = 5.51240E+06 a.u.
 #
 # WARNING: High-energy factorization with free-atom DF screening.
 #          Absorption, polarization and exchange corrections are
 #          switched off.
 #          Phase shifts are calculated for the bare nucleus.
 #          Scattering amplitudes are not evaluated.
 #
 # Element: Co,  Z =  27,  atomic weight = 5.89332E+01 g/mol
 #
 # Nuclear model: Fermi distribution
 #                Average radius = 4.16393E-13 cm
 #                Skin thickness = 5.46000E-14 cm
 #
 # Number of electrons = 27
 #
 # Total elastic cross section = 1.96589E-18 cm**2 = 7.02031E-02 a0**2
 # 1st transport cross section = 6.66385E-26 cm**2 = 2.37971E-09 a0**2
 # 2nd transport cross section = 1.98958E-25 cm**2 = 7.10491E-09 a0**2
 #
 #
 # Differential cross section:                       MU=(1-COS(THETA))/2
 #
 #  THETA        MU          DCS          DCS        Sherman      error
 #  (deg)                 (cm**2/sr)   (a0**2/sr)    function
 #----------------------------------------------------------------------
0.00000E+00 4.02918E-10
7.61557E-13 4.00383E-10
1.18994E-12 3.98970E-10
1.71346E-12 3.97255E-10
2.33225E-12 3.95242E-10
3.04617E-12 3.92942E-10
3.85530E-12 3.90361E-10
4.75964E-12 3.87509E-10
5.75917E-12 3.84396E-10
6.85391E-12 3.81034E-10
8.04379E-12 3.77434E-10
9.32893E-12 3.73608E-10
1.07092E-11 3.69557E-10
1.21847E-11 3.65299E-10
1.37554E-11 3.60876E-10
1.54213E-11 3.56303E-10
1.71823E-11 3.51529E-10
1.90386E-11 3.46615E-10
2.09900E-11 3.41598E-10
2.30367E-11 3.36480E-10
2.51785E-11 3.31196E-10
2.74156E-11 3.25853E-10
2.97478E-11 3.20467E-10
3.21752E-11 3.14993E-10
3.46979E-11 3.09441E-10
3.73157E-11 3.03884E-10
4.00286E-11 2.98335E-10
4.28368E-11 2.92701E-10
4.57402E-11 2.87076E-10
4.87388E-11 2.81492E-10
5.18325E-11 2.75932E-10
5.50215E-11 2.70330E-10
5.83057E-11 2.64795E-10
6.16850E-11 2.59333E-10
6.51595E-11 2.53885E-10
6.87293E-11 2.48469E-10
7.23943E-11 2.43146E-10
7.61544E-11 2.37917E-10
1.18991E-10 1.89640E-10
1.71347E-10 1.50540E-10
2.33223E-10 1.20192E-10
3.04617E-10 9.70144E-11
3.85531E-10 7.92933E-11
4.75965E-10 6.56229E-11
5.75917E-10 5.49202E-11
6.85389E-10 4.63994E-11
8.04380E-10 3.95046E-11
9.32891E-10 3.38551E-11
1.07092E-09 2.89971E-11
1.21847E-09 2.48970E-11
1.37554E-09 2.16485E-11
1.54213E-09 1.90419E-11
1.71823E-09 1.65639E-11
1.90386E-09 1.44582E-11
2.09900E-09 1.27358E-11
2.30367E-09 1.12836E-11
2.51785E-09 9.89181E-12
2.74156E-09 8.73458E-12
2.97478E-09 7.76488E-12
3.21752E-09 6.89797E-12
3.46978E-09 6.11689E-12
3.73156E-09 5.45373E-12
4.00286E-09 4.88731E-12
4.28368E-09 4.36581E-12
4.57402E-09 3.91102E-12
4.87388E-09 3.51824E-12
5.18326E-09 3.17390E-12
5.50215E-09 2.86010E-12
5.83057E-09 2.58627E-12
6.16850E-09 2.34637E-12
6.51596E-09 2.13137E-12
6.87293E-09 1.93867E-12
7.23942E-09 1.76833E-12
7.61544E-09 1.61728E-12
1.18991E-08 7.27406E-13
1.71347E-08 3.80514E-13
2.33223E-08 2.20827E-13
3.04617E-08 1.37452E-13
3.85531E-08 8.99069E-14
4.75965E-08 6.10923E-14
5.75917E-08 4.28084E-14
6.85389E-08 3.07934E-14
8.04380E-08 2.26663E-14
9.32891E-08 1.70283E-14
1.07092E-07 1.30236E-14
1.21847E-07 1.01316E-14
1.37554E-07 7.99481E-15
1.54213E-07 6.39427E-15
1.71823E-07 5.17584E-15
1.90386E-07 4.23426E-15
2.09900E-07 3.49827E-15
2.30367E-07 2.91618E-15
2.51785E-07 2.45052E-15
2.74156E-07 2.07455E-15
2.97478E-07 1.76834E-15
3.21752E-07 1.51671E-15
3.46978E-07 1.30839E-15
3.73156E-07 1.13479E-15
4.00286E-07 9.89091E-16
4.28368E-07 8.66046E-16
4.57402E-07 7.61614E-16
4.87388E-07 6.72484E-16
5.18325E-07 5.95988E-16
5.50215E-07 5.30092E-16
5.83057E-07 4.73073E-16
6.16850E-07 4.23483E-16
6.51596E-07 3.80235E-16
6.87293E-07 3.42376E-16
7.23942E-07 3.09094E-16
7.61543E-07 2.79760E-16
1.18991E-06 1.15901E-16
1.71347E-06 5.62484E-17
2.33223E-06 3.04740E-17
3.04617E-06 1.79041E-17
3.85531E-06 1.11942E-17
4.75964E-06 7.35207E-18
5.75916E-06 5.02530E-18
6.85388E-06 3.55020E-18
8.04378E-06 2.57867E-18
9.32888E-06 1.91785E-18
1.07092E-05 1.45577E-18
1.21846E-05 1.12484E-18
1.37553E-05 8.82831E-19
1.54212E-05 7.02546E-19
1.71822E-05 5.66023E-19
1.90385E-05 4.61088E-19
2.09899E-05 3.79443E-19
2.30365E-05 3.15090E-19
2.51783E-05 2.63809E-19
2.74153E-05 2.22541E-19
2.97475E-05 1.89032E-19
3.21749E-05 1.61600E-19
3.46974E-05 1.38972E-19
3.73152E-05 1.20174E-19
4.00281E-05 1.04452E-19
4.28362E-05 9.12218E-20
4.57395E-05 8.00218E-20
4.87380E-05 7.04888E-20
5.18317E-05 6.23335E-20
5.50205E-05 5.53238E-20
5.83045E-05 4.92723E-20
6.16838E-05 4.40264E-20
6.51582E-05 3.94611E-20
6.87277E-05 3.54730E-20
7.23925E-05 3.19768E-20
7.61524E-05 2.88972E-20
9.21439E-05 1.97458E-20
1.09658E-04 1.39474E-20
1.28695E-04 1.01304E-20
1.49255E-04 7.53430E-21
1.71338E-04 5.71941E-21
1.94942E-04 4.41960E-21
2.20070E-04 3.46903E-21
2.46720E-04 2.76089E-21
2.74892E-04 2.22458E-21
3.04586E-04 1.81243E-21
3.35803E-04 1.49146E-21
3.68542E-04 1.23851E-21
4.02802E-04 1.03698E-21
4.38585E-04 8.74826E-22
4.75889E-04 7.43161E-22
5.14715E-04 6.35354E-22
5.55063E-04 5.46403E-22
5.96931E-04 4.72482E-22
6.40321E-04 4.10645E-22
6.85233E-04 3.58597E-22
7.31665E-04 3.14534E-22
7.79618E-04 2.77032E-22
8.29092E-04 2.44951E-22
8.80086E-04 2.17378E-22
9.32601E-04 1.93574E-22
9.86636E-04 1.72937E-22
1.04219E-03 1.54975E-22
1.09927E-03 1.39282E-22
1.15786E-03 1.25522E-22
1.21797E-03 1.13418E-22
1.27961E-03 1.02735E-22
1.34276E-03 9.32784E-23
1.40743E-03 8.48826E-23
1.47362E-03 7.74081E-23
1.54133E-03 7.07364E-23
1.61056E-03 6.47661E-23
1.68131E-03 5.94107E-23
1.75357E-03 5.45957E-23
1.82735E-03 5.02571E-23
1.90265E-03 4.63394E-23
1.97947E-03 4.27946E-23
2.05780E-03 3.95809E-23
2.13765E-03 3.66620E-23
2.21902E-03 3.40059E-23
2.30190E-03 3.15850E-23
2.38630E-03 2.93745E-23
2.47222E-03 2.73530E-23
2.55965E-03 2.55015E-23
2.64859E-03 2.38030E-23
2.73905E-03 2.22427E-23
2.83103E-03 2.08074E-23
2.92452E-03 1.94852E-23
3.01952E-03 1.82656E-23
3.11604E-03 1.71392E-23
3.21407E-03 1.60977E-23
3.31362E-03 1.51334E-23
3.41468E-03 1.42396E-23
3.51725E-03 1.34103E-23
3.62133E-03 1.26400E-23
3.72692E-03 1.19236E-23
3.83403E-03 1.12568E-23
3.94265E-03 1.06354E-23
4.05278E-03 1.00559E-23
4.16442E-03 9.51491E-24
4.27757E-03 9.00940E-24
4.39223E-03 8.53662E-24
4.50840E-03 8.09407E-24
4.62608E-03 7.67948E-24
4.74527E-03 7.29075E-24
4.86597E-03 6.92598E-24
4.98817E-03 6.58343E-24
5.11188E-03 6.26150E-24
5.23711E-03 5.95872E-24
5.36383E-03 5.67376E-24
5.49207E-03 5.40536E-24
5.62181E-03 5.15240E-24
5.75306E-03 4.91382E-24
5.88581E-03 4.68867E-24
6.02007E-03 4.47604E-24
6.15583E-03 4.27512E-24
6.29310E-03 4.08514E-24
6.43187E-03 3.90541E-24
6.57214E-03 3.73526E-24
6.71392E-03 3.57411E-24
6.85720E-03 3.42137E-24
7.00198E-03 3.27655E-24
7.14827E-03 3.13914E-24
7.29605E-03 3.00871E-24
7.44534E-03 2.88484E-24
7.59612E-03 2.76714E-24
7.97965E-03 2.49754E-24
8.37255E-03 2.25927E-24
8.77480E-03 2.04809E-24
9.18641E-03 1.86041E-24
9.60736E-03 1.69320E-24
1.00376E-02 1.54384E-24
1.04773E-02 1.41013E-24
1.09262E-02 1.29016E-24
1.13844E-02 1.18229E-24
1.18520E-02 1.08509E-24
1.23288E-02 9.97336E-25
1.28150E-02 9.17967E-25
1.33104E-02 8.46050E-25
1.38150E-02 7.80770E-25
1.43290E-02 7.21418E-25
1.48521E-02 6.67368E-25
1.53845E-02 6.18071E-25
1.59262E-02 5.73043E-25
1.64770E-02 5.31854E-25
1.70371E-02 4.94126E-25
1.76063E-02 4.59522E-25
1.81848E-02 4.27743E-25
1.87724E-02 3.98521E-25
1.93692E-02 3.71620E-25
1.99751E-02 3.46826E-25
2.05901E-02 3.23948E-25
2.12143E-02 3.02817E-25
2.18476E-02 2.83277E-25
2.24900E-02 2.65192E-25
2.31415E-02 2.48436E-25
2.38021E-02 2.32898E-25
2.44717E-02 2.18474E-25
2.51504E-02 2.05075E-25
2.58382E-02 1.92615E-25
2.65349E-02 1.81021E-25
2.72407E-02 1.70222E-25
2.79555E-02 1.60156E-25
2.86793E-02 1.50767E-25
2.94120E-02 1.42002E-25
3.01537E-02 1.33815E-25
3.09043E-02 1.26161E-25
3.16639E-02 1.19001E-25
3.24324E-02 1.12299E-25
3.32098E-02 1.06022E-25
3.39961E-02 1.00139E-25
3.47912E-02 9.46219E-26
3.55952E-02 8.94449E-26
3.64081E-02 8.45843E-26
3.72297E-02 8.00183E-26
3.80602E-02 7.57267E-26
3.88995E-02 7.16909E-26
3.97476E-02 6.78937E-26
4.06044E-02 6.43193E-26
4.14700E-02 6.09529E-26
4.23443E-02 5.77810E-26
4.32273E-02 5.47910E-26
4.41190E-02 5.19711E-26
4.50194E-02 4.93106E-26
4.59284E-02 4.67993E-26
4.68461E-02 4.44280E-26
4.87074E-02 4.00711E-26
5.06030E-02 3.61771E-26
5.25328E-02 3.26919E-26
5.44967E-02 2.95682E-26
5.64946E-02 2.67649E-26
5.85262E-02 2.42460E-26
6.05914E-02 2.19799E-26
6.26901E-02 1.99391E-26
6.48222E-02 1.80991E-26
6.69873E-02 1.64385E-26
6.91854E-02 1.49385E-26
7.14163E-02 1.35823E-26
7.36799E-02 1.23550E-26
7.59760E-02 1.12436E-26
7.83043E-02 1.02362E-26
8.06647E-02 9.32257E-27
8.30571E-02 8.49335E-27
8.54812E-02 7.74027E-27
8.79369E-02 7.05595E-27
9.04240E-02 6.43374E-27
9.29422E-02 5.86771E-27
9.54915E-02 5.35254E-27
9.80716E-02 4.88344E-27
1.00682E-01 4.45610E-27
1.03323E-01 4.06666E-27
1.05995E-01 3.71162E-27
1.08696E-01 3.38783E-27
1.11427E-01 3.09245E-27
1.14188E-01 2.82292E-27
1.16978E-01 2.57689E-27
1.19797E-01 2.35228E-27
1.22645E-01 2.14718E-27
1.25522E-01 1.95985E-27
1.28428E-01 1.78873E-27
1.31361E-01 1.63240E-27
1.34323E-01 1.48956E-27
1.37313E-01 1.35904E-27
1.40330E-01 1.23976E-27
1.43375E-01 1.13076E-27
1.46447E-01 1.03114E-27
1.49545E-01 9.40094E-28
1.52671E-01 8.56892E-28
1.55823E-01 7.80857E-28
1.59001E-01 7.11378E-28
1.62205E-01 6.47893E-28
1.65435E-01 5.89892E-28
1.68690E-01 5.36908E-28
1.71970E-01 4.88513E-28
1.75276E-01 4.44317E-28
1.78606E-01 4.03964E-28
1.81961E-01 3.67127E-28
1.85340E-01 3.33507E-28
1.88743E-01 3.02830E-28
1.92169E-01 2.74848E-28
1.95619E-01 2.49329E-28
1.99092E-01 2.26066E-28
2.02589E-01 2.04865E-28
2.06107E-01 1.85550E-28
2.09649E-01 1.67961E-28
2.13212E-01 1.51950E-28
2.16797E-01 1.37381E-28
2.20404E-01 1.24131E-28
2.24032E-01 1.12085E-28
2.27680E-01 1.01141E-28
2.31350E-01 9.12014E-29
2.35040E-01 8.21805E-29
2.38751E-01 7.39978E-29
2.42481E-01 6.65799E-29
2.46231E-01 5.98597E-29
2.50000E-01 5.37757E-29
2.53788E-01 4.82717E-29
2.57595E-01 4.32960E-29
2.61421E-01 3.88015E-29
2.65264E-01 3.47450E-29
2.69126E-01 3.10870E-29
2.73005E-01 2.77912E-29
2.76901E-01 2.48247E-29
2.80814E-01 2.21573E-29
2.84744E-01 1.97612E-29
2.88691E-01 1.76113E-29
2.92653E-01 1.56844E-29
2.96632E-01 1.39596E-29
3.00625E-01 1.24177E-29
3.04634E-01 1.10410E-29
3.08658E-01 9.81367E-30
3.12697E-01 8.72111E-30
3.16749E-01 7.75005E-30
3.20816E-01 6.88843E-30
3.24896E-01 6.12526E-30
3.28990E-01 5.45054E-30
3.33097E-01 4.85522E-30
3.37216E-01 4.33104E-30
3.41348E-01 3.87054E-30
3.45492E-01 3.46694E-30
3.49647E-01 3.11409E-30
3.53814E-01 2.80645E-30
3.57992E-01 2.53899E-30
3.62181E-01 2.30718E-30
3.66381E-01 2.10691E-30
3.70590E-01 1.93451E-30
3.74810E-01 1.78665E-30
3.79039E-01 1.66035E-30
3.83277E-01 1.55292E-30
3.87524E-01 1.46196E-30
3.91780E-01 1.38533E-30
3.96044E-01 1.32109E-30
4.00316E-01 1.26754E-30
4.04596E-01 1.22315E-30
4.08882E-01 1.18656E-30
4.13176E-01 1.15657E-30
4.17476E-01 1.13213E-30
4.21783E-01 1.11228E-30
4.26095E-01 1.09622E-30
4.30413E-01 1.08321E-30
4.34737E-01 1.07264E-30
4.39065E-01 1.06395E-30
4.43398E-01 1.05668E-30
4.47736E-01 1.05040E-30
4.52077E-01 1.04479E-30
4.56422E-01 1.03954E-30
4.60770E-01 1.03440E-30
4.65122E-01 1.02917E-30
4.69476E-01 1.02367E-30
4.73832E-01 1.01778E-30
4.78190E-01 1.01138E-30
4.82550E-01 1.00439E-30
4.86912E-01 9.96745E-31
4.91274E-01 9.88403E-31
4.95637E-01 9.79338E-31
5.00000E-01 9.69538E-31
5.04363E-01 9.59001E-31
5.08726E-01 9.47739E-31
5.13088E-01 9.35770E-31
5.17450E-01 9.23119E-31
5.21810E-01 9.09817E-31
5.26168E-01 8.95901E-31
5.30524E-01 8.81411E-31
5.34878E-01 8.66389E-31
5.39230E-01 8.50879E-31
5.43578E-01 8.34927E-31
5.47923E-01 8.18580E-31
5.52264E-01 8.01885E-31
5.56602E-01 7.84886E-31
5.60935E-01 7.67632E-31
5.65263E-01 7.50166E-31
5.69587E-01 7.32531E-31
5.73905E-01 7.14771E-31
5.78217E-01 6.96926E-31
5.82524E-01 6.79034E-31
5.86824E-01 6.61133E-31
5.91118E-01 6.43258E-31
5.95404E-01 6.25442E-31
5.99684E-01 6.07716E-31
6.03956E-01 5.90109E-31
6.08220E-01 5.72649E-31
6.12476E-01 5.55361E-31
6.16723E-01 5.38267E-31
6.20961E-01 5.21389E-31
6.25190E-01 5.04747E-31
6.29410E-01 4.88357E-31
6.33619E-01 4.72237E-31
6.37819E-01 4.56399E-31
6.42008E-01 4.40856E-31
6.46186E-01 4.25620E-31
6.50353E-01 4.10699E-31
6.54508E-01 3.96102E-31
6.58652E-01 3.81835E-31
6.62784E-01 3.67904E-31
6.66903E-01 3.54313E-31
6.71010E-01 3.41065E-31
6.75104E-01 3.28163E-31
6.79184E-01 3.15607E-31
6.83251E-01 3.03398E-31
6.87303E-01 2.91535E-31
6.91342E-01 2.80017E-31
6.95366E-01 2.68842E-31
6.99375E-01 2.58007E-31
7.03368E-01 2.47508E-31
7.07347E-01 2.37343E-31
7.11309E-01 2.27506E-31
7.15256E-01 2.17994E-31
7.19186E-01 2.08800E-31
7.23099E-01 1.99919E-31
7.26995E-01 1.91346E-31
7.30874E-01 1.83075E-31
7.34736E-01 1.75099E-31
7.38579E-01 1.67412E-31
7.42405E-01 1.60007E-31
7.46212E-01 1.52877E-31
7.50000E-01 1.46016E-31
7.53769E-01 1.39417E-31
7.57519E-01 1.33073E-31
7.61249E-01 1.26976E-31
7.64960E-01 1.21120E-31
7.68650E-01 1.15498E-31
7.72320E-01 1.10103E-31
7.75968E-01 1.04927E-31
7.79596E-01 9.99646E-32
7.83203E-01 9.52082E-32
7.86788E-01 9.06512E-32
7.90351E-01 8.62871E-32
7.93893E-01 8.21092E-32
7.97411E-01 7.81113E-32
8.00908E-01 7.42869E-32
8.04381E-01 7.06298E-32
8.07831E-01 6.71342E-32
8.11257E-01 6.37939E-32
8.14660E-01 6.06033E-32
8.18039E-01 5.75566E-32
8.21394E-01 5.46485E-32
8.24724E-01 5.18735E-32
8.28030E-01 4.92264E-32
8.31310E-01 4.67021E-32
8.34565E-01 4.42957E-32
8.37795E-01 4.20025E-32
8.40999E-01 3.98178E-32
8.44177E-01 3.77370E-32
8.47329E-01 3.57560E-32
8.50455E-01 3.38703E-32
8.53553E-01 3.20761E-32
8.56625E-01 3.03693E-32
8.59670E-01 2.87462E-32
8.62687E-01 2.72031E-32
8.65677E-01 2.57364E-32
8.68639E-01 2.43429E-32
8.71572E-01 2.30191E-32
8.74478E-01 2.17619E-32
8.77355E-01 2.05683E-32
8.80203E-01 1.94354E-32
8.83022E-01 1.83604E-32
8.85812E-01 1.73406E-32
8.88573E-01 1.63734E-32
8.91304E-01 1.54563E-32
8.94005E-01 1.45869E-32
8.96677E-01 1.37629E-32
8.99318E-01 1.29823E-32
9.01928E-01 1.22428E-32
9.04508E-01 1.15425E-32
9.07058E-01 1.08794E-32
9.09576E-01 1.02517E-32
9.12063E-01 9.65768E-33
9.14519E-01 9.09564E-33
9.16943E-01 8.56397E-33
9.19335E-01 8.06115E-33
9.21696E-01 7.58571E-33
9.24024E-01 7.13626E-33
9.26320E-01 6.71146E-33
9.28584E-01 6.31006E-33
9.30815E-01 5.93084E-33
9.33013E-01 5.57264E-33
9.35178E-01 5.23438E-33
9.37310E-01 4.91500E-33
9.39409E-01 4.61352E-33
9.41474E-01 4.32898E-33
9.43505E-01 4.06049E-33
9.45503E-01 3.80719E-33
9.47467E-01 3.56826E-33
9.49397E-01 3.34295E-33
9.51293E-01 3.13050E-33
9.53154E-01 2.93022E-33
9.54981E-01 2.74145E-33
9.56773E-01 2.56357E-33
9.58530E-01 2.39598E-33
9.60252E-01 2.23811E-33
9.61940E-01 2.08943E-33
9.63592E-01 1.94943E-33
9.65209E-01 1.81762E-33
9.66790E-01 1.69357E-33
9.68336E-01 1.57683E-33
9.69846E-01 1.46699E-33
9.71321E-01 1.36368E-33
9.72759E-01 1.26652E-33
9.74162E-01 1.17518E-33
9.75528E-01 1.08932E-33
9.76858E-01 1.00864E-33
9.78152E-01 9.32849E-34
9.79410E-01 8.61674E-34
9.80631E-01 7.94857E-34
9.81815E-01 7.32150E-34
9.82963E-01 6.73329E-34
9.84074E-01 6.18174E-34
9.85148E-01 5.66484E-34
9.86185E-01 5.18068E-34
9.87185E-01 4.72744E-34
9.88148E-01 4.30347E-34
9.89074E-01 3.90714E-34
9.89962E-01 3.53702E-34
9.90814E-01 3.19167E-34
9.91627E-01 2.86981E-34
9.92404E-01 2.57022E-34
9.93143E-01 2.29178E-34
9.93844E-01 2.03341E-34
9.94508E-01 1.79416E-34
9.95134E-01 1.57310E-34
9.95722E-01 1.36938E-34
9.96273E-01 1.18225E-34
9.96786E-01 1.01096E-34
9.97261E-01 8.54884E-35
9.97698E-01 7.13403E-35
9.98097E-01 5.85990E-35
9.98459E-01 4.72135E-35
9.98782E-01 3.71420E-35
9.99067E-01 2.83450E-35
9.99315E-01 2.07865E-35
9.99524E-01 1.44413E-35
9.99695E-01 9.28187E-36
9.99829E-01 5.29025E-36
9.99924E-01 2.44970E-36
9.99981E-01 7.49288E-37
1.00000E+00 1.83624E-37
