 #
 # Subroutine ELSEPA. Elastic scattering of electrons and positrons
 #                    by neutral atoms and positive ions
 #
 # Projectile: electron
 # Kinetic energy = 3.50000E+06 eV = 1.28623E+05 a.u.
 #
 # WARNING: High-energy factorization with free-atom DF screening.
 #          Absorption, polarization and exchange corrections are
 #          switched off.
 #          Phase shifts are calculated for the bare nucleus.
 #          Scattering amplitudes are not evaluated.
 #
 # Element: Co,  Z =  27,  atomic weight = 5.89332E+01 g/mol
 #
 # Nuclear model: Fermi distribution
 #                Average radius = 4.16393E-13 cm
 #                Skin thickness = 5.46000E-14 cm
 #
 # Number of electrons = 27
 #
 # Total elastic cross section = 1.99945E-18 cm**2 = 7.14016E-02 a0**2
 # 1st transport cross section = 6.91138E-23 cm**2 = 2.46810E-06 a0**2
 # 2nd transport cross section = 1.95426E-22 cm**2 = 6.97877E-06 a0**2
 #
 #
 # Differential cross section:                       MU=(1-COS(THETA))/2
 #
 #  THETA        MU          DCS          DCS        Sherman      error
 #  (deg)                 (cm**2/sr)   (a0**2/sr)    function
 #----------------------------------------------------------------------
0.00000E+00 2.86145E-13
7.61557E-13 2.86144E-13
1.18994E-12 2.86143E-13
1.71346E-12 2.86142E-13
2.33225E-12 2.86141E-13
3.04617E-12 2.86140E-13
3.85530E-12 2.86138E-13
4.75964E-12 2.86137E-13
5.75917E-12 2.86135E-13
6.85391E-12 2.86133E-13
8.04379E-12 2.86131E-13
9.32893E-12 2.86129E-13
1.07092E-11 2.86127E-13
1.21847E-11 2.86125E-13
1.37554E-11 2.86122E-13
1.54213E-11 2.86119E-13
1.71823E-11 2.86116E-13
1.90386E-11 2.86113E-13
2.09900E-11 2.86110E-13
2.30367E-11 2.86107E-13
2.51785E-11 2.86103E-13
2.74156E-11 2.86100E-13
2.97478E-11 2.86096E-13
3.21752E-11 2.86092E-13
3.46979E-11 2.86087E-13
3.73157E-11 2.86083E-13
4.00286E-11 2.86079E-13
4.28368E-11 2.86074E-13
4.57402E-11 2.86069E-13
4.87388E-11 2.86064E-13
5.18325E-11 2.86059E-13
5.50215E-11 2.86054E-13
5.83057E-11 2.86048E-13
6.16850E-11 2.86043E-13
6.51595E-11 2.86037E-13
6.87293E-11 2.86031E-13
7.23943E-11 2.86025E-13
7.61544E-11 2.86019E-13
1.18991E-10 2.85948E-13
1.71347E-10 2.85862E-13
2.33223E-10 2.85759E-13
3.04617E-10 2.85641E-13
3.85531E-10 2.85508E-13
4.75965E-10 2.85359E-13
5.75917E-10 2.85194E-13
6.85389E-10 2.85014E-13
8.04380E-10 2.84818E-13
9.32891E-10 2.84607E-13
1.07092E-09 2.84381E-13
1.21847E-09 2.84139E-13
1.37554E-09 2.83882E-13
1.54213E-09 2.83610E-13
1.71823E-09 2.83322E-13
1.90386E-09 2.83020E-13
2.09900E-09 2.82703E-13
2.30367E-09 2.82371E-13
2.51785E-09 2.82024E-13
2.74156E-09 2.81662E-13
2.97478E-09 2.81286E-13
3.21752E-09 2.80896E-13
3.46978E-09 2.80491E-13
3.73156E-09 2.80071E-13
4.00286E-09 2.79638E-13
4.28368E-09 2.79190E-13
4.57402E-09 2.78729E-13
4.87388E-09 2.78254E-13
5.18326E-09 2.77765E-13
5.50215E-09 2.77262E-13
5.83057E-09 2.76746E-13
6.16850E-09 2.76217E-13
6.51596E-09 2.75674E-13
6.87293E-09 2.75119E-13
7.23942E-09 2.74550E-13
7.61544E-09 2.73969E-13
1.18991E-08 2.67487E-13
1.71347E-08 2.59879E-13
2.33223E-08 2.51374E-13
3.04617E-08 2.42093E-13
3.85531E-08 2.32242E-13
4.75965E-08 2.22024E-13
5.75917E-08 2.11601E-13
6.85389E-08 2.01050E-13
8.04380E-08 1.90583E-13
9.32891E-08 1.80313E-13
1.07092E-07 1.70291E-13
1.21847E-07 1.60586E-13
1.37554E-07 1.51295E-13
1.54213E-07 1.42450E-13
1.71823E-07 1.34024E-13
1.90386E-07 1.26072E-13
2.09900E-07 1.18601E-13
2.30367E-07 1.11594E-13
2.51785E-07 1.05013E-13
2.74156E-07 9.88766E-14
2.97478E-07 9.31615E-14
3.21752E-07 8.78275E-14
3.46978E-07 8.28563E-14
3.73156E-07 7.82368E-14
4.00286E-07 7.39439E-14
4.28368E-07 6.99339E-14
4.57402E-07 6.62044E-14
4.87388E-07 6.27358E-14
5.18325E-07 5.95024E-14
5.50215E-07 5.64776E-14
5.83057E-07 5.36581E-14
6.16850E-07 5.10274E-14
6.51596E-07 4.85602E-14
6.87293E-07 4.62478E-14
7.23942E-07 4.40837E-14
7.61543E-07 4.20560E-14
1.18991E-06 2.71376E-14
1.71347E-06 1.80626E-14
2.33223E-06 1.26423E-14
3.04617E-06 8.89346E-15
3.85531E-06 6.37097E-15
4.75964E-06 4.65294E-15
5.75916E-06 3.44726E-15
6.85388E-06 2.57656E-15
8.04378E-06 1.96067E-15
9.32888E-06 1.51532E-15
1.07092E-05 1.18687E-15
1.21846E-05 9.42453E-16
1.37553E-05 7.58693E-16
1.54212E-05 6.18396E-16
1.71822E-05 5.09621E-16
1.90385E-05 4.24408E-16
2.09899E-05 3.56912E-16
2.30365E-05 3.02737E-16
2.51783E-05 2.58685E-16
2.74153E-05 2.22601E-16
2.97475E-05 1.92777E-16
3.21749E-05 1.67862E-16
3.46974E-05 1.46899E-16
3.73152E-05 1.29167E-16
4.00281E-05 1.14067E-16
4.28362E-05 1.01079E-16
4.57395E-05 8.98969E-17
4.87380E-05 8.02258E-17
5.18317E-05 7.18102E-17
5.50205E-05 6.44416E-17
5.83045E-05 5.79906E-17
6.16838E-05 5.23217E-17
6.51582E-05 4.73089E-17
6.87277E-05 4.28706E-17
7.23925E-05 3.89358E-17
7.61524E-05 3.54367E-17
9.21439E-05 2.47588E-17
1.09658E-04 1.77732E-17
1.28695E-04 1.30648E-17
1.49255E-04 9.80458E-18
1.71338E-04 7.49897E-18
1.94942E-04 5.83139E-18
2.20070E-04 4.60354E-18
2.46720E-04 3.68328E-18
2.74892E-04 2.98217E-18
3.04586E-04 2.44094E-18
3.35803E-04 2.01770E-18
3.68542E-04 1.68278E-18
4.02802E-04 1.41473E-18
4.38585E-04 1.19826E-18
4.75889E-04 1.02186E-18
5.14715E-04 8.76845E-19
5.55063E-04 7.56730E-19
5.96931E-04 6.56581E-19
6.40321E-04 5.72529E-19
6.85233E-04 5.01496E-19
7.31665E-04 4.41177E-19
7.79618E-04 3.89689E-19
8.29092E-04 3.45506E-19
8.80086E-04 3.07405E-19
9.32601E-04 2.74426E-19
9.86636E-04 2.45763E-19
1.04219E-03 2.20742E-19
1.09927E-03 1.98826E-19
1.15786E-03 1.79568E-19
1.21797E-03 1.62590E-19
1.27961E-03 1.47565E-19
1.34276E-03 1.34240E-19
1.40743E-03 1.22387E-19
1.47362E-03 1.11813E-19
1.54133E-03 1.02356E-19
1.61056E-03 9.38790E-20
1.68131E-03 8.62628E-20
1.75357E-03 7.94023E-20
1.82735E-03 7.32108E-20
1.90265E-03 6.76120E-20
1.97947E-03 6.25387E-20
2.05780E-03 5.79318E-20
2.13765E-03 5.37419E-20
2.21902E-03 4.99247E-20
2.30190E-03 4.64404E-20
2.38630E-03 4.32548E-20
2.47222E-03 4.03382E-20
2.55965E-03 3.76637E-20
2.64859E-03 3.52071E-20
2.73905E-03 3.29478E-20
2.83103E-03 3.08672E-20
2.92452E-03 2.89485E-20
3.01952E-03 2.71766E-20
3.11604E-03 2.55384E-20
3.21407E-03 2.40221E-20
3.31362E-03 2.26168E-20
3.41468E-03 2.13129E-20
3.51725E-03 2.01018E-20
3.62133E-03 1.89757E-20
3.72692E-03 1.79274E-20
3.83403E-03 1.69507E-20
3.94265E-03 1.60398E-20
4.05278E-03 1.51893E-20
4.16442E-03 1.43946E-20
4.27757E-03 1.36513E-20
4.39223E-03 1.29555E-20
4.50840E-03 1.23035E-20
4.62608E-03 1.16921E-20
4.74527E-03 1.11183E-20
4.86597E-03 1.05794E-20
4.98817E-03 1.00728E-20
5.11188E-03 9.59631E-21
5.23711E-03 9.14770E-21
5.36383E-03 8.72507E-21
5.49207E-03 8.32663E-21
5.62181E-03 7.95074E-21
5.75306E-03 7.59590E-21
5.88581E-03 7.26067E-21
6.02007E-03 6.94379E-21
6.15583E-03 6.64408E-21
6.29310E-03 6.36040E-21
6.43187E-03 6.09175E-21
6.57214E-03 5.83718E-21
6.71392E-03 5.59582E-21
6.85720E-03 5.36684E-21
7.00198E-03 5.14950E-21
7.14827E-03 4.94308E-21
7.29605E-03 4.74694E-21
7.44534E-03 4.56046E-21
7.59612E-03 4.38309E-21
7.97965E-03 3.97608E-21
8.37255E-03 3.61539E-21
8.77480E-03 3.29483E-21
9.18641E-03 3.00915E-21
9.60736E-03 2.75389E-21
1.00376E-02 2.52522E-21
1.04773E-02 2.31990E-21
1.09262E-02 2.13511E-21
1.13844E-02 1.96843E-21
1.18520E-02 1.81777E-21
1.23288E-02 1.68131E-21
1.28150E-02 1.55747E-21
1.33104E-02 1.44487E-21
1.38150E-02 1.34231E-21
1.43290E-02 1.24873E-21
1.48521E-02 1.16321E-21
1.53845E-02 1.08491E-21
1.59262E-02 1.01312E-21
1.64770E-02 9.47201E-22
1.70371E-02 8.86581E-22
1.76063E-02 8.30756E-22
1.81848E-02 7.79277E-22
1.87724E-02 7.31744E-22
1.93692E-02 6.87797E-22
1.99751E-02 6.47117E-22
2.05901E-02 6.09414E-22
2.12143E-02 5.74431E-22
2.18476E-02 5.41935E-22
2.24900E-02 5.11716E-22
2.31415E-02 4.83584E-22
2.38021E-02 4.57369E-22
2.44717E-02 4.32916E-22
2.51504E-02 4.10082E-22
2.58382E-02 3.88743E-22
2.65349E-02 3.68780E-22
2.72407E-02 3.50088E-22
2.79555E-02 3.32572E-22
2.86793E-02 3.16144E-22
2.94120E-02 3.00722E-22
3.01537E-02 2.86234E-22
3.09043E-02 2.72612E-22
3.16639E-02 2.59795E-22
3.24324E-02 2.47727E-22
3.32098E-02 2.36354E-22
3.39961E-02 2.25630E-22
3.47912E-02 2.15510E-22
3.55952E-02 2.05954E-22
3.64081E-02 1.96924E-22
3.72297E-02 1.88386E-22
3.80602E-02 1.80309E-22
3.88995E-02 1.72661E-22
3.97476E-02 1.65417E-22
4.06044E-02 1.58550E-22
4.14700E-02 1.52038E-22
4.23443E-02 1.45858E-22
4.32273E-02 1.39990E-22
4.41190E-02 1.34416E-22
4.50194E-02 1.29117E-22
4.59284E-02 1.24079E-22
4.68461E-02 1.19285E-22
4.87074E-02 1.10374E-22
5.06030E-02 1.02283E-22
5.25328E-02 9.49234E-23
5.44967E-02 8.82161E-23
5.64946E-02 8.20930E-23
5.85262E-02 7.64938E-23
6.05914E-02 7.13655E-23
6.26901E-02 6.66612E-23
6.48222E-02 6.23393E-23
6.69873E-02 5.83630E-23
6.91854E-02 5.46995E-23
7.14163E-02 5.13197E-23
7.36799E-02 4.81975E-23
7.59760E-02 4.53096E-23
7.83043E-02 4.26352E-23
8.06647E-02 4.01554E-23
8.30571E-02 3.78536E-23
8.54812E-02 3.57145E-23
8.79369E-02 3.37245E-23
9.04240E-02 3.18713E-23
9.29422E-02 3.01436E-23
9.54915E-02 2.85314E-23
9.80716E-02 2.70255E-23
1.00682E-01 2.56176E-23
1.03323E-01 2.43000E-23
1.05995E-01 2.30660E-23
1.08696E-01 2.19092E-23
1.11427E-01 2.08238E-23
1.14188E-01 1.98047E-23
1.16978E-01 1.88469E-23
1.19797E-01 1.79462E-23
1.22645E-01 1.70985E-23
1.25522E-01 1.63000E-23
1.28428E-01 1.55474E-23
1.31361E-01 1.48375E-23
1.34323E-01 1.41674E-23
1.37313E-01 1.35345E-23
1.40330E-01 1.29364E-23
1.43375E-01 1.23707E-23
1.46447E-01 1.18354E-23
1.49545E-01 1.13285E-23
1.52671E-01 1.08483E-23
1.55823E-01 1.03930E-23
1.59001E-01 9.96109E-24
1.62205E-01 9.55119E-24
1.65435E-01 9.16196E-24
1.68690E-01 8.79213E-24
1.71970E-01 8.44057E-24
1.75276E-01 8.10620E-24
1.78606E-01 7.78802E-24
1.81961E-01 7.48509E-24
1.85340E-01 7.19656E-24
1.88743E-01 6.92160E-24
1.92169E-01 6.65944E-24
1.95619E-01 6.40940E-24
1.99092E-01 6.17079E-24
2.02589E-01 5.94299E-24
2.06107E-01 5.72543E-24
2.09649E-01 5.51755E-24
2.13212E-01 5.31885E-24
2.16797E-01 5.12883E-24
2.20404E-01 4.94706E-24
2.24032E-01 4.77310E-24
2.27680E-01 4.60655E-24
2.31350E-01 4.44705E-24
2.35040E-01 4.29422E-24
2.38751E-01 4.14775E-24
2.42481E-01 4.00732E-24
2.46231E-01 3.87263E-24
2.50000E-01 3.74341E-24
2.53788E-01 3.61938E-24
2.57595E-01 3.50030E-24
2.61421E-01 3.38594E-24
2.65264E-01 3.27608E-24
2.69126E-01 3.17049E-24
2.73005E-01 3.06900E-24
2.76901E-01 2.97140E-24
2.80814E-01 2.87752E-24
2.84744E-01 2.78720E-24
2.88691E-01 2.70026E-24
2.92653E-01 2.61657E-24
2.96632E-01 2.53598E-24
3.00625E-01 2.45834E-24
3.04634E-01 2.38354E-24
3.08658E-01 2.31145E-24
3.12697E-01 2.24195E-24
3.16749E-01 2.17494E-24
3.20816E-01 2.11030E-24
3.24896E-01 2.04794E-24
3.28990E-01 1.98777E-24
3.33097E-01 1.92968E-24
3.37216E-01 1.87360E-24
3.41348E-01 1.81944E-24
3.45492E-01 1.76713E-24
3.49647E-01 1.71659E-24
3.53814E-01 1.66775E-24
3.57992E-01 1.62054E-24
3.62181E-01 1.57490E-24
3.66381E-01 1.53077E-24
3.70590E-01 1.48808E-24
3.74810E-01 1.44679E-24
3.79039E-01 1.40683E-24
3.83277E-01 1.36816E-24
3.87524E-01 1.33072E-24
3.91780E-01 1.29448E-24
3.96044E-01 1.25938E-24
4.00316E-01 1.22538E-24
4.04596E-01 1.19245E-24
4.08882E-01 1.16054E-24
4.13176E-01 1.12962E-24
4.17476E-01 1.09964E-24
4.21783E-01 1.07058E-24
4.26095E-01 1.04240E-24
4.30413E-01 1.01507E-24
4.34737E-01 9.88567E-25
4.39065E-01 9.62850E-25
4.43398E-01 9.37898E-25
4.47736E-01 9.13682E-25
4.52077E-01 8.90177E-25
4.56422E-01 8.67359E-25
4.60770E-01 8.45203E-25
4.65122E-01 8.23689E-25
4.69476E-01 8.02793E-25
4.73832E-01 7.82494E-25
4.78190E-01 7.62773E-25
4.82550E-01 7.43610E-25
4.86912E-01 7.24987E-25
4.91274E-01 7.06885E-25
4.95637E-01 6.89289E-25
5.00000E-01 6.72180E-25
5.04363E-01 6.55544E-25
5.08726E-01 6.39366E-25
5.13088E-01 6.23629E-25
5.17450E-01 6.08321E-25
5.21810E-01 5.93427E-25
5.26168E-01 5.78935E-25
5.30524E-01 5.64831E-25
5.34878E-01 5.51104E-25
5.39230E-01 5.37742E-25
5.43578E-01 5.24734E-25
5.47923E-01 5.12067E-25
5.52264E-01 4.99733E-25
5.56602E-01 4.87721E-25
5.60935E-01 4.76022E-25
5.65263E-01 4.64625E-25
5.69587E-01 4.53521E-25
5.73905E-01 4.42703E-25
5.78217E-01 4.32160E-25
5.82524E-01 4.21886E-25
5.86824E-01 4.11872E-25
5.91118E-01 4.02110E-25
5.95404E-01 3.92594E-25
5.99684E-01 3.83316E-25
6.03956E-01 3.74269E-25
6.08220E-01 3.65446E-25
6.12476E-01 3.56841E-25
6.16723E-01 3.48448E-25
6.20961E-01 3.40262E-25
6.25190E-01 3.32275E-25
6.29410E-01 3.24482E-25
6.33619E-01 3.16878E-25
6.37819E-01 3.09458E-25
6.42008E-01 3.02217E-25
6.46186E-01 2.95149E-25
6.50353E-01 2.88250E-25
6.54508E-01 2.81515E-25
6.58652E-01 2.74940E-25
6.62784E-01 2.68521E-25
6.66903E-01 2.62252E-25
6.71010E-01 2.56131E-25
6.75104E-01 2.50153E-25
6.79184E-01 2.44315E-25
6.83251E-01 2.38612E-25
6.87303E-01 2.33041E-25
6.91342E-01 2.27599E-25
6.95366E-01 2.22282E-25
6.99375E-01 2.17088E-25
7.03368E-01 2.12012E-25
7.07347E-01 2.07052E-25
7.11309E-01 2.02205E-25
7.15256E-01 1.97468E-25
7.19186E-01 1.92838E-25
7.23099E-01 1.88312E-25
7.26995E-01 1.83888E-25
7.30874E-01 1.79564E-25
7.34736E-01 1.75336E-25
7.38579E-01 1.71203E-25
7.42405E-01 1.67161E-25
7.46212E-01 1.63210E-25
7.50000E-01 1.59346E-25
7.53769E-01 1.55567E-25
7.57519E-01 1.51872E-25
7.61249E-01 1.48258E-25
7.64960E-01 1.44723E-25
7.68650E-01 1.41266E-25
7.72320E-01 1.37884E-25
7.75968E-01 1.34577E-25
7.79596E-01 1.31341E-25
7.83203E-01 1.28175E-25
7.86788E-01 1.25079E-25
7.90351E-01 1.22049E-25
7.93893E-01 1.19085E-25
7.97411E-01 1.16185E-25
8.00908E-01 1.13348E-25
8.04381E-01 1.10571E-25
8.07831E-01 1.07855E-25
8.11257E-01 1.05197E-25
8.14660E-01 1.02595E-25
8.18039E-01 1.00050E-25
8.21394E-01 9.75592E-26
8.24724E-01 9.51217E-26
8.28030E-01 9.27364E-26
8.31310E-01 9.04020E-26
8.34565E-01 8.81175E-26
8.37795E-01 8.58818E-26
8.40999E-01 8.36939E-26
8.44177E-01 8.15527E-26
8.47329E-01 7.94572E-26
8.50455E-01 7.74064E-26
8.53553E-01 7.53994E-26
8.56625E-01 7.34353E-26
8.59670E-01 7.15131E-26
8.62687E-01 6.96320E-26
8.65677E-01 6.77912E-26
8.68639E-01 6.59898E-26
8.71572E-01 6.42270E-26
8.74478E-01 6.25021E-26
8.77355E-01 6.08142E-26
8.80203E-01 5.91626E-26
8.83022E-01 5.75466E-26
8.85812E-01 5.59655E-26
8.88573E-01 5.44186E-26
8.91304E-01 5.29053E-26
8.94005E-01 5.14248E-26
8.96677E-01 4.99766E-26
8.99318E-01 4.85600E-26
9.01928E-01 4.71744E-26
9.04508E-01 4.58193E-26
9.07058E-01 4.44941E-26
9.09576E-01 4.31981E-26
9.12063E-01 4.19310E-26
9.14519E-01 4.06921E-26
9.16943E-01 3.94810E-26
9.19335E-01 3.82971E-26
9.21696E-01 3.71400E-26
9.24024E-01 3.60092E-26
9.26320E-01 3.49042E-26
9.28584E-01 3.38246E-26
9.30815E-01 3.27700E-26
9.33013E-01 3.17399E-26
9.35178E-01 3.07339E-26
9.37310E-01 2.97516E-26
9.39409E-01 2.87926E-26
9.41474E-01 2.78566E-26
9.43505E-01 2.69432E-26
9.45503E-01 2.60520E-26
9.47467E-01 2.51827E-26
9.49397E-01 2.43349E-26
9.51293E-01 2.35083E-26
9.53154E-01 2.27026E-26
9.54981E-01 2.19175E-26
9.56773E-01 2.11526E-26
9.58530E-01 2.04077E-26
9.60252E-01 1.96826E-26
9.61940E-01 1.89768E-26
9.63592E-01 1.82902E-26
9.65209E-01 1.76225E-26
9.66790E-01 1.69734E-26
9.68336E-01 1.63427E-26
9.69846E-01 1.57302E-26
9.71321E-01 1.51356E-26
9.72759E-01 1.45587E-26
9.74162E-01 1.39993E-26
9.75528E-01 1.34572E-26
9.76858E-01 1.29321E-26
9.78152E-01 1.24240E-26
9.79410E-01 1.19325E-26
9.80631E-01 1.14576E-26
9.81815E-01 1.09990E-26
9.82963E-01 1.05566E-26
9.84074E-01 1.01302E-26
9.85148E-01 9.71972E-27
9.86185E-01 9.32490E-27
9.87185E-01 8.94565E-27
9.88148E-01 8.58183E-27
9.89074E-01 8.23330E-27
9.89962E-01 7.89995E-27
9.90814E-01 7.58164E-27
9.91627E-01 7.27827E-27
9.92404E-01 6.98973E-27
9.93143E-01 6.71591E-27
9.93844E-01 6.45671E-27
9.94508E-01 6.21205E-27
9.95134E-01 5.98183E-27
9.95722E-01 5.76597E-27
9.96273E-01 5.56439E-27
9.96786E-01 5.37703E-27
9.97261E-01 5.20381E-27
9.97698E-01 5.04467E-27
9.98097E-01 4.89956E-27
9.98459E-01 4.76843E-27
9.98782E-01 4.65122E-27
9.99067E-01 4.54790E-27
9.99315E-01 4.45844E-27
9.99524E-01 4.38278E-27
9.99695E-01 4.32092E-27
9.99829E-01 4.27283E-27
9.99924E-01 4.23850E-27
9.99981E-01 4.21790E-27
1.00000E+00 4.21103E-27
