 #
 # Subroutine ELSEPA. Elastic scattering of electrons and positrons
 #                    by neutral atoms and positive ions
 #
 # Projectile: electron
 # Kinetic energy = 7.00000E+08 eV = 2.57245E+07 a.u.
 #
 # WARNING: High-energy factorization with free-atom DF screening.
 #          Absorption, polarization and exchange corrections are
 #          switched off.
 #          Phase shifts are calculated for the bare nucleus.
 #          Scattering amplitudes are not evaluated.
 #
 # Element: Co,  Z =  27,  atomic weight = 5.89332E+01 g/mol
 #
 # Nuclear model: Fermi distribution
 #                Average radius = 4.16393E-13 cm
 #                Skin thickness = 5.46000E-14 cm
 #
 # Number of electrons = 27
 #
 # Total elastic cross section = 1.96034E-18 cm**2 = 7.00050E-02 a0**2
 # 1st transport cross section = 3.07700E-27 cm**2 = 1.09882E-10 a0**2
 # 2nd transport cross section = 9.22871E-27 cm**2 = 3.29563E-10 a0**2
 #
 #
 # Differential cross section:                       MU=(1-COS(THETA))/2
 #
 #  THETA        MU          DCS          DCS        Sherman      error
 #  (deg)                 (cm**2/sr)   (a0**2/sr)    function
 #----------------------------------------------------------------------
0.00000E+00 8.72792E-09
7.61557E-13 7.65480E-09
1.18994E-12 7.14296E-09
1.71346E-12 6.59162E-09
2.33225E-12 6.02791E-09
3.04617E-12 5.47195E-09
3.85530E-12 4.94157E-09
4.75964E-12 4.44792E-09
5.75917E-12 3.99639E-09
6.85391E-12 3.58796E-09
8.04379E-12 3.22343E-09
9.32893E-12 2.90020E-09
1.07092E-11 2.61433E-09
1.21847E-11 2.36214E-09
1.37554E-11 2.14013E-09
1.54213E-11 1.94453E-09
1.71823E-11 1.77136E-09
1.90386E-11 1.61813E-09
2.09900E-11 1.48218E-09
2.30367E-11 1.36102E-09
2.51785E-11 1.25249E-09
2.74156E-11 1.15521E-09
2.97478E-11 1.06772E-09
3.21752E-11 9.88508E-10
3.46979E-11 9.16689E-10
3.73157E-11 8.51468E-10
4.00286E-11 7.92039E-10
4.28368E-11 7.37520E-10
4.57402E-11 6.87616E-10
4.87388E-11 6.38899E-10
5.18325E-11 5.93757E-10
5.50215E-11 5.53409E-10
5.83057E-11 5.17239E-10
6.16850E-11 4.84724E-10
6.51595E-11 4.55412E-10
6.87293E-11 4.28918E-10
7.23943E-11 4.04910E-10
7.61544E-11 3.78951E-10
1.18991E-10 2.07016E-10
1.71347E-10 1.19128E-10
2.33223E-10 7.18045E-11
3.04617E-10 4.51437E-11
3.85531E-10 2.96933E-11
4.75965E-10 2.03626E-11
5.75917E-10 1.44825E-11
6.85389E-10 1.06238E-11
8.04380E-10 8.00152E-12
9.32891E-10 6.16030E-12
1.07092E-09 4.82863E-12
1.21847E-09 3.84195E-12
1.37554E-09 3.09639E-12
1.54213E-09 2.52359E-12
1.71823E-09 2.07581E-12
1.90386E-09 1.72225E-12
2.09900E-09 1.43998E-12
2.30367E-09 1.21225E-12
2.51785E-09 1.02686E-12
2.74156E-09 8.75067E-13
2.97478E-09 7.49919E-13
3.21752E-09 6.45973E-13
3.46978E-09 5.59184E-13
3.73156E-09 4.86334E-13
4.00286E-09 4.24844E-13
4.28368E-09 3.72644E-13
4.57402E-09 3.28164E-13
4.87388E-09 2.90011E-13
5.18326E-09 2.57251E-13
5.50215E-09 2.29049E-13
5.83057E-09 2.04569E-13
6.16850E-09 1.83241E-13
6.51596E-09 1.64654E-13
6.87293E-09 1.48362E-13
7.23942E-09 1.34018E-13
7.61544E-09 1.21385E-13
1.18991E-08 5.06938E-14
1.71347E-08 2.48332E-14
2.33223E-08 1.35720E-14
3.04617E-08 8.03210E-15
3.85531E-08 5.05081E-15
4.75965E-08 3.33194E-15
5.75917E-08 2.28511E-15
6.85389E-08 1.61847E-15
8.04380E-08 1.17787E-15
9.32891E-08 8.77337E-16
1.07092E-07 6.66729E-16
1.21847E-07 5.15630E-16
1.37554E-07 4.04973E-16
1.54213E-07 3.22448E-16
1.71823E-07 2.59898E-16
1.90386E-07 2.11797E-16
2.09900E-07 1.74320E-16
2.30367E-07 1.44774E-16
2.51785E-07 1.21228E-16
2.74156E-07 1.02278E-16
2.97478E-07 8.68889E-17
3.21752E-07 7.42874E-17
3.46978E-07 6.38892E-17
3.73156E-07 5.52478E-17
4.00286E-07 4.80190E-17
4.28368E-07 4.19344E-17
4.57402E-07 3.67836E-17
4.87388E-07 3.23998E-17
5.18325E-07 2.86499E-17
5.50215E-07 2.54271E-17
5.83057E-07 2.26449E-17
6.16850E-07 2.02331E-17
6.51596E-07 1.81339E-17
6.87293E-07 1.63000E-17
7.23942E-07 1.46921E-17
7.61543E-07 1.32777E-17
1.18991E-06 5.44045E-18
1.71347E-06 2.62427E-18
2.33223E-06 1.41677E-18
3.04617E-06 8.30615E-19
3.85531E-06 5.18623E-19
4.75964E-06 3.40315E-19
5.75916E-06 2.32470E-19
6.85388E-06 1.64160E-19
8.04378E-06 1.19199E-19
9.32888E-06 8.86317E-20
1.07092E-05 6.72651E-20
1.21846E-05 5.19670E-20
1.37553E-05 4.07817E-20
1.54212E-05 3.24506E-20
1.71822E-05 2.61428E-20
1.90385E-05 2.12949E-20
2.09899E-05 1.75233E-20
2.30365E-05 1.45507E-20
2.51783E-05 1.21821E-20
2.74153E-05 1.02761E-20
2.97475E-05 8.72857E-21
3.21749E-05 7.46172E-21
3.46974E-05 6.41676E-21
3.73152E-05 5.54869E-21
4.00281E-05 4.82272E-21
4.28362E-05 4.21179E-21
4.57395E-05 3.69463E-21
4.87380E-05 3.25445E-21
5.18317E-05 2.87789E-21
5.50205E-05 2.55423E-21
5.83045E-05 2.27483E-21
6.16838E-05 2.03262E-21
6.51582E-05 1.82183E-21
6.87277E-05 1.63770E-21
7.23925E-05 1.47628E-21
7.61524E-05 1.31824E-21
9.21439E-05 8.97950E-22
1.09658E-04 6.32045E-22
1.28695E-04 4.57289E-22
1.49255E-04 3.38652E-22
1.71338E-04 2.55882E-22
1.94942E-04 1.96734E-22
2.20070E-04 1.53584E-22
2.46720E-04 1.21522E-22
2.74892E-04 9.73095E-23
3.04586E-04 7.87590E-23
3.35803E-04 6.43594E-23
3.68542E-04 5.30507E-23
4.02802E-04 4.40741E-23
4.38585E-04 3.68794E-23
4.75889E-04 3.10617E-23
5.14715E-04 2.63189E-23
5.55063E-04 2.24236E-23
5.96931E-04 1.92020E-23
6.40321E-04 1.65205E-23
6.85233E-04 1.42755E-23
7.31665E-04 1.23853E-23
7.79618E-04 1.07858E-23
8.29092E-04 9.42573E-24
8.80086E-04 8.26405E-24
9.32601E-04 7.26764E-24
9.86636E-04 6.40960E-24
1.04219E-03 5.66799E-24
1.09927E-03 5.02474E-24
1.15786E-03 4.46499E-24
1.21797E-03 3.97638E-24
1.27961E-03 3.54861E-24
1.34276E-03 3.17306E-24
1.40743E-03 2.84250E-24
1.47362E-03 2.55081E-24
1.54133E-03 2.29282E-24
1.61056E-03 2.06411E-24
1.68131E-03 1.86094E-24
1.75357E-03 1.68009E-24
1.82735E-03 1.51880E-24
1.90265E-03 1.37468E-24
1.97947E-03 1.24570E-24
2.05780E-03 1.13006E-24
2.13765E-03 1.02623E-24
2.21902E-03 9.32859E-25
2.30190E-03 8.48772E-25
2.38630E-03 7.72946E-25
2.47222E-03 7.04479E-25
2.55965E-03 6.42581E-25
2.64859E-03 5.86557E-25
2.73905E-03 5.35791E-25
2.83103E-03 4.89741E-25
2.92452E-03 4.47926E-25
3.01952E-03 4.09921E-25
3.11604E-03 3.75345E-25
3.21407E-03 3.43862E-25
3.31362E-03 3.15171E-25
3.41468E-03 2.89004E-25
3.51725E-03 2.65121E-25
3.62133E-03 2.43306E-25
3.72692E-03 2.23366E-25
3.83403E-03 2.05130E-25
3.94265E-03 1.88440E-25
4.05278E-03 1.73157E-25
4.16442E-03 1.59154E-25
4.27757E-03 1.46318E-25
4.39223E-03 1.34545E-25
4.50840E-03 1.23743E-25
4.62608E-03 1.13826E-25
4.74527E-03 1.04720E-25
4.86597E-03 9.63533E-26
4.98817E-03 8.86642E-26
5.11188E-03 8.15953E-26
5.23711E-03 7.50946E-26
5.36383E-03 6.91146E-26
5.49207E-03 6.36121E-26
5.62181E-03 5.85479E-26
5.75306E-03 5.38860E-26
5.88581E-03 4.95935E-26
6.02007E-03 4.56406E-26
6.15583E-03 4.19997E-26
6.29310E-03 3.86459E-26
6.43187E-03 3.55560E-26
6.57214E-03 3.27091E-26
6.71392E-03 3.00859E-26
6.85720E-03 2.76686E-26
7.00198E-03 2.54411E-26
7.14827E-03 2.33883E-26
7.29605E-03 2.14965E-26
7.44534E-03 1.97533E-26
7.59612E-03 1.81469E-26
7.97965E-03 1.46618E-26
8.37255E-03 1.18231E-26
8.77480E-03 9.51283E-27
9.18641E-03 7.63479E-27
9.60736E-03 6.11032E-27
1.00376E-02 4.87501E-27
1.04773E-02 3.87610E-27
1.09262E-02 3.07030E-27
1.13844E-02 2.42207E-27
1.18520E-02 1.90226E-27
1.23288E-02 1.48690E-27
1.28150E-02 1.15635E-27
1.33104E-02 8.94480E-28
1.38150E-02 6.88080E-28
1.43290E-02 5.26332E-28
1.48521E-02 4.00394E-28
1.53845E-02 3.03053E-28
1.59262E-02 2.28437E-28
1.64770E-02 1.71780E-28
1.70371E-02 1.29222E-28
1.76063E-02 9.76536E-29
1.81848E-02 7.45754E-29
1.87724E-02 5.79906E-29
1.93692E-02 4.63122E-29
1.99751E-02 3.82869E-29
2.05901E-02 3.29326E-29
2.12143E-02 2.94867E-29
2.18476E-02 2.73630E-29
2.24900E-02 2.61169E-29
2.31415E-02 2.54166E-29
2.38021E-02 2.50194E-29
2.44717E-02 2.47524E-29
2.51504E-02 2.44970E-29
2.58382E-02 2.41764E-29
2.65349E-02 2.37450E-29
2.72407E-02 2.31807E-29
2.79555E-02 2.24782E-29
2.86793E-02 2.16438E-29
2.94120E-02 2.06918E-29
3.01537E-02 1.96411E-29
3.09043E-02 1.85132E-29
3.16639E-02 1.73301E-29
3.24324E-02 1.61135E-29
3.32098E-02 1.48836E-29
3.39961E-02 1.36587E-29
3.47912E-02 1.24550E-29
3.55952E-02 1.12862E-29
3.64081E-02 1.01634E-29
3.72297E-02 9.09562E-30
3.80602E-02 8.08958E-30
3.88995E-02 7.14996E-30
3.97476E-02 6.27963E-30
4.06044E-02 5.47989E-30
4.14700E-02 4.75065E-30
4.23443E-02 4.09070E-30
4.32273E-02 3.49789E-30
4.41190E-02 2.96932E-30
4.50194E-02 2.50155E-30
4.59284E-02 2.09071E-30
4.68461E-02 1.73267E-30
4.87074E-02 1.15783E-30
5.06030E-02 7.42812E-31
5.25328E-02 4.54985E-31
5.44967E-02 2.64949E-31
5.64946E-02 1.47352E-31
5.85262E-02 8.11746E-32
6.05914E-02 4.96408E-32
6.26901E-02 3.98595E-32
6.48222E-02 4.23313E-32
6.69873E-02 5.03909E-32
6.91854E-02 5.96485E-32
7.14163E-02 6.74677E-32
7.36799E-02 7.25037E-32
7.59760E-02 7.43142E-32
7.83043E-02 7.30435E-32
8.06647E-02 6.91783E-32
8.30571E-02 6.33660E-32
8.54812E-02 5.62884E-32
8.79369E-02 4.85787E-32
9.04240E-02 4.07743E-32
9.29422E-02 3.32950E-32
9.54915E-02 2.64398E-32
9.80716E-02 2.03956E-32
1.00682E-01 1.52534E-32
1.03323E-01 1.10271E-32
1.05995E-01 7.67350E-33
1.08696E-01 5.11038E-33
1.11427E-01 3.23278E-33
1.14188E-01 1.92590E-33
1.16978E-01 1.07519E-33
1.19797E-01 5.73515E-34
1.22645E-01 3.25703E-34
1.25522E-01 2.51065E-34
1.28428E-01 2.84168E-34
1.31361E-01 3.74393E-34
1.34323E-01 4.84649E-34
1.37313E-01 5.89580E-34
1.40330E-01 6.73532E-34
1.43375E-01 7.28498E-34
1.46447E-01 7.52173E-34
1.49545E-01 7.46232E-34
1.52671E-01 7.14865E-34
1.55823E-01 6.63596E-34
1.59001E-01 5.98388E-34
1.62205E-01 5.24991E-34
1.65435E-01 4.48520E-34
1.68690E-01 3.73208E-34
1.71970E-01 3.02310E-34
1.75276E-01 2.38109E-34
1.78606E-01 1.81994E-34
1.81961E-01 1.34586E-34
1.85340E-01 9.58846E-35
1.88743E-01 6.54213E-35
1.92169E-01 4.24030E-35
1.95619E-01 2.58406E-35
1.99092E-01 1.46571E-35
2.02589E-01 7.77356E-36
2.06107E-01 4.17206E-36
2.09649E-01 2.93899E-36
2.13212E-01 3.29037E-36
2.16797E-01 4.58243E-36
2.20404E-01 6.31095E-36
2.24032E-01 8.10227E-36
2.27680E-01 9.69881E-36
2.31350E-01 1.09415E-35
2.35040E-01 1.17512E-35
2.38751E-01 1.21099E-35
2.42481E-01 1.20442E-35
2.46231E-01 1.16097E-35
2.50000E-01 1.08790E-35
2.53788E-01 9.93101E-36
2.57595E-01 8.84367E-36
2.61421E-01 7.68840E-36
2.65264E-01 6.52663E-36
2.69126E-01 5.40809E-36
2.73005E-01 4.37016E-36
2.76901E-01 3.43847E-36
2.80814E-01 2.62789E-36
2.84744E-01 1.94419E-36
2.88691E-01 1.38570E-36
2.92653E-01 9.45148E-37
2.96632E-01 6.11287E-37
3.00625E-01 3.70462E-37
3.04634E-01 2.07862E-37
3.08658E-01 1.08577E-37
3.12697E-01 5.83876E-38
3.16749E-01 4.43313E-38
3.20816E-01 5.50568E-38
3.24896E-01 8.10254E-38
3.28990E-01 1.14528E-37
3.33097E-01 1.49644E-37
3.37216E-01 1.82083E-37
3.41348E-01 2.08990E-37
3.45492E-01 2.28726E-37
3.49647E-01 2.40631E-37
3.53814E-01 2.44796E-37
3.57992E-01 2.41855E-37
3.62181E-01 2.32797E-37
3.66381E-01 2.18810E-37
3.70590E-01 2.01152E-37
3.74810E-01 1.81055E-37
3.79039E-01 1.59659E-37
3.83277E-01 1.37957E-37
3.87524E-01 1.16778E-37
3.91780E-01 9.67710E-38
3.96044E-01 7.84168E-38
4.00316E-01 6.20280E-38
4.04596E-01 4.77778E-38
4.08882E-01 3.57135E-38
4.13176E-01 2.57857E-38
4.17476E-01 1.78656E-38
4.21783E-01 1.17712E-38
4.26095E-01 7.28447E-39
4.30413E-01 1.00000E-45
4.34737E-01 1.00000E-45
4.39065E-01 1.00000E-45
4.43398E-01 1.00000E-45
4.47736E-01 1.00000E-45
4.52077E-01 1.00000E-45
4.56422E-01 1.00000E-45
4.60770E-01 1.00000E-45
4.65122E-01 1.00000E-45
4.69476E-01 1.00000E-45
4.73832E-01 1.00000E-45
4.78190E-01 1.00000E-45
4.82550E-01 1.00000E-45
4.86912E-01 1.00000E-45
4.91274E-01 1.00000E-45
4.95637E-01 1.00000E-45
5.00000E-01 1.00000E-45
5.04363E-01 1.00000E-45
5.08726E-01 1.00000E-45
5.13088E-01 1.00000E-45
5.17450E-01 1.00000E-45
5.21810E-01 1.00000E-45
5.26168E-01 1.00000E-45
5.30524E-01 1.00000E-45
5.34878E-01 1.00000E-45
5.39230E-01 1.00000E-45
5.43578E-01 1.00000E-45
5.47923E-01 1.00000E-45
5.52264E-01 1.00000E-45
5.56602E-01 1.00000E-45
5.60935E-01 1.00000E-45
5.65263E-01 1.00000E-45
5.69587E-01 1.00000E-45
5.73905E-01 1.00000E-45
5.78217E-01 1.00000E-45
5.82524E-01 1.00000E-45
5.86824E-01 1.00000E-45
5.91118E-01 1.00000E-45
5.95404E-01 1.00000E-45
5.99684E-01 1.00000E-45
6.03956E-01 1.00000E-45
6.08220E-01 1.00000E-45
6.12476E-01 1.00000E-45
6.16723E-01 1.00000E-45
6.20961E-01 1.00000E-45
6.25190E-01 1.00000E-45
6.29410E-01 1.00000E-45
6.33619E-01 1.00000E-45
6.37819E-01 1.00000E-45
6.42008E-01 1.00000E-45
6.46186E-01 1.00000E-45
6.50353E-01 1.00000E-45
6.54508E-01 1.00000E-45
6.58652E-01 1.00000E-45
6.62784E-01 1.00000E-45
6.66903E-01 1.00000E-45
6.71010E-01 1.00000E-45
6.75104E-01 1.00000E-45
6.79184E-01 1.00000E-45
6.83251E-01 1.00000E-45
6.87303E-01 1.00000E-45
6.91342E-01 1.00000E-45
6.95366E-01 1.00000E-45
6.99375E-01 1.00000E-45
7.03368E-01 1.00000E-45
7.07347E-01 1.00000E-45
7.11309E-01 1.00000E-45
7.15256E-01 1.00000E-45
7.19186E-01 1.00000E-45
7.23099E-01 1.00000E-45
7.26995E-01 1.00000E-45
7.30874E-01 1.00000E-45
7.34736E-01 1.00000E-45
7.38579E-01 1.00000E-45
7.42405E-01 1.00000E-45
7.46212E-01 1.00000E-45
7.50000E-01 1.00000E-45
7.53769E-01 1.00000E-45
7.57519E-01 1.00000E-45
7.61249E-01 1.00000E-45
7.64960E-01 1.00000E-45
7.68650E-01 1.00000E-45
7.72320E-01 1.00000E-45
7.75968E-01 1.00000E-45
7.79596E-01 1.00000E-45
7.83203E-01 1.00000E-45
7.86788E-01 1.00000E-45
7.90351E-01 1.00000E-45
7.93893E-01 1.00000E-45
7.97411E-01 1.00000E-45
8.00908E-01 1.00000E-45
8.04381E-01 1.00000E-45
8.07831E-01 1.00000E-45
8.11257E-01 1.00000E-45
8.14660E-01 1.00000E-45
8.18039E-01 1.00000E-45
8.21394E-01 1.00000E-45
8.24724E-01 1.00000E-45
8.28030E-01 1.00000E-45
8.31310E-01 1.00000E-45
8.34565E-01 1.00000E-45
8.37795E-01 1.00000E-45
8.40999E-01 1.00000E-45
8.44177E-01 1.00000E-45
8.47329E-01 1.00000E-45
8.50455E-01 1.00000E-45
8.53553E-01 1.00000E-45
8.56625E-01 1.00000E-45
8.59670E-01 1.00000E-45
8.62687E-01 1.00000E-45
8.65677E-01 1.00000E-45
8.68639E-01 1.00000E-45
8.71572E-01 1.00000E-45
8.74478E-01 1.00000E-45
8.77355E-01 1.00000E-45
8.80203E-01 1.00000E-45
8.83022E-01 1.00000E-45
8.85812E-01 1.00000E-45
8.88573E-01 1.00000E-45
8.91304E-01 1.00000E-45
8.94005E-01 1.00000E-45
8.96677E-01 1.00000E-45
8.99318E-01 1.00000E-45
9.01928E-01 1.00000E-45
9.04508E-01 1.00000E-45
9.07058E-01 1.00000E-45
9.09576E-01 1.00000E-45
9.12063E-01 1.00000E-45
9.14519E-01 1.00000E-45
9.16943E-01 1.00000E-45
9.19335E-01 1.00000E-45
9.21696E-01 1.00000E-45
9.24024E-01 1.00000E-45
9.26320E-01 1.00000E-45
9.28584E-01 1.00000E-45
9.30815E-01 1.00000E-45
9.33013E-01 1.00000E-45
9.35178E-01 1.00000E-45
9.37310E-01 1.00000E-45
9.39409E-01 1.00000E-45
9.41474E-01 1.00000E-45
9.43505E-01 1.00000E-45
9.45503E-01 1.00000E-45
9.47467E-01 1.00000E-45
9.49397E-01 1.00000E-45
9.51293E-01 1.00000E-45
9.53154E-01 1.00000E-45
9.54981E-01 1.00000E-45
9.56773E-01 1.00000E-45
9.58530E-01 1.00000E-45
9.60252E-01 1.00000E-45
9.61940E-01 1.00000E-45
9.63592E-01 1.00000E-45
9.65209E-01 1.00000E-45
9.66790E-01 1.00000E-45
9.68336E-01 1.00000E-45
9.69846E-01 1.00000E-45
9.71321E-01 1.00000E-45
9.72759E-01 1.00000E-45
9.74162E-01 1.00000E-45
9.75528E-01 1.00000E-45
9.76858E-01 1.00000E-45
9.78152E-01 1.00000E-45
9.79410E-01 1.00000E-45
9.80631E-01 1.00000E-45
9.81815E-01 1.00000E-45
9.82963E-01 1.00000E-45
9.84074E-01 1.00000E-45
9.85148E-01 1.00000E-45
9.86185E-01 1.00000E-45
9.87185E-01 1.00000E-45
9.88148E-01 1.00000E-45
9.89074E-01 1.00000E-45
9.89962E-01 1.00000E-45
9.90814E-01 1.00000E-45
9.91627E-01 1.00000E-45
9.92404E-01 1.00000E-45
9.93143E-01 1.00000E-45
9.93844E-01 1.00000E-45
9.94508E-01 1.00000E-45
9.95134E-01 1.00000E-45
9.95722E-01 1.00000E-45
9.96273E-01 1.00000E-45
9.96786E-01 1.00000E-45
9.97261E-01 1.00000E-45
9.97698E-01 1.00000E-45
9.98097E-01 1.00000E-45
9.98459E-01 1.00000E-45
9.98782E-01 1.00000E-45
9.99067E-01 1.00000E-45
9.99315E-01 1.00000E-45
9.99524E-01 1.00000E-45
9.99695E-01 1.00000E-45
9.99829E-01 1.00000E-45
9.99924E-01 1.00000E-45
9.99981E-01 1.00000E-45
1.00000E+00 1.00000E-45
