 #
 # Subroutine ELSEPA. Elastic scattering of electrons and positrons
 #                    by neutral atoms and positive ions
 #
 # Projectile: electron
 # Kinetic energy = 6.00000E+08 eV = 2.20496E+07 a.u.
 #
 # WARNING: High-energy factorization with free-atom DF screening.
 #          Absorption, polarization and exchange corrections are
 #          switched off.
 #          Phase shifts are calculated for the bare nucleus.
 #          Scattering amplitudes are not evaluated.
 #
 # Element: Co,  Z =  27,  atomic weight = 5.89332E+01 g/mol
 #
 # Nuclear model: Fermi distribution
 #                Average radius = 4.16393E-13 cm
 #                Skin thickness = 5.46000E-14 cm
 #
 # Number of electrons = 27
 #
 # Total elastic cross section = 1.96121E-18 cm**2 = 7.00362E-02 a0**2
 # 1st transport cross section = 4.18672E-27 cm**2 = 1.49511E-10 a0**2
 # 2nd transport cross section = 1.25560E-26 cm**2 = 4.48382E-10 a0**2
 #
 #
 # Differential cross section:                       MU=(1-COS(THETA))/2
 #
 #  THETA        MU          DCS          DCS        Sherman      error
 #  (deg)                 (cm**2/sr)   (a0**2/sr)    function
 #----------------------------------------------------------------------
0.00000E+00 6.41391E-09
7.61557E-13 5.81785E-09
1.18994E-12 5.52162E-09
1.71346E-12 5.19234E-09
2.33225E-12 4.84368E-09
3.04617E-12 4.48815E-09
3.85530E-12 4.13611E-09
4.75964E-12 3.79569E-09
5.75917E-12 3.47249E-09
6.85391E-12 3.17024E-09
8.04379E-12 2.89131E-09
9.32893E-12 2.63628E-09
1.07092E-11 2.40477E-09
1.21847E-11 2.19568E-09
1.37554E-11 2.00751E-09
1.54213E-11 1.83850E-09
1.71823E-11 1.68688E-09
1.90386E-11 1.55083E-09
2.09900E-11 1.42869E-09
2.30367E-11 1.31876E-09
2.51785E-11 1.21973E-09
2.74156E-11 1.13036E-09
2.97478E-11 1.04951E-09
3.21752E-11 9.76185E-10
3.46979E-11 9.09515E-10
3.73157E-11 8.48738E-10
4.00286E-11 7.93189E-10
4.28368E-11 7.42291E-10
4.57402E-11 6.95542E-10
4.87388E-11 6.52485E-10
5.18325E-11 6.12699E-10
5.50215E-11 5.75915E-10
5.83057E-11 5.41844E-10
6.16850E-11 5.10226E-10
6.51595E-11 4.79567E-10
6.87293E-11 4.49963E-10
7.23943E-11 4.23104E-10
7.61544E-11 3.98682E-10
1.18991E-10 2.31693E-10
1.71347E-10 1.40071E-10
2.33223E-10 8.75103E-11
3.04617E-10 5.64795E-11
3.85531E-10 3.76789E-11
4.75965E-10 2.59756E-11
5.75917E-10 1.84744E-11
6.85389E-10 1.35234E-11
8.04380E-10 1.01583E-11
9.32891E-10 7.80380E-12
1.07092E-09 6.11170E-12
1.21847E-09 4.86588E-12
1.37554E-09 3.92871E-12
1.54213E-09 3.21042E-12
1.71823E-09 2.65041E-12
1.90386E-09 2.20777E-12
2.09900E-09 1.85372E-12
2.30367E-09 1.56724E-12
2.51785E-09 1.33344E-12
2.74156E-09 1.14108E-12
2.97478E-09 9.81630E-13
3.21752E-09 8.48600E-13
3.46978E-09 7.36960E-13
3.73156E-09 6.42772E-13
4.00286E-09 5.62916E-13
4.28368E-09 4.94897E-13
4.57402E-09 4.36703E-13
4.87388E-09 3.86699E-13
5.18326E-09 3.43549E-13
5.50215E-09 3.06187E-13
5.83057E-09 2.73719E-13
6.16850E-09 2.45406E-13
6.51596E-09 2.20602E-13
6.87293E-09 1.98825E-13
7.23942E-09 1.79705E-13
7.61544E-09 1.62860E-13
1.18991E-08 6.80656E-14
1.71347E-08 3.33474E-14
2.33223E-08 1.82408E-14
3.04617E-08 1.08092E-14
3.85531E-08 6.80684E-15
4.75965E-08 4.49667E-15
5.75917E-08 3.08787E-15
6.85389E-08 2.18942E-15
8.04380E-08 1.59484E-15
9.32891E-08 1.18882E-15
1.07092E-07 9.04015E-16
1.21847E-07 6.99502E-16
1.37554E-07 5.49623E-16
1.54213E-07 4.37780E-16
1.71823E-07 3.52965E-16
1.90386E-07 2.87711E-16
2.09900E-07 2.36851E-16
2.30367E-07 1.96742E-16
2.51785E-07 1.64769E-16
2.74156E-07 1.39031E-16
2.97478E-07 1.18125E-16
3.21752E-07 1.01003E-16
3.46978E-07 8.68729E-17
3.73156E-07 7.51283E-17
4.00286E-07 6.53023E-17
4.28368E-07 5.70310E-17
4.57402E-07 5.00284E-17
4.87388E-07 4.40680E-17
5.18325E-07 3.89692E-17
5.50215E-07 3.45868E-17
5.83057E-07 3.08033E-17
6.16850E-07 2.75232E-17
6.51596E-07 2.46683E-17
6.87293E-07 2.21741E-17
7.23942E-07 1.99872E-17
7.61543E-07 1.80634E-17
1.18991E-06 7.40219E-18
1.71347E-06 3.57074E-18
2.33223E-06 1.92780E-18
3.04617E-06 1.13023E-18
3.85531E-06 7.05708E-19
4.75964E-06 4.63081E-19
5.75916E-06 3.16334E-19
6.85388E-06 2.23382E-19
8.04378E-06 1.62202E-19
9.32888E-06 1.20607E-19
1.07092E-05 9.15320E-20
1.21846E-05 7.07150E-20
1.37553E-05 5.54944E-20
1.54212E-05 4.41578E-20
1.71822E-05 3.55743E-20
1.90385E-05 2.89774E-20
2.09899E-05 2.38452E-20
2.30365E-05 1.98003E-20
2.51783E-05 1.65772E-20
2.74153E-05 1.39836E-20
2.97475E-05 1.18777E-20
3.21749E-05 1.01538E-20
3.46974E-05 8.73181E-21
3.73152E-05 7.55054E-21
4.00281E-05 6.56267E-21
4.28362E-05 5.73132E-21
4.57395E-05 5.02758E-21
4.87380E-05 4.42859E-21
5.18317E-05 3.91618E-21
5.50205E-05 3.47575E-21
5.83045E-05 3.09554E-21
6.16838E-05 2.76595E-21
6.51582E-05 2.47911E-21
6.87277E-05 2.22855E-21
7.23925E-05 2.00889E-21
7.61524E-05 1.80064E-21
9.21439E-05 1.22771E-21
1.09658E-04 8.65055E-22
1.28695E-04 6.26596E-22
1.49255E-04 4.64621E-22
1.71338E-04 3.51543E-22
1.94942E-04 2.70683E-22
2.20070E-04 2.11648E-22
2.46720E-04 1.67749E-22
2.74892E-04 1.34568E-22
3.04586E-04 1.09123E-22
3.35803E-04 8.93523E-23
3.68542E-04 7.38088E-23
4.02802E-04 6.14570E-23
4.38585E-04 5.15453E-23
4.75889E-04 4.35206E-23
5.14715E-04 3.69699E-23
5.55063E-04 3.15822E-23
5.96931E-04 2.71199E-23
6.40321E-04 2.34002E-23
6.85233E-04 2.02808E-23
7.31665E-04 1.76502E-23
7.79618E-04 1.54202E-23
8.29092E-04 1.35205E-23
8.80086E-04 1.18949E-23
9.32601E-04 1.04978E-23
9.86636E-04 9.29228E-24
1.04219E-03 8.24810E-24
1.09927E-03 7.34042E-24
1.15786E-03 6.54874E-24
1.21797E-03 5.85604E-24
1.27961E-03 5.24810E-24
1.34276E-03 4.71303E-24
1.40743E-03 4.24081E-24
1.47362E-03 3.82299E-24
1.54133E-03 3.45240E-24
1.61056E-03 3.12292E-24
1.68131E-03 2.82936E-24
1.75357E-03 2.56724E-24
1.82735E-03 2.33273E-24
1.90265E-03 2.12250E-24
1.97947E-03 1.93371E-24
2.05780E-03 1.76388E-24
2.13765E-03 1.61083E-24
2.21902E-03 1.47269E-24
2.30190E-03 1.34783E-24
2.38630E-03 1.23479E-24
2.47222E-03 1.13231E-24
2.55965E-03 1.03929E-24
2.64859E-03 9.54739E-25
2.73905E-03 8.77793E-25
2.83103E-03 8.07687E-25
2.92452E-03 7.43738E-25
3.01952E-03 6.85344E-25
3.11604E-03 6.31966E-25
3.21407E-03 5.83124E-25
3.31362E-03 5.38391E-25
3.41468E-03 4.97382E-25
3.51725E-03 4.59754E-25
3.62133E-03 4.25200E-25
3.72692E-03 3.93442E-25
3.83403E-03 3.64232E-25
3.94265E-03 3.37344E-25
4.05278E-03 3.12577E-25
4.16442E-03 2.89747E-25
4.27757E-03 2.68690E-25
4.39223E-03 2.49254E-25
4.50840E-03 2.31305E-25
4.62608E-03 2.14719E-25
4.74527E-03 1.99383E-25
4.86597E-03 1.85197E-25
4.98817E-03 1.72067E-25
5.11188E-03 1.59908E-25
5.23711E-03 1.48644E-25
5.36383E-03 1.38205E-25
5.49207E-03 1.28524E-25
5.62181E-03 1.19545E-25
5.75306E-03 1.11212E-25
5.88581E-03 1.03476E-25
6.02007E-03 9.62926E-26
6.15583E-03 8.96194E-26
6.29310E-03 8.34184E-26
6.43187E-03 7.76545E-26
6.57214E-03 7.22953E-26
6.71392E-03 6.73111E-26
6.85720E-03 6.26745E-26
7.00198E-03 5.83602E-26
7.14827E-03 5.43450E-26
7.29605E-03 5.06074E-26
7.44534E-03 4.71274E-26
7.59612E-03 4.38868E-26
7.97965E-03 3.67244E-26
8.37255E-03 3.07233E-26
8.77480E-03 2.56919E-26
9.18641E-03 2.14717E-26
9.60736E-03 1.79307E-26
1.00376E-02 1.49595E-26
1.04773E-02 1.24667E-26
1.09262E-02 1.03758E-26
1.13844E-02 8.62289E-27
1.18520E-02 7.15428E-27
1.23288E-02 5.92489E-27
1.28150E-02 4.89683E-27
1.33104E-02 4.03819E-27
1.38150E-02 3.32207E-27
1.43290E-02 2.72580E-27
1.48521E-02 2.23023E-27
1.53845E-02 1.81923E-27
1.59262E-02 1.47915E-27
1.64770E-02 1.19848E-27
1.70371E-02 9.67523E-28
1.76063E-02 7.78068E-28
1.81848E-02 6.23208E-28
1.87724E-02 4.97120E-28
1.93692E-02 3.94900E-28
1.99751E-02 3.12426E-28
2.05901E-02 2.46237E-28
2.12143E-02 1.93431E-28
2.18476E-02 1.51581E-28
2.24900E-02 1.18658E-28
2.31415E-02 9.29750E-29
2.38021E-02 7.31284E-29
2.44717E-02 5.79574E-29
2.51504E-02 4.65040E-29
2.58382E-02 3.79808E-29
2.65349E-02 3.17441E-29
2.72407E-02 2.72699E-29
2.79555E-02 2.41345E-29
2.86793E-02 2.19978E-29
2.94120E-02 2.05886E-29
3.01537E-02 1.96931E-29
3.09043E-02 1.91445E-29
3.16639E-02 1.88146E-29
3.24324E-02 1.86064E-29
3.32098E-02 1.84486E-29
3.39961E-02 1.82898E-29
3.47912E-02 1.80950E-29
3.55952E-02 1.78419E-29
3.64081E-02 1.75180E-29
3.72297E-02 1.71182E-29
3.80602E-02 1.66430E-29
3.88995E-02 1.60969E-29
3.97476E-02 1.54872E-29
4.06044E-02 1.48229E-29
4.14700E-02 1.41141E-29
4.23443E-02 1.33710E-29
4.32273E-02 1.26041E-29
4.41190E-02 1.18232E-29
4.50194E-02 1.10376E-29
4.59284E-02 1.02556E-29
4.68461E-02 9.48473E-30
4.87074E-02 8.00175E-30
5.06030E-02 6.62932E-30
5.25328E-02 5.39367E-30
5.44967E-02 4.30840E-30
5.64946E-02 3.37691E-30
5.85262E-02 2.59478E-30
6.05914E-02 1.95211E-30
6.26901E-02 1.43541E-30
6.48222E-02 1.02931E-30
6.69873E-02 7.17782E-31
6.91854E-02 4.85159E-31
7.14163E-02 3.16750E-31
7.36799E-02 1.99289E-31
7.59760E-02 1.21165E-31
7.83043E-02 7.24934E-32
8.06647E-02 4.50897E-32
8.30571E-02 3.23581E-32
8.54812E-02 2.91350E-32
8.79369E-02 3.15057E-32
9.04240E-02 3.66134E-32
9.29422E-02 4.24709E-32
9.54915E-02 4.77853E-32
9.80716E-02 5.18009E-32
1.00682E-01 5.41618E-32
1.03323E-01 5.47968E-32
1.05995E-01 5.38249E-32
1.08696E-01 5.14810E-32
1.11427E-01 4.80583E-32
1.14188E-01 4.38664E-32
1.16978E-01 3.92026E-32
1.19797E-01 3.43326E-32
1.22645E-01 2.94801E-32
1.25522E-01 2.48226E-32
1.28428E-01 2.04914E-32
1.31361E-01 1.65751E-32
1.34323E-01 1.31240E-32
1.37313E-01 1.01572E-32
1.40330E-01 7.66849E-33
1.43375E-01 5.63247E-33
1.46447E-01 4.01071E-33
1.49545E-01 2.75649E-33
1.52671E-01 1.81907E-33
1.55823E-01 1.14705E-33
1.59001E-01 6.90879E-34
1.62205E-01 4.04727E-34
1.65435E-01 2.47616E-34
1.68690E-01 1.84076E-34
1.71970E-01 1.84354E-34
1.75276E-01 2.24292E-34
1.78606E-01 2.84966E-34
1.81961E-01 3.52165E-34
1.85340E-01 4.15788E-34
1.88743E-01 4.69187E-34
1.92169E-01 5.08531E-34
1.95619E-01 5.32192E-34
1.99092E-01 5.40192E-34
2.02589E-01 5.33722E-34
2.06107E-01 5.14727E-34
2.09649E-01 4.85571E-34
2.13212E-01 4.48773E-34
2.16797E-01 4.06807E-34
2.20404E-01 3.61961E-34
2.24032E-01 3.16245E-34
2.27680E-01 2.71339E-34
2.31350E-01 2.28577E-34
2.35040E-01 1.88949E-34
2.38751E-01 1.53127E-34
2.42481E-01 1.21499E-34
2.46231E-01 9.42123E-35
2.50000E-01 7.12159E-35
2.53788E-01 5.23063E-35
2.57595E-01 3.71685E-35
2.61421E-01 2.54136E-35
2.65264E-01 1.66119E-35
2.69126E-01 1.03187E-35
2.73005E-01 6.09718E-36
2.76901E-01 3.53404E-36
2.80814E-01 2.25132E-36
2.84744E-01 1.91362E-36
2.88691E-01 2.23209E-36
2.92653E-01 2.96534E-36
2.96632E-01 3.91809E-36
3.00625E-01 4.93815E-36
3.04634E-01 5.91237E-36
3.08658E-01 6.76176E-36
3.12697E-01 7.43639E-36
3.16749E-01 7.91021E-36
3.20816E-01 8.17614E-36
3.24896E-01 8.24154E-36
3.28990E-01 8.12404E-36
3.33097E-01 7.84811E-36
3.37216E-01 7.44205E-36
3.41348E-01 6.93558E-36
3.45492E-01 6.35798E-36
3.49647E-01 5.73670E-36
3.53814E-01 5.09637E-36
3.57992E-01 4.45823E-36
3.62181E-01 3.83986E-36
3.66381E-01 3.25506E-36
3.70590E-01 2.71408E-36
3.74810E-01 2.22385E-36
3.79039E-01 1.78831E-36
3.83277E-01 1.40893E-36
3.87524E-01 1.08505E-36
3.91780E-01 8.14343E-37
3.96044E-01 5.93252E-37
4.00316E-01 4.17350E-37
4.04596E-01 2.81650E-37
4.08882E-01 1.80924E-37
4.13176E-01 1.09905E-37
4.17476E-01 6.35001E-38
4.21783E-01 3.69138E-38
4.26095E-01 2.57607E-38
4.30413E-01 2.61236E-38
4.34737E-01 3.45957E-38
4.39065E-01 4.82835E-38
4.43398E-01 6.48001E-38
4.47736E-01 8.22356E-38
4.52077E-01 9.91193E-38
4.56422E-01 1.14376E-37
4.60770E-01 1.27269E-37
4.65122E-01 1.37358E-37
4.69476E-01 1.44438E-37
4.73832E-01 1.48498E-37
4.78190E-01 1.49670E-37
4.82550E-01 1.48199E-37
4.86912E-01 1.44397E-37
4.91274E-01 1.38619E-37
4.95637E-01 1.31242E-37
5.00000E-01 1.22641E-37
5.04363E-01 1.13174E-37
5.08726E-01 1.03175E-37
5.13088E-01 9.29432E-38
5.17450E-01 8.27388E-38
5.21810E-01 7.27848E-38
5.26168E-01 6.32585E-38
5.30524E-01 5.43005E-38
5.34878E-01 4.60126E-38
5.39230E-01 3.84626E-38
5.43578E-01 3.16877E-38
5.47923E-01 2.56985E-38
5.52264E-01 2.04834E-38
5.56602E-01 1.60143E-38
5.60935E-01 1.22478E-38
5.65263E-01 9.13075E-39
5.69587E-01 6.60488E-39
5.73905E-01 4.60713E-39
5.78217E-01 3.07350E-39
5.82524E-01 1.00000E-45
5.86824E-01 1.00000E-45
5.91118E-01 1.00000E-45
5.95404E-01 1.00000E-45
5.99684E-01 1.00000E-45
6.03956E-01 1.00000E-45
6.08220E-01 1.00000E-45
6.12476E-01 1.00000E-45
6.16723E-01 1.00000E-45
6.20961E-01 1.00000E-45
6.25190E-01 1.00000E-45
6.29410E-01 1.00000E-45
6.33619E-01 1.00000E-45
6.37819E-01 1.00000E-45
6.42008E-01 1.00000E-45
6.46186E-01 1.00000E-45
6.50353E-01 1.00000E-45
6.54508E-01 1.00000E-45
6.58652E-01 1.00000E-45
6.62784E-01 1.00000E-45
6.66903E-01 1.00000E-45
6.71010E-01 1.00000E-45
6.75104E-01 1.00000E-45
6.79184E-01 1.00000E-45
6.83251E-01 1.00000E-45
6.87303E-01 1.00000E-45
6.91342E-01 1.00000E-45
6.95366E-01 1.00000E-45
6.99375E-01 1.00000E-45
7.03368E-01 1.00000E-45
7.07347E-01 1.00000E-45
7.11309E-01 1.00000E-45
7.15256E-01 1.00000E-45
7.19186E-01 1.00000E-45
7.23099E-01 1.00000E-45
7.26995E-01 1.00000E-45
7.30874E-01 1.00000E-45
7.34736E-01 1.00000E-45
7.38579E-01 1.00000E-45
7.42405E-01 1.00000E-45
7.46212E-01 1.00000E-45
7.50000E-01 1.00000E-45
7.53769E-01 1.00000E-45
7.57519E-01 1.00000E-45
7.61249E-01 1.00000E-45
7.64960E-01 1.00000E-45
7.68650E-01 1.00000E-45
7.72320E-01 1.00000E-45
7.75968E-01 1.00000E-45
7.79596E-01 1.00000E-45
7.83203E-01 1.00000E-45
7.86788E-01 1.00000E-45
7.90351E-01 1.00000E-45
7.93893E-01 1.00000E-45
7.97411E-01 1.00000E-45
8.00908E-01 1.00000E-45
8.04381E-01 1.00000E-45
8.07831E-01 1.00000E-45
8.11257E-01 1.00000E-45
8.14660E-01 1.00000E-45
8.18039E-01 1.00000E-45
8.21394E-01 1.00000E-45
8.24724E-01 1.00000E-45
8.28030E-01 1.00000E-45
8.31310E-01 1.00000E-45
8.34565E-01 1.00000E-45
8.37795E-01 1.00000E-45
8.40999E-01 1.00000E-45
8.44177E-01 1.00000E-45
8.47329E-01 1.00000E-45
8.50455E-01 1.00000E-45
8.53553E-01 1.00000E-45
8.56625E-01 1.00000E-45
8.59670E-01 1.00000E-45
8.62687E-01 1.00000E-45
8.65677E-01 1.00000E-45
8.68639E-01 1.00000E-45
8.71572E-01 1.00000E-45
8.74478E-01 1.00000E-45
8.77355E-01 1.00000E-45
8.80203E-01 1.00000E-45
8.83022E-01 1.00000E-45
8.85812E-01 1.00000E-45
8.88573E-01 1.00000E-45
8.91304E-01 1.00000E-45
8.94005E-01 1.00000E-45
8.96677E-01 1.00000E-45
8.99318E-01 1.00000E-45
9.01928E-01 1.00000E-45
9.04508E-01 1.00000E-45
9.07058E-01 1.00000E-45
9.09576E-01 1.00000E-45
9.12063E-01 1.00000E-45
9.14519E-01 1.00000E-45
9.16943E-01 1.00000E-45
9.19335E-01 1.00000E-45
9.21696E-01 1.00000E-45
9.24024E-01 1.00000E-45
9.26320E-01 1.00000E-45
9.28584E-01 1.00000E-45
9.30815E-01 1.00000E-45
9.33013E-01 1.00000E-45
9.35178E-01 1.00000E-45
9.37310E-01 1.00000E-45
9.39409E-01 1.00000E-45
9.41474E-01 1.00000E-45
9.43505E-01 1.00000E-45
9.45503E-01 1.00000E-45
9.47467E-01 1.00000E-45
9.49397E-01 1.00000E-45
9.51293E-01 1.00000E-45
9.53154E-01 1.00000E-45
9.54981E-01 1.00000E-45
9.56773E-01 1.00000E-45
9.58530E-01 1.00000E-45
9.60252E-01 1.00000E-45
9.61940E-01 1.00000E-45
9.63592E-01 1.00000E-45
9.65209E-01 1.00000E-45
9.66790E-01 1.00000E-45
9.68336E-01 1.00000E-45
9.69846E-01 1.00000E-45
9.71321E-01 1.00000E-45
9.72759E-01 1.00000E-45
9.74162E-01 1.00000E-45
9.75528E-01 1.00000E-45
9.76858E-01 1.00000E-45
9.78152E-01 1.00000E-45
9.79410E-01 1.00000E-45
9.80631E-01 1.00000E-45
9.81815E-01 1.00000E-45
9.82963E-01 1.00000E-45
9.84074E-01 1.00000E-45
9.85148E-01 1.00000E-45
9.86185E-01 1.00000E-45
9.87185E-01 1.00000E-45
9.88148E-01 1.00000E-45
9.89074E-01 1.00000E-45
9.89962E-01 1.00000E-45
9.90814E-01 1.00000E-45
9.91627E-01 1.00000E-45
9.92404E-01 1.00000E-45
9.93143E-01 1.00000E-45
9.93844E-01 1.00000E-45
9.94508E-01 1.00000E-45
9.95134E-01 1.00000E-45
9.95722E-01 1.00000E-45
9.96273E-01 1.00000E-45
9.96786E-01 1.00000E-45
9.97261E-01 1.00000E-45
9.97698E-01 1.00000E-45
9.98097E-01 1.00000E-45
9.98459E-01 1.00000E-45
9.98782E-01 1.00000E-45
9.99067E-01 1.00000E-45
9.99315E-01 1.00000E-45
9.99524E-01 1.00000E-45
9.99695E-01 1.00000E-45
9.99829E-01 1.00000E-45
9.99924E-01 1.00000E-45
9.99981E-01 1.00000E-45
1.00000E+00 1.00000E-45
