 #
 # Subroutine ELSEPA. Elastic scattering of electrons and positrons
 #                    by neutral atoms and positive ions
 #
 # Projectile: electron
 # Kinetic energy = 3.00000E+08 eV = 1.10248E+07 a.u.
 #
 # WARNING: High-energy factorization with free-atom DF screening.
 #          Absorption, polarization and exchange corrections are
 #          switched off.
 #          Phase shifts are calculated for the bare nucleus.
 #          Scattering amplitudes are not evaluated.
 #
 # Element: Co,  Z =  27,  atomic weight = 5.89332E+01 g/mol
 #
 # Nuclear model: Fermi distribution
 #                Average radius = 4.16393E-13 cm
 #                Skin thickness = 5.46000E-14 cm
 #
 # Number of electrons = 27
 #
 # Total elastic cross section = 1.96568E-18 cm**2 = 7.01956E-02 a0**2
 # 1st transport cross section = 1.67248E-26 cm**2 = 5.97253E-10 a0**2
 # 2nd transport cross section = 5.01090E-26 cm**2 = 1.78943E-09 a0**2
 #
 #
 # Differential cross section:                       MU=(1-COS(THETA))/2
 #
 #  THETA        MU          DCS          DCS        Sherman      error
 #  (deg)                 (cm**2/sr)   (a0**2/sr)    function
 #----------------------------------------------------------------------
0.00000E+00 1.60621E-09
7.61557E-13 1.56657E-09
1.18994E-12 1.54498E-09
1.71346E-12 1.51925E-09
2.33225E-12 1.48973E-09
3.04617E-12 1.45671E-09
3.85530E-12 1.42094E-09
4.75964E-12 1.38243E-09
5.75917E-12 1.34213E-09
6.85391E-12 1.29986E-09
8.04379E-12 1.25667E-09
9.32893E-12 1.21246E-09
1.07092E-11 1.16797E-09
1.21847E-11 1.12335E-09
1.37554E-11 1.07893E-09
1.54213E-11 1.03513E-09
1.71823E-11 9.91883E-10
1.90386E-11 9.49837E-10
2.09900E-11 9.08576E-10
2.30367E-11 8.68863E-10
2.51785E-11 8.30199E-10
2.74156E-11 7.93165E-10
2.97478E-11 7.57456E-10
3.21752E-11 7.23316E-10
3.46979E-11 6.90660E-10
3.73157E-11 6.59467E-10
4.00286E-11 6.29824E-10
4.28368E-11 6.01514E-10
4.57402E-11 5.74752E-10
4.87388E-11 5.49182E-10
5.18325E-11 5.25065E-10
5.50215E-11 5.02089E-10
5.83057E-11 4.80396E-10
6.16850E-11 4.59799E-10
6.51595E-11 4.40311E-10
6.87293E-11 4.21860E-10
7.23943E-11 4.04356E-10
7.61544E-11 3.87824E-10
1.18991E-10 2.62415E-10
1.71347E-10 1.85581E-10
2.33223E-10 1.35447E-10
3.04617E-10 9.96428E-11
3.85531E-10 7.61935E-11
4.75965E-10 5.78929E-11
5.75917E-10 4.52086E-11
6.85389E-10 3.49911E-11
8.04380E-10 2.76473E-11
9.32891E-10 2.18566E-11
1.07092E-09 1.75033E-11
1.21847E-09 1.41042E-11
1.37554E-09 1.14688E-11
1.54213E-09 9.40827E-12
1.71823E-09 7.77480E-12
1.90386E-09 6.48559E-12
2.09900E-09 5.44561E-12
2.30367E-09 4.61238E-12
2.51785E-09 3.93166E-12
2.74156E-09 3.37633E-12
2.97478E-09 2.91725E-12
3.21752E-09 2.53623E-12
3.46978E-09 2.21727E-12
3.73156E-09 1.94841E-12
4.00286E-09 1.72069E-12
4.28368E-09 1.52596E-12
4.57402E-09 1.35933E-12
4.87388E-09 1.21492E-12
5.18326E-09 1.09013E-12
5.50215E-09 9.80927E-13
5.83057E-09 8.85582E-13
6.16850E-09 8.01584E-13
6.51596E-09 7.27453E-13
6.87293E-09 6.61752E-13
7.23942E-09 6.03256E-13
7.61544E-09 5.51228E-13
1.18991E-08 2.45060E-13
1.71347E-08 1.23540E-13
2.33223E-08 6.83237E-14
3.04617E-08 4.06520E-14
3.85531E-08 2.56572E-14
4.75965E-08 1.69898E-14
5.75917E-08 1.17011E-14
6.85389E-08 8.32392E-15
8.04380E-08 6.08555E-15
9.32891E-08 4.55315E-15
1.07092E-07 3.47482E-15
1.21847E-07 2.69816E-15
1.37554E-07 2.12686E-15
1.54213E-07 1.69911E-15
1.71823E-07 1.37369E-15
1.90386E-07 1.12245E-15
2.09900E-07 9.26085E-16
2.30367E-07 7.70790E-16
2.51785E-07 6.46666E-16
2.74156E-07 5.46526E-16
2.97478E-07 4.65004E-16
3.21752E-07 3.98107E-16
3.46978E-07 3.42805E-16
3.73156E-07 2.96759E-16
4.00286E-07 2.58182E-16
4.28368E-07 2.25666E-16
4.57402E-07 1.98101E-16
4.87388E-07 1.74616E-16
5.18325E-07 1.54504E-16
5.50215E-07 1.37203E-16
5.83057E-07 1.22254E-16
6.16850E-07 1.09284E-16
6.51596E-07 9.79876E-17
6.87293E-07 8.81124E-17
7.23942E-07 7.94488E-17
7.61543E-07 7.18235E-17
1.18991E-06 2.94901E-17
1.71347E-06 1.42387E-17
2.33223E-06 7.69097E-18
3.04617E-06 4.51033E-18
3.85531E-06 2.81669E-18
4.75964E-06 1.84850E-18
5.75916E-06 1.26282E-18
6.85388E-06 8.91804E-19
8.04378E-06 6.47581E-19
9.32888E-06 4.81531E-19
1.07092E-05 3.65457E-19
1.21846E-05 2.82347E-19
1.37553E-05 2.21578E-19
1.54212E-05 1.76316E-19
1.71822E-05 1.42044E-19
1.90385E-05 1.15705E-19
2.09899E-05 9.52130E-20
2.30365E-05 7.90621E-20
2.51783E-05 6.61928E-20
2.74153E-05 5.58366E-20
2.97475E-05 4.74280E-20
3.21749E-05 4.05446E-20
3.46974E-05 3.48668E-20
3.73152E-05 3.01500E-20
4.00281E-05 2.62054E-20
4.28362E-05 2.28858E-20
4.57395E-05 2.00758E-20
4.87380E-05 1.76840E-20
5.18317E-05 1.56379E-20
5.50205E-05 1.38792E-20
5.83045E-05 1.23610E-20
6.16838E-05 1.10449E-20
6.51582E-05 9.89953E-21
6.87277E-05 8.89901E-21
7.23925E-05 8.02189E-21
7.61524E-05 7.24053E-21
9.21439E-05 4.94567E-21
1.09658E-04 3.49187E-21
1.28695E-04 2.53501E-21
1.49255E-04 1.88437E-21
1.71338E-04 1.42962E-21
1.94942E-04 1.10401E-21
2.20070E-04 8.65960E-22
2.46720E-04 6.88672E-22
2.74892E-04 5.54448E-22
3.04586E-04 4.51336E-22
3.35803E-04 3.71066E-22
3.68542E-04 3.07832E-22
4.02802E-04 2.57476E-22
4.38585E-04 2.16977E-22
4.75889E-04 1.84109E-22
5.14715E-04 1.57212E-22
5.55063E-04 1.35031E-22
5.96931E-04 1.16609E-22
6.40321E-04 1.01207E-22
6.85233E-04 8.82524E-23
7.31665E-04 7.72925E-23
7.79618E-04 6.79710E-23
8.29092E-04 6.00029E-23
8.80086E-04 5.31597E-23
9.32601E-04 4.72565E-23
9.86636E-04 4.21430E-23
1.04219E-03 3.76960E-23
1.09927E-03 3.38142E-23
1.15786E-03 3.04140E-23
1.21797E-03 2.74255E-23
1.27961E-03 2.47906E-23
1.34276E-03 2.24605E-23
1.40743E-03 2.03940E-23
1.47362E-03 1.85562E-23
1.54133E-03 1.69177E-23
1.61056E-03 1.54530E-23
1.68131E-03 1.41408E-23
1.75357E-03 1.29624E-23
1.82735E-03 1.19019E-23
1.90265E-03 1.09455E-23
1.97947E-03 1.00813E-23
2.05780E-03 9.29888E-24
2.13765E-03 8.58919E-24
2.21902E-03 7.94433E-24
2.30190E-03 7.35738E-24
2.38630E-03 6.82227E-24
2.47222E-03 6.33364E-24
2.55965E-03 5.88679E-24
2.64859E-03 5.47753E-24
2.73905E-03 5.10218E-24
2.83103E-03 4.75745E-24
2.92452E-03 4.44042E-24
3.01952E-03 4.14851E-24
3.11604E-03 3.87938E-24
3.21407E-03 3.63097E-24
3.31362E-03 3.40141E-24
3.41468E-03 3.18903E-24
3.51725E-03 2.99234E-24
3.62133E-03 2.80999E-24
3.72692E-03 2.64075E-24
3.83403E-03 2.48353E-24
3.94265E-03 2.33734E-24
4.05278E-03 2.20128E-24
4.16442E-03 2.07453E-24
4.27757E-03 1.95635E-24
4.39223E-03 1.84606E-24
4.50840E-03 1.74306E-24
4.62608E-03 1.64678E-24
4.74527E-03 1.55672E-24
4.86597E-03 1.47241E-24
4.98817E-03 1.39342E-24
5.11188E-03 1.31937E-24
5.23711E-03 1.24990E-24
5.36383E-03 1.18468E-24
5.49207E-03 1.12340E-24
5.62181E-03 1.06580E-24
5.75306E-03 1.01162E-24
5.88581E-03 9.60625E-25
6.02007E-03 9.12596E-25
6.15583E-03 8.67337E-25
6.29310E-03 8.24662E-25
6.43187E-03 7.84403E-25
6.57214E-03 7.46401E-25
6.71392E-03 7.10511E-25
6.85720E-03 6.76598E-25
7.00198E-03 6.44537E-25
7.14827E-03 6.14212E-25
7.29605E-03 5.85515E-25
7.44534E-03 5.58346E-25
7.59612E-03 5.32611E-25
7.97965E-03 4.73997E-25
8.37255E-03 4.22623E-25
8.77480E-03 3.77479E-25
9.18641E-03 3.37714E-25
9.60736E-03 3.02608E-25
1.00376E-02 2.71547E-25
1.04773E-02 2.44009E-25
1.09262E-02 2.19546E-25
1.13844E-02 1.97777E-25
1.18520E-02 1.78370E-25
1.23288E-02 1.61040E-25
1.28150E-02 1.45541E-25
1.33104E-02 1.31658E-25
1.38150E-02 1.19206E-25
1.43290E-02 1.08022E-25
1.48521E-02 9.79643E-26
1.53845E-02 8.89083E-26
1.59262E-02 8.07450E-26
1.64770E-02 7.33784E-26
1.70371E-02 6.67238E-26
1.76063E-02 6.07067E-26
1.81848E-02 5.52609E-26
1.87724E-02 5.03277E-26
1.93692E-02 4.58554E-26
1.99751E-02 4.17975E-26
2.05901E-02 3.81131E-26
2.12143E-02 3.47653E-26
2.18476E-02 3.17214E-26
2.24900E-02 2.89522E-26
2.31415E-02 2.64313E-26
2.38021E-02 2.41353E-26
2.44717E-02 2.20430E-26
2.51504E-02 2.01354E-26
2.58382E-02 1.83955E-26
2.65349E-02 1.68079E-26
2.72407E-02 1.53586E-26
2.79555E-02 1.40352E-26
2.86793E-02 1.28263E-26
2.94120E-02 1.17217E-26
3.01537E-02 1.07121E-26
3.09043E-02 9.78922E-27
3.16639E-02 8.94534E-27
3.24324E-02 8.17357E-27
3.32098E-02 7.46763E-27
3.39961E-02 6.82184E-27
3.47912E-02 6.23099E-27
3.55952E-02 5.69038E-27
3.64081E-02 5.19569E-27
3.72297E-02 4.74301E-27
3.80602E-02 4.32876E-27
3.88995E-02 3.94970E-27
3.97476E-02 3.60284E-27
4.06044E-02 3.28546E-27
4.14700E-02 2.99508E-27
4.23443E-02 2.72944E-27
4.32273E-02 2.48645E-27
4.41190E-02 2.26422E-27
4.50194E-02 2.06101E-27
4.59284E-02 1.87522E-27
4.68461E-02 1.70541E-27
4.87074E-02 1.40847E-27
5.06030E-02 1.16079E-27
5.25328E-02 9.54469E-28
5.44967E-02 7.82860E-28
5.64946E-02 6.40372E-28
5.85262E-02 5.22294E-28
6.05914E-02 4.24661E-28
6.26901E-02 3.44129E-28
6.48222E-02 2.77884E-28
6.69873E-02 2.23556E-28
6.91854E-02 1.79150E-28
7.14163E-02 1.42989E-28
7.36799E-02 1.13661E-28
7.59760E-02 8.99841E-29
7.83043E-02 7.09652E-29
8.06647E-02 5.57736E-29
8.30571E-02 4.37151E-29
8.54812E-02 3.42107E-29
8.79369E-02 2.67786E-29
9.04240E-02 2.10189E-29
9.29422E-02 1.66008E-29
9.54915E-02 1.32515E-29
9.80716E-02 1.07468E-29
1.00682E-01 8.90327E-30
1.03323E-01 7.57167E-30
1.05995E-01 6.63113E-30
1.08696E-01 5.98446E-30
1.11427E-01 5.55406E-30
1.14188E-01 5.27852E-30
1.16978E-01 5.10977E-30
1.19797E-01 5.01064E-30
1.22645E-01 4.95282E-30
1.25522E-01 4.91520E-30
1.28428E-01 4.88246E-30
1.31361E-01 4.84386E-30
1.34323E-01 4.79228E-30
1.37313E-01 4.72343E-30
1.40330E-01 4.63519E-30
1.43375E-01 4.52704E-30
1.46447E-01 4.39968E-30
1.49545E-01 4.25462E-30
1.52671E-01 4.09394E-30
1.55823E-01 3.92004E-30
1.59001E-01 3.73553E-30
1.62205E-01 3.54300E-30
1.65435E-01 3.34501E-30
1.68690E-01 3.14397E-30
1.71970E-01 2.94214E-30
1.75276E-01 2.74151E-30
1.78606E-01 2.54390E-30
1.81961E-01 2.35084E-30
1.85340E-01 2.16365E-30
1.88743E-01 1.98341E-30
1.92169E-01 1.81099E-30
1.95619E-01 1.64706E-30
1.99092E-01 1.49208E-30
2.02589E-01 1.34638E-30
2.06107E-01 1.21010E-30
2.09649E-01 1.08329E-30
2.13212E-01 9.65853E-31
2.16797E-01 8.57622E-31
2.20404E-01 7.58338E-31
2.24032E-01 6.67681E-31
2.27680E-01 5.85278E-31
2.31350E-01 5.10721E-31
2.35040E-01 4.43572E-31
2.38751E-01 3.83376E-31
2.42481E-01 3.29668E-31
2.46231E-01 2.81980E-31
2.50000E-01 2.39848E-31
2.53788E-01 2.02820E-31
2.57595E-01 1.70453E-31
2.61421E-01 1.42322E-31
2.65264E-01 1.18022E-31
2.69126E-01 9.71685E-32
2.73005E-01 7.93992E-32
2.76901E-01 6.43755E-32
2.80814E-01 5.17822E-32
2.84744E-01 4.13282E-32
2.88691E-01 3.27457E-32
2.92653E-01 2.57897E-32
2.96632E-01 2.02377E-32
3.00625E-01 1.58883E-32
3.04634E-01 1.25604E-32
3.08658E-01 1.00920E-32
3.12697E-01 8.33913E-33
3.16749E-01 7.17453E-33
3.20816E-01 6.48639E-33
3.24896E-01 6.17720E-33
3.28990E-01 6.16251E-33
3.33097E-01 6.36977E-33
3.37216E-01 6.73719E-33
3.41348E-01 7.21266E-33
3.45492E-01 7.75274E-33
3.49647E-01 8.32171E-33
3.53814E-01 8.89065E-33
3.57992E-01 9.43661E-33
3.62181E-01 9.94184E-33
3.66381E-01 1.03931E-32
3.70590E-01 1.07811E-32
3.74810E-01 1.10996E-32
3.79039E-01 1.13454E-32
3.83277E-01 1.15173E-32
3.87524E-01 1.16162E-32
3.91780E-01 1.16444E-32
3.96044E-01 1.16054E-32
4.00316E-01 1.15035E-32
4.04596E-01 1.13437E-32
4.08882E-01 1.11316E-32
4.13176E-01 1.08727E-32
4.17476E-01 1.05729E-32
4.21783E-01 1.02379E-32
4.26095E-01 9.87349E-33
4.30413E-01 9.48506E-33
4.34737E-01 9.07783E-33
4.39065E-01 8.65668E-33
4.43398E-01 8.22615E-33
4.47736E-01 7.79042E-33
4.52077E-01 7.35328E-33
4.56422E-01 6.91815E-33
4.60770E-01 6.48805E-33
4.65122E-01 6.06563E-33
4.69476E-01 5.65320E-33
4.73832E-01 5.25271E-33
4.78190E-01 4.86578E-33
4.82550E-01 4.49373E-33
4.86912E-01 4.13761E-33
4.91274E-01 3.79819E-33
4.95637E-01 3.47603E-33
5.00000E-01 3.17146E-33
5.04363E-01 2.88461E-33
5.08726E-01 2.61548E-33
5.13088E-01 2.36388E-33
5.17450E-01 2.12951E-33
5.21810E-01 1.91198E-33
5.26168E-01 1.71078E-33
5.30524E-01 1.52534E-33
5.34878E-01 1.35503E-33
5.39230E-01 1.19917E-33
5.43578E-01 1.05706E-33
5.47923E-01 9.27942E-34
5.52264E-01 8.11084E-34
5.56602E-01 7.05730E-34
5.60935E-01 6.11128E-34
5.65263E-01 5.26539E-34
5.69587E-01 4.51235E-34
5.73905E-01 3.84511E-34
5.78217E-01 3.25682E-34
5.82524E-01 2.74092E-34
5.86824E-01 2.29111E-34
5.91118E-01 1.90143E-34
5.95404E-01 1.56619E-34
5.99684E-01 1.28008E-34
6.03956E-01 1.03806E-34
6.08220E-01 8.35454E-35
6.12476E-01 6.67908E-35
6.16723E-01 5.31379E-35
6.20961E-01 4.22136E-35
6.25190E-01 3.36752E-35
6.29410E-01 2.72084E-35
6.33619E-01 2.25271E-35
6.37819E-01 1.93714E-35
6.42008E-01 1.75061E-35
6.46186E-01 1.67200E-35
6.50353E-01 1.68236E-35
6.54508E-01 1.76482E-35
6.58652E-01 1.90441E-35
6.62784E-01 2.08796E-35
6.66903E-01 2.30393E-35
6.71010E-01 2.54226E-35
6.75104E-01 2.79430E-35
6.79184E-01 3.05265E-35
6.83251E-01 3.31102E-35
6.87303E-01 3.56417E-35
6.91342E-01 3.80779E-35
6.95366E-01 4.03836E-35
6.99375E-01 4.25313E-35
7.03368E-01 4.44998E-35
7.07347E-01 4.62737E-35
7.11309E-01 4.78423E-35
7.15256E-01 4.91997E-35
7.19186E-01 5.03434E-35
7.23099E-01 5.12740E-35
7.26995E-01 5.19951E-35
7.30874E-01 5.25122E-35
7.34736E-01 5.28326E-35
7.38579E-01 5.29654E-35
7.42405E-01 5.29204E-35
7.46212E-01 5.27086E-35
7.50000E-01 5.23413E-35
7.53769E-01 5.18304E-35
7.57519E-01 5.11879E-35
7.61249E-01 5.04259E-35
7.64960E-01 4.95563E-35
7.68650E-01 4.85909E-35
7.72320E-01 4.75409E-35
7.75968E-01 4.64174E-35
7.79596E-01 4.52311E-35
7.83203E-01 4.39918E-35
7.86788E-01 4.27092E-35
7.90351E-01 4.13922E-35
7.93893E-01 4.00490E-35
7.97411E-01 3.86876E-35
8.00908E-01 3.73150E-35
8.04381E-01 3.59378E-35
8.07831E-01 3.45621E-35
8.11257E-01 3.31934E-35
8.14660E-01 3.18366E-35
8.18039E-01 3.04960E-35
8.21394E-01 2.91756E-35
8.24724E-01 2.78788E-35
8.28030E-01 2.66086E-35
8.31310E-01 2.53677E-35
8.34565E-01 2.41580E-35
8.37795E-01 2.29816E-35
8.40999E-01 2.18398E-35
8.44177E-01 2.07339E-35
8.47329E-01 1.96647E-35
8.50455E-01 1.86329E-35
8.53553E-01 1.76387E-35
8.56625E-01 1.66825E-35
8.59670E-01 1.57642E-35
8.62687E-01 1.48836E-35
8.65677E-01 1.40403E-35
8.68639E-01 1.32338E-35
8.71572E-01 1.24636E-35
8.74478E-01 1.17290E-35
8.77355E-01 1.10291E-35
8.80203E-01 1.03631E-35
8.83022E-01 9.73015E-36
8.85812E-01 9.12918E-36
8.88573E-01 8.55921E-36
8.91304E-01 8.01910E-36
8.94005E-01 7.50796E-36
8.96677E-01 7.02459E-36
8.99318E-01 6.56801E-36
9.01928E-01 6.13703E-36
9.04508E-01 5.73061E-36
9.07058E-01 5.34768E-36
9.09576E-01 4.98724E-36
9.12063E-01 4.64817E-36
9.14519E-01 4.32953E-36
9.16943E-01 4.03028E-36
9.19335E-01 3.74948E-36
9.21696E-01 3.48617E-36
9.24024E-01 3.23943E-36
9.26320E-01 3.00843E-36
9.28584E-01 2.79226E-36
9.30815E-01 2.59015E-36
9.33013E-01 2.40128E-36
9.35178E-01 2.22490E-36
9.37310E-01 2.06031E-36
9.39409E-01 1.90684E-36
9.41474E-01 1.76378E-36
9.43505E-01 1.63054E-36
9.45503E-01 1.50649E-36
9.47467E-01 1.39106E-36
9.49397E-01 1.28374E-36
9.51293E-01 1.18401E-36
9.53154E-01 1.09137E-36
9.54981E-01 1.00537E-36
9.56773E-01 9.25577E-37
9.58530E-01 8.51601E-37
9.60252E-01 7.83022E-37
9.61940E-01 7.19494E-37
9.63592E-01 6.60678E-37
9.65209E-01 6.06231E-37
9.66790E-01 5.55892E-37
9.68336E-01 5.09351E-37
9.69846E-01 4.66340E-37
9.71321E-01 4.26621E-37
9.72759E-01 3.89938E-37
9.74162E-01 3.56113E-37
9.75528E-01 3.24911E-37
9.76858E-01 2.96138E-37
9.78152E-01 2.69635E-37
9.79410E-01 2.45232E-37
9.80631E-01 2.22779E-37
9.81815E-01 2.02105E-37
9.82963E-01 1.83107E-37
9.84074E-01 1.65642E-37
9.85148E-01 1.49601E-37
9.86185E-01 1.34880E-37
9.87185E-01 1.21361E-37
9.88148E-01 1.08980E-37
9.89074E-01 9.76240E-38
9.89962E-01 8.72473E-38
9.90814E-01 7.77382E-38
9.91627E-01 6.90431E-38
9.92404E-01 6.11058E-38
9.93143E-01 5.38699E-38
9.93844E-01 4.72714E-38
9.94508E-01 4.12768E-38
9.95134E-01 3.58275E-38
9.95722E-01 3.08892E-38
9.96273E-01 2.64312E-38
9.96786E-01 2.24063E-38
9.97261E-01 1.87978E-38
9.97698E-01 1.55683E-38
9.98097E-01 1.27022E-38
9.98459E-01 1.01658E-38
9.98782E-01 7.95146E-39
9.99067E-01 6.03775E-39
9.99315E-01 4.39709E-39
9.99524E-01 3.03956E-39
9.99695E-01 1.93797E-39
9.99829E-01 1.09368E-39
9.99924E-01 4.93745E-40
9.99981E-01 1.33212E-40
1.00000E+00 1.51968E-41
