 #
 # Subroutine ELSEPA. Elastic scattering of electrons and positrons
 #                    by neutral atoms and positive ions
 #
 # Projectile: electron
 # Kinetic energy = 5.00000E+06 eV = 1.83747E+05 a.u.
 #
 # WARNING: High-energy factorization with free-atom DF screening.
 #          Absorption, polarization and exchange corrections are
 #          switched off.
 #          Phase shifts are calculated for the bare nucleus.
 #          Scattering amplitudes are not evaluated.
 #
 # Element: Co,  Z =  27,  atomic weight = 5.89332E+01 g/mol
 #
 # Nuclear model: Fermi distribution
 #                Average radius = 4.16393E-13 cm
 #                Skin thickness = 5.46000E-14 cm
 #
 # Number of electrons = 27
 #
 # Total elastic cross section = 1.98701E-18 cm**2 = 7.09575E-02 a0**2
 # 1st transport cross section = 3.80707E-23 cm**2 = 1.35953E-06 a0**2
 # 2nd transport cross section = 1.08056E-22 cm**2 = 3.85874E-06 a0**2
 #
 #
 # Differential cross section:                       MU=(1-COS(THETA))/2
 #
 #  THETA        MU          DCS          DCS        Sherman      error
 #  (deg)                 (cm**2/sr)   (a0**2/sr)    function
 #----------------------------------------------------------------------
0.00000E+00 5.40183E-13
7.61557E-13 5.40179E-13
1.18994E-12 5.40176E-13
1.71346E-12 5.40173E-13
2.33225E-12 5.40170E-13
3.04617E-12 5.40165E-13
3.85530E-12 5.40160E-13
4.75964E-12 5.40155E-13
5.75917E-12 5.40149E-13
6.85391E-12 5.40143E-13
8.04379E-12 5.40136E-13
9.32893E-12 5.40128E-13
1.07092E-11 5.40120E-13
1.21847E-11 5.40111E-13
1.37554E-11 5.40102E-13
1.54213E-11 5.40092E-13
1.71823E-11 5.40081E-13
1.90386E-11 5.40070E-13
2.09900E-11 5.40059E-13
2.30367E-11 5.40046E-13
2.51785E-11 5.40034E-13
2.74156E-11 5.40020E-13
2.97478E-11 5.40006E-13
3.21752E-11 5.39992E-13
3.46979E-11 5.39977E-13
3.73157E-11 5.39961E-13
4.00286E-11 5.39945E-13
4.28368E-11 5.39929E-13
4.57402E-11 5.39911E-13
4.87388E-11 5.39894E-13
5.18325E-11 5.39875E-13
5.50215E-11 5.39856E-13
5.83057E-11 5.39837E-13
6.16850E-11 5.39817E-13
6.51595E-11 5.39796E-13
6.87293E-11 5.39775E-13
7.23943E-11 5.39753E-13
7.61544E-11 5.39731E-13
1.18991E-10 5.39476E-13
1.71347E-10 5.39165E-13
2.33223E-10 5.38798E-13
3.04617E-10 5.38376E-13
3.85531E-10 5.37897E-13
4.75965E-10 5.37363E-13
5.75917E-10 5.36774E-13
6.85389E-10 5.36130E-13
8.04380E-10 5.35431E-13
9.32891E-10 5.34678E-13
1.07092E-09 5.33871E-13
1.21847E-09 5.33011E-13
1.37554E-09 5.32098E-13
1.54213E-09 5.31132E-13
1.71823E-09 5.30114E-13
1.90386E-09 5.29045E-13
2.09900E-09 5.27924E-13
2.30367E-09 5.26753E-13
2.51785E-09 5.25532E-13
2.74156E-09 5.24262E-13
2.97478E-09 5.22943E-13
3.21752E-09 5.21576E-13
3.46978E-09 5.20161E-13
3.73156E-09 5.18700E-13
4.00286E-09 5.17193E-13
4.28368E-09 5.15640E-13
4.57402E-09 5.14043E-13
4.87388E-09 5.12402E-13
5.18326E-09 5.10717E-13
5.50215E-09 5.08991E-13
5.83057E-09 5.07223E-13
6.16850E-09 5.05414E-13
6.51596E-09 5.03565E-13
6.87293E-09 5.01677E-13
7.23942E-09 4.99751E-13
7.61544E-09 4.97787E-13
1.18991E-08 4.76286E-13
1.71347E-08 4.52023E-13
2.33223E-08 4.25901E-13
3.04617E-08 3.98772E-13
3.85531E-08 3.71395E-13
4.75965E-08 3.44403E-13
5.75917E-08 3.18292E-13
6.85389E-08 2.93424E-13
8.04380E-08 2.70043E-13
9.32891E-08 2.48283E-13
1.07092E-07 2.28199E-13
1.21847E-07 2.09780E-13
1.37554E-07 1.92970E-13
1.54213E-07 1.77681E-13
1.71823E-07 1.63808E-13
1.90386E-07 1.51238E-13
2.09900E-07 1.39854E-13
2.30367E-07 1.29543E-13
2.51785E-07 1.20197E-13
2.74156E-07 1.11716E-13
2.97478E-07 1.04009E-13
3.21752E-07 9.69926E-14
3.46978E-07 9.05928E-14
3.73156E-07 8.47434E-14
4.00286E-07 7.93853E-14
4.28368E-07 7.44668E-14
4.57402E-07 6.99418E-14
4.87388E-07 6.57701E-14
5.18325E-07 6.19161E-14
5.50215E-07 5.83484E-14
5.83057E-07 5.50393E-14
6.16850E-07 5.19645E-14
6.51596E-07 4.91024E-14
6.87293E-07 4.64340E-14
7.23942E-07 4.39423E-14
7.61543E-07 4.16124E-14
1.18991E-06 2.48417E-14
1.71347E-06 1.53981E-14
2.33223E-06 9.82421E-15
3.04617E-06 6.44284E-15
3.85531E-06 4.34547E-15
4.75964E-06 3.01523E-15
5.75916E-06 2.15129E-15
6.85388E-06 1.57600E-15
8.04378E-06 1.18301E-15
9.32888E-06 9.07661E-16
1.07092E-05 7.09987E-16
1.21846E-05 5.64798E-16
1.37553E-05 4.55899E-16
1.54212E-05 3.72659E-16
1.71822E-05 3.07950E-16
1.90385E-05 2.56892E-16
2.09899E-05 2.16076E-16
2.30365E-05 1.83074E-16
2.51783E-05 1.56122E-16
2.74153E-05 1.33916E-16
2.97475E-05 1.15479E-16
3.21749E-05 1.00066E-16
3.46974E-05 8.71009E-17
3.73152E-05 7.61339E-17
4.00281E-05 6.68100E-17
4.28362E-05 5.88456E-17
4.57395E-05 5.20130E-17
4.87380E-05 4.61273E-17
5.18317E-05 4.10381E-17
5.50205E-05 3.66214E-17
5.83045E-05 3.27752E-17
6.16838E-05 2.94148E-17
6.51582E-05 2.64696E-17
6.87277E-05 2.38804E-17
7.23925E-05 2.15975E-17
7.61524E-05 1.95792E-17
9.21439E-05 1.35164E-17
1.09658E-04 9.62643E-18
1.28695E-04 7.04201E-18
1.49255E-04 5.27172E-18
1.71338E-04 4.02623E-18
1.94942E-04 3.12913E-18
2.20070E-04 2.46947E-18
2.46720E-04 1.97544E-18
2.74892E-04 1.59939E-18
3.04586E-04 1.30895E-18
3.35803E-04 1.08169E-18
3.68542E-04 9.01769E-19
4.02802E-04 7.57801E-19
4.38585E-04 6.41479E-19
4.75889E-04 5.46660E-19
5.14715E-04 4.68738E-19
5.55063E-04 4.04221E-19
5.96931E-04 3.50432E-19
6.40321E-04 3.05299E-19
6.85233E-04 2.67202E-19
7.31665E-04 2.34864E-19
7.79618E-04 2.07273E-19
8.29092E-04 1.83615E-19
8.80086E-04 1.63238E-19
9.32601E-04 1.45609E-19
9.86636E-04 1.30297E-19
1.04219E-03 1.16945E-19
1.09927E-03 1.05260E-19
1.15786E-03 9.49992E-20
1.21797E-03 8.59585E-20
1.27961E-03 7.79681E-20
1.34276E-03 7.08852E-20
1.40743E-03 6.45889E-20
1.47362E-03 5.89766E-20
1.54133E-03 5.39611E-20
1.61056E-03 4.94679E-20
1.68131E-03 4.54331E-20
1.75357E-03 4.18017E-20
1.82735E-03 3.85263E-20
1.90265E-03 3.55657E-20
1.97947E-03 3.28845E-20
2.05780E-03 3.04515E-20
2.13765E-03 2.82396E-20
2.21902E-03 2.62253E-20
2.30190E-03 2.43876E-20
2.38630E-03 2.27083E-20
2.47222E-03 2.11713E-20
2.55965E-03 1.97624E-20
2.64859E-03 1.84690E-20
2.73905E-03 1.72798E-20
2.83103E-03 1.61850E-20
2.92452E-03 1.51758E-20
3.01952E-03 1.42441E-20
3.11604E-03 1.33830E-20
3.21407E-03 1.25861E-20
3.31362E-03 1.18478E-20
3.41468E-03 1.11629E-20
3.51725E-03 1.05270E-20
3.62133E-03 9.93576E-21
3.72692E-03 9.38558E-21
3.83403E-03 8.87306E-21
3.94265E-03 8.39513E-21
4.05278E-03 7.94904E-21
4.16442E-03 7.53227E-21
4.27757E-03 7.14253E-21
4.39223E-03 6.77774E-21
4.50840E-03 6.43601E-21
4.62608E-03 6.11562E-21
4.74527E-03 5.81497E-21
4.86597E-03 5.53262E-21
4.98817E-03 5.26726E-21
5.11188E-03 5.01767E-21
5.23711E-03 4.78273E-21
5.36383E-03 4.56143E-21
5.49207E-03 4.35282E-21
5.62181E-03 4.15603E-21
5.75306E-03 3.97029E-21
5.88581E-03 3.79483E-21
6.02007E-03 3.62900E-21
6.15583E-03 3.47216E-21
6.29310E-03 3.32373E-21
6.43187E-03 3.18317E-21
6.57214E-03 3.04999E-21
6.71392E-03 2.92373E-21
6.85720E-03 2.80396E-21
7.00198E-03 2.69028E-21
7.14827E-03 2.58233E-21
7.29605E-03 2.47976E-21
7.44534E-03 2.38225E-21
7.59612E-03 2.28950E-21
7.97965E-03 2.07671E-21
8.37255E-03 1.88816E-21
8.77480E-03 1.72061E-21
9.18641E-03 1.57131E-21
9.60736E-03 1.43792E-21
1.00376E-02 1.31845E-21
1.04773E-02 1.21118E-21
1.09262E-02 1.11464E-21
1.13844E-02 1.02757E-21
1.18520E-02 9.48879E-22
1.23288E-02 8.77608E-22
1.28150E-02 8.12933E-22
1.33104E-02 7.54134E-22
1.38150E-02 7.00579E-22
1.43290E-02 6.51716E-22
1.48521E-02 6.07059E-22
1.53845E-02 5.66179E-22
1.59262E-02 5.28700E-22
1.64770E-02 4.94285E-22
1.70371E-02 4.62638E-22
1.76063E-02 4.33496E-22
1.81848E-02 4.06624E-22
1.87724E-02 3.81811E-22
1.93692E-02 3.58872E-22
1.99751E-02 3.37639E-22
2.05901E-02 3.17960E-22
2.12143E-02 2.99701E-22
2.18476E-02 2.82741E-22
2.24900E-02 2.66969E-22
2.31415E-02 2.52287E-22
2.38021E-02 2.38606E-22
2.44717E-02 2.25844E-22
2.51504E-02 2.13929E-22
2.58382E-02 2.02792E-22
2.65349E-02 1.92375E-22
2.72407E-02 1.82621E-22
2.79555E-02 1.73481E-22
2.86793E-02 1.64908E-22
2.94120E-02 1.56861E-22
3.01537E-02 1.49301E-22
3.09043E-02 1.42193E-22
3.16639E-02 1.35506E-22
3.24324E-02 1.29209E-22
3.32098E-02 1.23275E-22
3.39961E-02 1.17679E-22
3.47912E-02 1.12399E-22
3.55952E-02 1.07413E-22
3.64081E-02 1.02702E-22
3.72297E-02 9.82478E-23
3.80602E-02 9.40334E-23
3.88995E-02 9.00435E-23
3.97476E-02 8.62640E-23
4.06044E-02 8.26817E-23
4.14700E-02 7.92841E-23
4.23443E-02 7.60601E-23
4.32273E-02 7.29990E-23
4.41190E-02 7.00911E-23
4.50194E-02 6.73271E-23
4.59284E-02 6.46986E-23
4.68461E-02 6.21976E-23
4.87074E-02 5.75493E-23
5.06030E-02 5.33289E-23
5.25328E-02 4.94897E-23
5.44967E-02 4.59910E-23
5.64946E-02 4.27972E-23
5.85262E-02 3.98767E-23
6.05914E-02 3.72018E-23
6.26901E-02 3.47482E-23
6.48222E-02 3.24940E-23
6.69873E-02 3.04202E-23
6.91854E-02 2.85095E-23
7.14163E-02 2.67468E-23
7.36799E-02 2.51185E-23
7.59760E-02 2.36125E-23
7.83043E-02 2.22178E-23
8.06647E-02 2.09246E-23
8.30571E-02 1.97243E-23
8.54812E-02 1.86088E-23
8.79369E-02 1.75712E-23
9.04240E-02 1.66048E-23
9.29422E-02 1.57040E-23
9.54915E-02 1.48633E-23
9.80716E-02 1.40782E-23
1.00682E-01 1.33441E-23
1.03323E-01 1.26572E-23
1.05995E-01 1.20138E-23
1.08696E-01 1.14107E-23
1.11427E-01 1.08449E-23
1.14188E-01 1.03136E-23
1.16978E-01 9.81429E-24
1.19797E-01 9.34475E-24
1.22645E-01 8.90284E-24
1.25522E-01 8.48662E-24
1.28428E-01 8.09432E-24
1.31361E-01 7.72430E-24
1.34323E-01 7.37506E-24
1.37313E-01 7.04521E-24
1.40330E-01 6.73346E-24
1.43375E-01 6.43865E-24
1.46447E-01 6.15967E-24
1.49545E-01 5.89551E-24
1.52671E-01 5.64523E-24
1.55823E-01 5.40797E-24
1.59001E-01 5.18292E-24
1.62205E-01 4.96933E-24
1.65435E-01 4.76652E-24
1.68690E-01 4.57382E-24
1.71970E-01 4.39065E-24
1.75276E-01 4.21644E-24
1.78606E-01 4.05067E-24
1.81961E-01 3.89286E-24
1.85340E-01 3.74254E-24
1.88743E-01 3.59930E-24
1.92169E-01 3.46274E-24
1.95619E-01 3.33249E-24
1.99092E-01 3.20820E-24
2.02589E-01 3.08955E-24
2.06107E-01 2.97623E-24
2.09649E-01 2.86797E-24
2.13212E-01 2.76448E-24
2.16797E-01 2.66552E-24
2.20404E-01 2.57086E-24
2.24032E-01 2.48027E-24
2.27680E-01 2.39355E-24
2.31350E-01 2.31049E-24
2.35040E-01 2.23092E-24
2.38751E-01 2.15466E-24
2.42481E-01 2.08154E-24
2.46231E-01 2.01142E-24
2.50000E-01 1.94414E-24
2.53788E-01 1.87958E-24
2.57595E-01 1.81759E-24
2.61421E-01 1.75806E-24
2.65264E-01 1.70087E-24
2.69126E-01 1.64592E-24
2.73005E-01 1.59310E-24
2.76901E-01 1.54230E-24
2.80814E-01 1.49345E-24
2.84744E-01 1.44644E-24
2.88691E-01 1.40120E-24
2.92653E-01 1.35765E-24
2.96632E-01 1.31571E-24
3.00625E-01 1.27532E-24
3.04634E-01 1.23641E-24
3.08658E-01 1.19890E-24
3.12697E-01 1.16274E-24
3.16749E-01 1.12788E-24
3.20816E-01 1.09426E-24
3.24896E-01 1.06182E-24
3.28990E-01 1.03052E-24
3.33097E-01 1.00031E-24
3.37216E-01 9.71143E-25
3.41348E-01 9.42978E-25
3.45492E-01 9.15775E-25
3.49647E-01 8.89494E-25
3.53814E-01 8.64098E-25
3.57992E-01 8.39552E-25
3.62181E-01 8.15822E-25
3.66381E-01 7.92877E-25
3.70590E-01 7.70685E-25
3.74810E-01 7.49218E-25
3.79039E-01 7.28447E-25
3.83277E-01 7.08345E-25
3.87524E-01 6.88888E-25
3.91780E-01 6.70051E-25
3.96044E-01 6.51810E-25
4.00316E-01 6.34144E-25
4.04596E-01 6.17030E-25
4.08882E-01 6.00449E-25
4.13176E-01 5.84381E-25
4.17476E-01 5.68807E-25
4.21783E-01 5.53709E-25
4.26095E-01 5.39071E-25
4.30413E-01 5.24875E-25
4.34737E-01 5.11106E-25
4.39065E-01 4.97748E-25
4.43398E-01 4.84789E-25
4.47736E-01 4.72212E-25
4.52077E-01 4.60006E-25
4.56422E-01 4.48157E-25
4.60770E-01 4.36653E-25
4.65122E-01 4.25482E-25
4.69476E-01 4.14632E-25
4.73832E-01 4.04094E-25
4.78190E-01 3.93856E-25
4.82550E-01 3.83909E-25
4.86912E-01 3.74243E-25
4.91274E-01 3.64848E-25
4.95637E-01 3.55715E-25
5.00000E-01 3.46837E-25
5.04363E-01 3.38204E-25
5.08726E-01 3.29808E-25
5.13088E-01 3.21643E-25
5.17450E-01 3.13701E-25
5.21810E-01 3.05974E-25
5.26168E-01 2.98456E-25
5.30524E-01 2.91140E-25
5.34878E-01 2.84020E-25
5.39230E-01 2.77090E-25
5.43578E-01 2.70343E-25
5.47923E-01 2.63775E-25
5.52264E-01 2.57379E-25
5.56602E-01 2.51150E-25
5.60935E-01 2.45084E-25
5.65263E-01 2.39175E-25
5.69587E-01 2.33419E-25
5.73905E-01 2.27811E-25
5.78217E-01 2.22347E-25
5.82524E-01 2.17021E-25
5.86824E-01 2.11831E-25
5.91118E-01 2.06773E-25
5.95404E-01 2.01841E-25
5.99684E-01 1.97034E-25
6.03956E-01 1.92346E-25
6.08220E-01 1.87775E-25
6.12476E-01 1.83318E-25
6.16723E-01 1.78970E-25
6.20961E-01 1.74730E-25
6.25190E-01 1.70593E-25
6.29410E-01 1.66557E-25
6.33619E-01 1.62619E-25
6.37819E-01 1.58777E-25
6.42008E-01 1.55028E-25
6.46186E-01 1.51368E-25
6.50353E-01 1.47796E-25
6.54508E-01 1.44310E-25
6.58652E-01 1.40907E-25
6.62784E-01 1.37584E-25
6.66903E-01 1.34340E-25
6.71010E-01 1.31172E-25
6.75104E-01 1.28078E-25
6.79184E-01 1.25057E-25
6.83251E-01 1.22107E-25
6.87303E-01 1.19225E-25
6.91342E-01 1.16409E-25
6.95366E-01 1.13659E-25
6.99375E-01 1.10972E-25
7.03368E-01 1.08347E-25
7.07347E-01 1.05782E-25
7.11309E-01 1.03275E-25
7.15256E-01 1.00826E-25
7.19186E-01 9.84316E-26
7.23099E-01 9.60918E-26
7.26995E-01 9.38049E-26
7.30874E-01 9.15694E-26
7.34736E-01 8.93841E-26
7.38579E-01 8.72477E-26
7.42405E-01 8.51591E-26
7.46212E-01 8.31170E-26
7.50000E-01 8.11202E-26
7.53769E-01 7.91678E-26
7.57519E-01 7.72586E-26
7.61249E-01 7.53915E-26
7.64960E-01 7.35656E-26
7.68650E-01 7.17798E-26
7.72320E-01 7.00332E-26
7.75968E-01 6.83249E-26
7.79596E-01 6.66538E-26
7.83203E-01 6.50193E-26
7.86788E-01 6.34203E-26
7.90351E-01 6.18562E-26
7.93893E-01 6.03259E-26
7.97411E-01 5.88289E-26
8.00908E-01 5.73642E-26
8.04381E-01 5.59312E-26
8.07831E-01 5.45292E-26
8.11257E-01 5.31574E-26
8.14660E-01 5.18151E-26
8.18039E-01 5.05017E-26
8.21394E-01 4.92166E-26
8.24724E-01 4.79590E-26
8.28030E-01 4.67285E-26
8.31310E-01 4.55243E-26
8.34565E-01 4.43460E-26
8.37795E-01 4.31929E-26
8.40999E-01 4.20646E-26
8.44177E-01 4.09604E-26
8.47329E-01 3.98798E-26
8.50455E-01 3.88224E-26
8.53553E-01 3.77877E-26
8.56625E-01 3.67751E-26
8.59670E-01 3.57843E-26
8.62687E-01 3.48147E-26
8.65677E-01 3.38659E-26
8.68639E-01 3.29374E-26
8.71572E-01 3.20290E-26
8.74478E-01 3.11401E-26
8.77355E-01 3.02704E-26
8.80203E-01 2.94194E-26
8.83022E-01 2.85869E-26
8.85812E-01 2.77723E-26
8.88573E-01 2.69755E-26
8.91304E-01 2.61959E-26
8.94005E-01 2.54334E-26
8.96677E-01 2.46875E-26
8.99318E-01 2.39580E-26
9.01928E-01 2.32445E-26
9.04508E-01 2.25467E-26
9.07058E-01 2.18644E-26
9.09576E-01 2.11972E-26
9.12063E-01 2.05448E-26
9.14519E-01 1.99070E-26
9.16943E-01 1.92836E-26
9.19335E-01 1.86742E-26
9.21696E-01 1.80787E-26
9.24024E-01 1.74967E-26
9.26320E-01 1.69280E-26
9.28584E-01 1.63725E-26
9.30815E-01 1.58298E-26
9.33013E-01 1.52998E-26
9.35178E-01 1.47822E-26
9.37310E-01 1.42768E-26
9.39409E-01 1.37835E-26
9.41474E-01 1.33020E-26
9.43505E-01 1.28321E-26
9.45503E-01 1.23737E-26
9.47467E-01 1.19266E-26
9.49397E-01 1.14906E-26
9.51293E-01 1.10655E-26
9.53154E-01 1.06511E-26
9.54981E-01 1.02474E-26
9.56773E-01 9.85410E-27
9.58530E-01 9.47110E-27
9.60252E-01 9.09825E-27
9.61940E-01 8.73540E-27
9.63592E-01 8.38241E-27
9.65209E-01 8.03915E-27
9.66790E-01 7.70549E-27
9.68336E-01 7.38129E-27
9.69846E-01 7.06645E-27
9.71321E-01 6.76083E-27
9.72759E-01 6.46432E-27
9.74162E-01 6.17682E-27
9.75528E-01 5.89821E-27
9.76858E-01 5.62839E-27
9.78152E-01 5.36726E-27
9.79410E-01 5.11472E-27
9.80631E-01 4.87068E-27
9.81815E-01 4.63505E-27
9.82963E-01 4.40774E-27
9.84074E-01 4.18866E-27
9.85148E-01 3.97774E-27
9.86185E-01 3.77489E-27
9.87185E-01 3.58005E-27
9.88148E-01 3.39314E-27
9.89074E-01 3.21410E-27
9.89962E-01 3.04285E-27
9.90814E-01 2.87934E-27
9.91627E-01 2.72351E-27
9.92404E-01 2.57529E-27
9.93143E-01 2.43464E-27
9.93844E-01 2.30150E-27
9.94508E-01 2.17584E-27
9.95134E-01 2.05759E-27
9.95722E-01 1.94672E-27
9.96273E-01 1.84319E-27
9.96786E-01 1.74696E-27
9.97261E-01 1.65799E-27
9.97698E-01 1.57626E-27
9.98097E-01 1.50174E-27
9.98459E-01 1.43439E-27
9.98782E-01 1.37420E-27
9.99067E-01 1.32114E-27
9.99315E-01 1.27519E-27
9.99524E-01 1.23634E-27
9.99695E-01 1.20457E-27
9.99829E-01 1.17987E-27
9.99924E-01 1.16224E-27
9.99981E-01 1.15166E-27
1.00000E+00 1.14813E-27
