 #
 # Subroutine ELSEPA. Elastic scattering of electrons and positrons
 #                    by neutral atoms and positive ions
 #
 # Projectile: positron
 # Kinetic energy = 2.50000E+08 eV = 9.18733E+06 a.u.
 #
 # WARNING: High-energy factorization with free-atom DF screening.
 #          Absorption, polarization and exchange corrections are
 #          switched off.
 #          Phase shifts are calculated for the bare nucleus.
 #          Scattering amplitudes are not evaluated.
 #
 # Element: At,  Z =  85,  atomic weight = 2.09987E+02 g/mol
 #
 # Nuclear model: Fermi distribution
 #                Average radius = 6.35987E-13 cm
 #                Skin thickness = 5.46000E-14 cm
 #
 # Number of electrons = 85
 #
 # Total elastic cross section = 9.37355E-18 cm**2 = 3.34736E-01 a0**2
 # 1st transport cross section = 2.12587E-25 cm**2 = 7.59164E-09 a0**2
 # 2nd transport cross section = 6.36715E-25 cm**2 = 2.27375E-08 a0**2
 #
 #
 # Differential cross section:                       MU=(1-COS(THETA))/2
 #
 #  THETA        MU          DCS          DCS        Sherman      error
 #  (deg)                 (cm**2/sr)   (a0**2/sr)    function
 #----------------------------------------------------------------------
0.00000E+00 4.07359E-09
7.61557E-13 4.02578E-09
1.18994E-12 3.99932E-09
1.71346E-12 3.96735E-09
2.33225E-12 3.93009E-09
3.04617E-12 3.88779E-09
3.85530E-12 3.84053E-09
4.75964E-12 3.78866E-09
5.75917E-12 3.73339E-09
6.85391E-12 3.67321E-09
8.04379E-12 3.61069E-09
9.32893E-12 3.54389E-09
1.07092E-11 3.47529E-09
1.21847E-11 3.40354E-09
1.37554E-11 3.33019E-09
1.54213E-11 3.25500E-09
1.71823E-11 3.17822E-09
1.90386E-11 3.10100E-09
2.09900E-11 3.02203E-09
2.30367E-11 2.94406E-09
2.51785E-11 2.86408E-09
2.74156E-11 2.78604E-09
2.97478E-11 2.70649E-09
3.21752E-11 2.62894E-09
3.46979E-11 2.55110E-09
3.73157E-11 2.47485E-09
4.00286E-11 2.39941E-09
4.28368E-11 2.32513E-09
4.57402E-11 2.25264E-09
4.87388E-11 2.18087E-09
5.18325E-11 2.11168E-09
5.50215E-11 2.04283E-09
5.83057E-11 1.97705E-09
6.16850E-11 1.91155E-09
6.51595E-11 1.84896E-09
6.87293E-11 1.78736E-09
7.23943E-11 1.72810E-09
7.61544E-11 1.67039E-09
1.18991E-10 1.18979E-09
1.71347E-10 8.57562E-10
2.33223E-10 6.31444E-10
3.04617E-10 4.75669E-10
3.85531E-10 3.64560E-10
4.75965E-10 2.84016E-10
5.75917E-10 2.28323E-10
6.85389E-10 1.82680E-10
8.04380E-10 1.49900E-10
9.32891E-10 1.22864E-10
1.07092E-09 1.02308E-10
1.21847E-09 8.55516E-11
1.37554E-09 7.21876E-11
1.54213E-09 6.13572E-11
1.71823E-09 5.24270E-11
1.90386E-09 4.51804E-11
2.09900E-09 3.90572E-11
2.30367E-09 3.40612E-11
2.51785E-09 2.97520E-11
2.74156E-09 2.61973E-11
2.97478E-09 2.31025E-11
3.21752E-09 2.05006E-11
3.46978E-09 1.82339E-11
3.73156E-09 1.62875E-11
4.00286E-09 1.45907E-11
4.28368E-09 1.31065E-11
4.57402E-09 1.18124E-11
4.87388E-09 1.06624E-11
5.18326E-09 9.65963E-12
5.50215E-09 8.75655E-12
5.83057E-09 7.96772E-12
6.16850E-09 7.25218E-12
6.51596E-09 6.62192E-12
6.87293E-09 6.05235E-12
7.23942E-09 5.54457E-12
7.61544E-09 5.08691E-12
1.18991E-08 2.33999E-12
1.71347E-08 1.22700E-12
2.33223E-08 7.06723E-13
3.04617E-08 4.36453E-13
3.85531E-08 2.83879E-13
4.75965E-08 1.92751E-13
5.75917E-08 1.35511E-13
6.85389E-08 9.80729E-14
8.04380E-08 7.27349E-14
9.32891E-08 5.50783E-14
1.07092E-07 4.24521E-14
1.21847E-07 3.32392E-14
1.37554E-07 2.63912E-14
1.54213E-07 2.12168E-14
1.71823E-07 1.72492E-14
1.90386E-07 1.41668E-14
2.09900E-07 1.17431E-14
2.30367E-07 9.81607E-15
2.51785E-07 8.26892E-15
2.74156E-07 7.01548E-15
2.97478E-07 5.99120E-15
3.21752E-07 5.14757E-15
3.46978E-07 4.44756E-15
3.73156E-07 3.86279E-15
4.00286E-07 3.37103E-15
4.28368E-07 2.95513E-15
4.57402E-07 2.60148E-15
4.87388E-07 2.29919E-15
5.18325E-07 2.03955E-15
5.50215E-07 1.81554E-15
5.83057E-07 1.62143E-15
6.16850E-07 1.45254E-15
6.51596E-07 1.30504E-15
6.87293E-07 1.17577E-15
7.23942E-07 1.06211E-15
7.61543E-07 9.61826E-16
1.18991E-06 4.00117E-16
1.71347E-06 1.94807E-16
2.33223E-06 1.05853E-16
3.04617E-06 6.23608E-17
3.85531E-06 3.90857E-17
4.75964E-06 2.57261E-17
5.75916E-06 1.76172E-17
6.85388E-06 1.24657E-17
8.04378E-06 9.06648E-18
9.32888E-06 6.75061E-18
1.07092E-05 5.12893E-18
1.21846E-05 3.96607E-18
1.37553E-05 3.11474E-18
1.54212E-05 2.47996E-18
1.71822E-05 1.99887E-18
1.90385E-05 1.62783E-18
2.09899E-05 1.34084E-18
2.30365E-05 1.11414E-18
2.51783E-05 9.33049E-19
2.74153E-05 7.87040E-19
2.97475E-05 6.68377E-19
3.21749E-05 5.71239E-19
3.46974E-05 4.91165E-19
3.73152E-05 4.24699E-19
4.00281E-05 3.69146E-19
4.28362E-05 3.22401E-19
4.57395E-05 2.82819E-19
4.87380E-05 2.49110E-19
5.18317E-05 2.20258E-19
5.50205E-05 1.95450E-19
5.83045E-05 1.74031E-19
6.16838E-05 1.55468E-19
6.51582E-05 1.39317E-19
6.87277E-05 1.25213E-19
7.23925E-05 1.12852E-19
7.61524E-05 1.02247E-19
9.21439E-05 6.98602E-20
1.09658E-04 4.93391E-20
1.28695E-04 3.58326E-20
1.49255E-04 2.66474E-20
1.71338E-04 2.02264E-20
1.94942E-04 1.56286E-20
2.20070E-04 1.22663E-20
2.46720E-04 9.76155E-21
2.74892E-04 7.86486E-21
3.04586E-04 6.40717E-21
3.35803E-04 5.27211E-21
3.68542E-04 4.37755E-21
4.02802E-04 3.66492E-21
4.38585E-04 3.09173E-21
4.75889E-04 2.62585E-21
5.14715E-04 2.24441E-21
5.55063E-04 1.92965E-21
5.96931E-04 1.66808E-21
6.40321E-04 1.44926E-21
6.85233E-04 1.26506E-21
7.31665E-04 1.10913E-21
7.79618E-04 9.76402E-22
8.29092E-04 8.62866E-22
8.80086E-04 7.65279E-22
9.32601E-04 6.81030E-22
9.86636E-04 6.07992E-22
1.04219E-03 5.44420E-22
1.09927E-03 4.88884E-22
1.15786E-03 4.40192E-22
1.21797E-03 3.97361E-22
1.27961E-03 3.59565E-22
1.34276E-03 3.26110E-22
1.40743E-03 2.96414E-22
1.47362E-03 2.69980E-22
1.54133E-03 2.46391E-22
1.61056E-03 2.25287E-22
1.68131E-03 2.06361E-22
1.75357E-03 1.89351E-22
1.82735E-03 1.74028E-22
1.90265E-03 1.60197E-22
1.97947E-03 1.47688E-22
2.05780E-03 1.36352E-22
2.13765E-03 1.26061E-22
2.21902E-03 1.16701E-22
2.30190E-03 1.08174E-22
2.38630E-03 1.00394E-22
2.47222E-03 9.32830E-23
2.55965E-03 8.67743E-23
2.64859E-03 8.08080E-23
2.73905E-03 7.53313E-23
2.83103E-03 7.02971E-23
2.92452E-03 6.56636E-23
3.01952E-03 6.13935E-23
3.11604E-03 5.74535E-23
3.21407E-03 5.38137E-23
3.31362E-03 5.04474E-23
3.41468E-03 4.73307E-23
3.51725E-03 4.44418E-23
3.62133E-03 4.17614E-23
3.72692E-03 3.92719E-23
3.83403E-03 3.69575E-23
3.94265E-03 3.48038E-23
4.05278E-03 3.27977E-23
4.16442E-03 3.09276E-23
4.27757E-03 2.91827E-23
4.39223E-03 2.75532E-23
4.50840E-03 2.60303E-23
4.62608E-03 2.46059E-23
4.74527E-03 2.32725E-23
4.86597E-03 2.20234E-23
4.98817E-03 2.08525E-23
5.11188E-03 1.97540E-23
5.23711E-03 1.87228E-23
5.36383E-03 1.77541E-23
5.49207E-03 1.68435E-23
5.62181E-03 1.59870E-23
5.75306E-03 1.51808E-23
5.88581E-03 1.44216E-23
6.02007E-03 1.37062E-23
6.15583E-03 1.30317E-23
6.29310E-03 1.23954E-23
6.43187E-03 1.17947E-23
6.57214E-03 1.12275E-23
6.71392E-03 1.06915E-23
6.85720E-03 1.01848E-23
7.00198E-03 9.70555E-24
7.14827E-03 9.25202E-24
7.29605E-03 8.82266E-24
7.44534E-03 8.41597E-24
7.59612E-03 8.03059E-24
7.97965E-03 7.15221E-24
8.37255E-03 6.38156E-24
8.77480E-03 5.70374E-24
9.18641E-03 5.10618E-24
9.60736E-03 4.57820E-24
1.00376E-02 4.11070E-24
1.04773E-02 3.69595E-24
1.09262E-02 3.32729E-24
1.13844E-02 2.99901E-24
1.18520E-02 2.70619E-24
1.23288E-02 2.44459E-24
1.28150E-02 2.21051E-24
1.33104E-02 2.00076E-24
1.38150E-02 1.81255E-24
1.43290E-02 1.64345E-24
1.48521E-02 1.49133E-24
1.53845E-02 1.35431E-24
1.59262E-02 1.23077E-24
1.64770E-02 1.11926E-24
1.70371E-02 1.01850E-24
1.76063E-02 9.27370E-25
1.81848E-02 8.44875E-25
1.87724E-02 7.70132E-25
1.93692E-02 7.02355E-25
1.99751E-02 6.40848E-25
2.05901E-02 5.84988E-25
2.12143E-02 5.34222E-25
2.18476E-02 4.88053E-25
2.24900E-02 4.46040E-25
2.31415E-02 4.07785E-25
2.38021E-02 3.72932E-25
2.44717E-02 3.41161E-25
2.51504E-02 3.12185E-25
2.58382E-02 2.85746E-25
2.65349E-02 2.61611E-25
2.72407E-02 2.39569E-25
2.79555E-02 2.19431E-25
2.86793E-02 2.01026E-25
2.94120E-02 1.84198E-25
3.01537E-02 1.68807E-25
3.09043E-02 1.54727E-25
3.16639E-02 1.41841E-25
3.24324E-02 1.30046E-25
3.32098E-02 1.19247E-25
3.39961E-02 1.09356E-25
3.47912E-02 1.00297E-25
3.55952E-02 9.19965E-26
3.64081E-02 8.43906E-26
3.72297E-02 7.74200E-26
3.80602E-02 7.10307E-26
3.88995E-02 6.51733E-26
3.97476E-02 5.98030E-26
4.06044E-02 5.48789E-26
4.14700E-02 5.03634E-26
4.23443E-02 4.62223E-26
4.32273E-02 4.24243E-26
4.41190E-02 3.89408E-26
4.50194E-02 3.57457E-26
4.59284E-02 3.28149E-26
4.68461E-02 3.01266E-26
4.87074E-02 2.53986E-26
5.06030E-02 2.14202E-26
5.25328E-02 1.80728E-26
5.44967E-02 1.52565E-26
5.64946E-02 1.28873E-26
5.85262E-02 1.08944E-26
6.05914E-02 9.21821E-27
6.26901E-02 7.80854E-27
6.48222E-02 6.62306E-27
6.69873E-02 5.62610E-27
6.91854E-02 4.78758E-27
7.14163E-02 4.08218E-27
7.36799E-02 3.48854E-27
7.59760E-02 2.98871E-27
7.83043E-02 2.56754E-27
8.06647E-02 2.21232E-27
8.30571E-02 1.91236E-27
8.54812E-02 1.65867E-27
8.79369E-02 1.44372E-27
9.04240E-02 1.26120E-27
9.29422E-02 1.10581E-27
9.54915E-02 9.73132E-28
9.80716E-02 8.59470E-28
1.00682E-01 7.61741E-28
1.03323E-01 6.77373E-28
1.05995E-01 6.04226E-28
1.08696E-01 5.40521E-28
1.11427E-01 4.84779E-28
1.14188E-01 4.35773E-28
1.16978E-01 3.92484E-28
1.19797E-01 3.54068E-28
1.22645E-01 3.19824E-28
1.25522E-01 2.89173E-28
1.28428E-01 2.61631E-28
1.31361E-01 2.36798E-28
1.34323E-01 2.14339E-28
1.37313E-01 1.93975E-28
1.40330E-01 1.75472E-28
1.43375E-01 1.58631E-28
1.46447E-01 1.43283E-28
1.49545E-01 1.29286E-28
1.52671E-01 1.16515E-28
1.55823E-01 1.04862E-28
1.59001E-01 9.42322E-29
1.62205E-01 8.45420E-29
1.65435E-01 7.57161E-29
1.68690E-01 6.76865E-29
1.71970E-01 6.03914E-29
1.75276E-01 5.37742E-29
1.78606E-01 4.77825E-29
1.81961E-01 4.23678E-29
1.85340E-01 3.74847E-29
1.88743E-01 3.30911E-29
1.92169E-01 2.91473E-29
1.95619E-01 2.56162E-29
1.99092E-01 2.24629E-29
2.02589E-01 1.96549E-29
2.06107E-01 1.71615E-29
2.09649E-01 1.49540E-29
2.13212E-01 1.30059E-29
2.16797E-01 1.12921E-29
2.20404E-01 9.78949E-30
2.24032E-01 8.47661E-30
2.27680E-01 7.33360E-30
2.31350E-01 6.34216E-30
2.35040E-01 5.48544E-30
2.38751E-01 4.74806E-30
2.42481E-01 4.11592E-30
2.46231E-01 3.57625E-30
2.50000E-01 3.11743E-30
2.53788E-01 2.72901E-30
2.57595E-01 2.40155E-30
2.61421E-01 2.12662E-30
2.65264E-01 1.89671E-30
2.69126E-01 1.70513E-30
2.73005E-01 1.54597E-30
2.76901E-01 1.41406E-30
2.80814E-01 1.30485E-30
2.84744E-01 1.21438E-30
2.88691E-01 1.13925E-30
2.92653E-01 1.07652E-30
2.96632E-01 1.02369E-30
3.00625E-01 9.78637E-31
3.04634E-01 9.39595E-31
3.08658E-01 9.05086E-31
3.12697E-01 8.73902E-31
3.16749E-01 8.45065E-31
3.20816E-01 8.17796E-31
3.24896E-01 7.91488E-31
3.28990E-01 7.65681E-31
3.33097E-01 7.40040E-31
3.37216E-01 7.14331E-31
3.41348E-01 6.88408E-31
3.45492E-01 6.62194E-31
3.49647E-01 6.35668E-31
3.53814E-01 6.08853E-31
3.57992E-01 5.81805E-31
3.62181E-01 5.54604E-31
3.66381E-01 5.27349E-31
3.70590E-01 5.00148E-31
3.74810E-01 4.73113E-31
3.79039E-01 4.46359E-31
3.83277E-01 4.19998E-31
3.87524E-01 3.94136E-31
3.91780E-01 3.68871E-31
3.96044E-01 3.44294E-31
4.00316E-01 3.20485E-31
4.04596E-01 2.97512E-31
4.08882E-01 2.75435E-31
4.13176E-01 2.54300E-31
4.17476E-01 2.34146E-31
4.21783E-01 2.14997E-31
4.26095E-01 1.96872E-31
4.30413E-01 1.79778E-31
4.34737E-01 1.63715E-31
4.39065E-01 1.48673E-31
4.43398E-01 1.34639E-31
4.47736E-01 1.21591E-31
4.52077E-01 1.09503E-31
4.56422E-01 9.83438E-32
4.60770E-01 8.80796E-32
4.65122E-01 7.86728E-32
4.69476E-01 7.00835E-32
4.73832E-01 6.22704E-32
4.78190E-01 5.51908E-32
4.82550E-01 4.88012E-32
4.86912E-01 4.30581E-32
4.91274E-01 3.79181E-32
4.95637E-01 3.33385E-32
5.00000E-01 2.92773E-32
5.04363E-01 2.56936E-32
5.08726E-01 2.25479E-32
5.13088E-01 1.98023E-32
5.17450E-01 1.74204E-32
5.21810E-01 1.53678E-32
5.26168E-01 1.36117E-32
5.30524E-01 1.21213E-32
5.34878E-01 1.08678E-32
5.39230E-01 9.82425E-33
5.43578E-01 8.96571E-33
5.47923E-01 8.26904E-33
5.52264E-01 7.71299E-33
5.56602E-01 7.27809E-33
5.60935E-01 6.94660E-33
5.65263E-01 6.70242E-33
5.69587E-01 6.53104E-33
5.73905E-01 6.41943E-33
5.78217E-01 6.35597E-33
5.82524E-01 6.33035E-33
5.86824E-01 6.33349E-33
5.91118E-01 6.35745E-33
5.95404E-01 6.39535E-33
5.99684E-01 6.44127E-33
6.03956E-01 6.49018E-33
6.08220E-01 6.53785E-33
6.12476E-01 6.58079E-33
6.16723E-01 6.61618E-33
6.20961E-01 6.64176E-33
6.25190E-01 6.65584E-33
6.29410E-01 6.65713E-33
6.33619E-01 6.64482E-33
6.37819E-01 6.61839E-33
6.42008E-01 6.57769E-33
6.46186E-01 6.52278E-33
6.50353E-01 6.45398E-33
6.54508E-01 6.37175E-33
6.58652E-01 6.27677E-33
6.62784E-01 6.16977E-33
6.66903E-01 6.05160E-33
6.71010E-01 5.92320E-33
6.75104E-01 5.78554E-33
6.79184E-01 5.63961E-33
6.83251E-01 5.48642E-33
6.87303E-01 5.32700E-33
6.91342E-01 5.16232E-33
6.95366E-01 4.99338E-33
6.99375E-01 4.82111E-33
7.03368E-01 4.64642E-33
7.07347E-01 4.47016E-33
7.11309E-01 4.29315E-33
7.15256E-01 4.11614E-33
7.19186E-01 3.93985E-33
7.23099E-01 3.76492E-33
7.26995E-01 3.59194E-33
7.30874E-01 3.42145E-33
7.34736E-01 3.25395E-33
7.38579E-01 3.08986E-33
7.42405E-01 2.92956E-33
7.46212E-01 2.77338E-33
7.50000E-01 2.62159E-33
7.53769E-01 2.47445E-33
7.57519E-01 2.33213E-33
7.61249E-01 2.19479E-33
7.64960E-01 2.06255E-33
7.68650E-01 1.93549E-33
7.72320E-01 1.81365E-33
7.75968E-01 1.69705E-33
7.79596E-01 1.58568E-33
7.83203E-01 1.47951E-33
7.86788E-01 1.37849E-33
7.90351E-01 1.28254E-33
7.93893E-01 1.19156E-33
7.97411E-01 1.10546E-33
8.00908E-01 1.02411E-33
8.04381E-01 9.47376E-34
8.07831E-01 8.75126E-34
8.11257E-01 8.07212E-34
8.14660E-01 7.43479E-34
8.18039E-01 6.83768E-34
8.21394E-01 6.27920E-34
8.24724E-01 5.75769E-34
8.28030E-01 5.27154E-34
8.31310E-01 4.81909E-34
8.34565E-01 4.39872E-34
8.37795E-01 4.00880E-34
8.40999E-01 3.64774E-34
8.44177E-01 3.31399E-34
8.47329E-01 3.00602E-34
8.50455E-01 2.72233E-34
8.53553E-01 2.46147E-34
8.56625E-01 2.22206E-34
8.59670E-01 2.00273E-34
8.62687E-01 1.80219E-34
8.65677E-01 1.61919E-34
8.68639E-01 1.45253E-34
8.71572E-01 1.30106E-34
8.74478E-01 1.16369E-34
8.77355E-01 1.03939E-34
8.80203E-01 9.27175E-35
8.83022E-01 8.26105E-35
8.85812E-01 7.35303E-35
8.88573E-01 6.53935E-35
8.91304E-01 5.81222E-35
8.94005E-01 5.16424E-35
8.96677E-01 4.58854E-35
8.99318E-01 4.07868E-35
9.01928E-01 3.62862E-35
9.04508E-01 3.23277E-35
9.07058E-01 2.88588E-35
9.09576E-01 2.58313E-35
9.12063E-01 2.32002E-35
9.14519E-01 2.09241E-35
9.16943E-01 1.89648E-35
9.19335E-01 1.72871E-35
9.21696E-01 1.58586E-35
9.24024E-01 1.46498E-35
9.26320E-01 1.36336E-35
9.28584E-01 1.27853E-35
9.30815E-01 1.20827E-35
9.33013E-01 1.15053E-35
9.35178E-01 1.10349E-35
9.37310E-01 1.06551E-35
9.39409E-01 1.03505E-35
9.41474E-01 1.01082E-35
9.43505E-01 9.91653E-36
9.45503E-01 9.76524E-36
9.47467E-01 9.64441E-36
9.49397E-01 9.54648E-36
9.51293E-01 9.46418E-36
9.53154E-01 9.39163E-36
9.54981E-01 9.32317E-36
9.56773E-01 9.25499E-36
9.58530E-01 9.18275E-36
9.60252E-01 9.10383E-36
9.61940E-01 9.01517E-36
9.63592E-01 8.91554E-36
9.65209E-01 8.80314E-36
9.66790E-01 8.67682E-36
9.68336E-01 8.53587E-36
9.69846E-01 8.38029E-36
9.71321E-01 8.20938E-36
9.72759E-01 8.02384E-36
9.74162E-01 7.82341E-36
9.75528E-01 7.60976E-36
9.76858E-01 7.38284E-36
9.78152E-01 7.14368E-36
9.79410E-01 6.89340E-36
9.80631E-01 6.63313E-36
9.81815E-01 6.36414E-36
9.82963E-01 6.08738E-36
9.84074E-01 5.80426E-36
9.85148E-01 5.51600E-36
9.86185E-01 5.22390E-36
9.87185E-01 4.92944E-36
9.88148E-01 4.63380E-36
9.89074E-01 4.33805E-36
9.89962E-01 4.04444E-36
9.90814E-01 3.75320E-36
9.91627E-01 3.46556E-36
9.92404E-01 3.18344E-36
9.93143E-01 2.90740E-36
9.93844E-01 2.63887E-36
9.94508E-01 2.37856E-36
9.95134E-01 2.12790E-36
9.95722E-01 1.88743E-36
9.96273E-01 1.65836E-36
9.96786E-01 1.44143E-36
9.97261E-01 1.23741E-36
9.97698E-01 1.04688E-36
9.98097E-01 8.70659E-37
9.98459E-01 7.09463E-37
9.98782E-01 5.63617E-37
9.99067E-01 4.33978E-37
9.99315E-01 3.20606E-37
9.99524E-01 2.24019E-37
9.99695E-01 1.44592E-37
9.99829E-01 8.25441E-38
9.99924E-01 3.80713E-38
9.99981E-01 1.13458E-38
1.00000E+00 2.37473E-39
