 #
 # Subroutine ELSEPA. Elastic scattering of electrons and positrons
 #                    by neutral atoms and positive ions
 #
 # Projectile: positron
 # Kinetic energy = 9.00000E+07 eV = 3.30744E+06 a.u.
 #
 # WARNING: High-energy factorization with free-atom DF screening.
 #          Absorption, polarization and exchange corrections are
 #          switched off.
 #          Phase shifts are calculated for the bare nucleus.
 #          Scattering amplitudes are not evaluated.
 #
 # Element: At,  Z =  85,  atomic weight = 2.09987E+02 g/mol
 #
 # Nuclear model: Fermi distribution
 #                Average radius = 6.35987E-13 cm
 #                Skin thickness = 5.46000E-14 cm
 #
 # Number of electrons = 85
 #
 # Total elastic cross section = 9.37505E-18 cm**2 = 3.34789E-01 a0**2
 # 1st transport cross section = 1.58418E-24 cm**2 = 5.65720E-08 a0**2
 # 2nd transport cross section = 4.69835E-24 cm**2 = 1.67781E-07 a0**2
 #
 #
 # Differential cross section:                       MU=(1-COS(THETA))/2
 #
 #  THETA        MU          DCS          DCS        Sherman      error
 #  (deg)                 (cm**2/sr)   (a0**2/sr)    function
 #----------------------------------------------------------------------
0.00000E+00 5.31773E-10
7.61557E-13 5.30947E-10
1.18994E-12 5.30486E-10
1.71346E-12 5.29923E-10
2.33225E-12 5.29259E-10
3.04617E-12 5.28496E-10
3.85530E-12 5.27632E-10
4.75964E-12 5.26670E-10
5.75917E-12 5.25610E-10
6.85391E-12 5.24454E-10
8.04379E-12 5.23201E-10
9.32893E-12 5.21853E-10
1.07092E-11 5.20412E-10
1.21847E-11 5.18878E-10
1.37554E-11 5.17254E-10
1.54213E-11 5.15539E-10
1.71823E-11 5.13737E-10
1.90386E-11 5.11848E-10
2.09900E-11 5.09874E-10
2.30367E-11 5.07817E-10
2.51785E-11 5.05678E-10
2.74156E-11 5.03459E-10
2.97478E-11 5.01135E-10
3.21752E-11 4.98736E-10
3.46979E-11 4.96276E-10
3.73157E-11 4.93758E-10
4.00286E-11 4.91185E-10
4.28368E-11 4.88560E-10
4.57402E-11 4.85815E-10
4.87388E-11 4.82991E-10
5.18325E-11 4.80123E-10
5.50215E-11 4.77214E-10
5.83057E-11 4.74268E-10
6.16850E-11 4.71287E-10
6.51595E-11 4.68192E-10
6.87293E-11 4.65018E-10
7.23943E-11 4.61818E-10
7.61544E-11 4.58594E-10
1.18991E-10 4.24257E-10
1.71347E-10 3.87610E-10
2.33223E-10 3.50327E-10
3.04617E-10 3.14171E-10
3.85531E-10 2.80003E-10
4.75965E-10 2.48450E-10
5.75917E-10 2.19986E-10
6.85389E-10 1.94522E-10
8.04380E-10 1.72019E-10
9.32891E-10 1.52324E-10
1.07092E-09 1.35081E-10
1.21847E-09 1.20077E-10
1.37554E-09 1.07047E-10
1.54213E-09 9.56784E-11
1.71823E-09 8.57878E-11
1.90386E-09 7.71651E-11
2.09900E-09 6.96000E-11
2.30367E-09 6.29705E-11
2.51785E-09 5.71366E-11
2.74156E-09 5.19736E-11
2.97478E-09 4.71771E-11
3.21752E-09 4.29483E-11
3.46978E-09 3.92841E-11
3.73156E-09 3.60937E-11
4.00286E-09 3.33031E-11
4.28368E-09 3.08515E-11
4.57402E-09 2.84398E-11
4.87388E-09 2.62086E-11
5.18326E-09 2.42371E-11
5.50215E-09 2.24886E-11
5.83057E-09 2.09323E-11
6.16850E-09 1.95425E-11
6.51596E-09 1.81859E-11
6.87293E-09 1.69081E-11
7.23942E-09 1.57617E-11
7.61544E-09 1.47304E-11
1.18991E-08 7.92477E-12
1.71347E-08 4.64417E-12
2.33223E-08 2.91054E-12
3.04617E-08 1.92472E-12
3.85531E-08 1.32216E-12
4.75965E-08 9.35300E-13
5.75917E-08 6.78829E-13
6.85389E-08 5.03594E-13
8.04380E-08 3.80624E-13
9.32891E-08 2.93214E-13
1.07092E-07 2.29781E-13
1.21847E-07 1.82803E-13
1.37554E-07 1.47342E-13
1.54213E-07 1.20098E-13
1.71823E-07 9.89277E-14
1.90386E-07 8.22742E-14
2.09900E-07 6.89971E-14
2.30367E-07 5.83085E-14
2.51785E-07 4.96150E-14
2.74156E-07 4.24793E-14
2.97478E-07 3.65590E-14
3.21752E-07 3.16624E-14
3.46978E-07 2.75704E-14
3.73156E-07 2.41022E-14
4.00286E-07 2.11849E-14
4.28368E-07 1.86776E-14
4.57402E-07 1.65411E-14
4.87388E-07 1.47013E-14
5.18325E-07 1.31080E-14
5.50215E-07 1.17320E-14
5.83057E-07 1.05237E-14
6.16850E-07 9.47239E-15
6.51596E-07 8.54702E-15
6.87293E-07 7.73202E-15
7.23942E-07 7.01360E-15
7.61543E-07 6.37386E-15
1.18991E-06 2.73016E-15
1.71347E-06 1.35534E-15
2.33223E-06 7.47261E-16
3.04617E-06 4.45345E-16
3.85531E-06 2.81690E-16
4.75964E-06 1.86744E-16
5.75916E-06 1.28603E-16
6.85388E-06 9.14029E-17
8.04378E-06 6.67165E-17
9.32888E-06 4.98206E-17
1.07092E-05 3.79457E-17
1.21846E-05 2.94049E-17
1.37553E-05 2.31362E-17
1.54212E-05 1.84519E-17
1.71822E-05 1.48952E-17
1.90385E-05 1.21473E-17
2.09899E-05 1.00187E-17
2.30365E-05 8.33492E-18
2.51783E-05 6.98810E-18
2.74153E-05 5.90084E-18
2.97475E-05 5.01616E-18
3.21749E-05 4.29121E-18
3.46974E-05 3.69295E-18
3.73152E-05 3.19589E-18
4.00281E-05 2.78006E-18
4.28362E-05 2.42983E-18
4.57395E-05 2.13302E-18
4.87380E-05 1.88005E-18
5.18317E-05 1.66335E-18
5.50205E-05 1.47689E-18
5.83045E-05 1.31579E-18
6.16838E-05 1.17606E-18
6.51582E-05 1.05442E-18
6.87277E-05 9.48135E-19
7.23925E-05 8.54919E-19
7.61524E-05 7.72910E-19
9.21439E-05 5.28532E-19
1.09658E-04 3.73472E-19
1.28695E-04 2.71307E-19
1.49255E-04 2.01776E-19
1.71338E-04 1.53144E-19
1.94942E-04 1.18308E-19
2.20070E-04 9.28291E-20
2.46720E-04 7.38482E-20
2.74892E-04 5.94758E-20
3.04586E-04 4.84320E-20
3.35803E-04 3.98345E-20
3.68542E-04 3.30607E-20
4.02802E-04 2.76658E-20
4.38585E-04 2.33268E-20
4.75889E-04 1.98049E-20
5.14715E-04 1.69226E-20
5.55063E-04 1.45453E-20
5.96931E-04 1.25708E-20
6.40321E-04 1.09197E-20
6.85233E-04 9.53070E-21
7.31665E-04 8.35538E-21
7.79618E-04 7.35548E-21
8.29092E-04 6.50057E-21
8.80086E-04 5.76614E-21
9.32601E-04 5.13238E-21
9.86636E-04 4.58323E-21
1.04219E-03 4.10544E-21
1.09927E-03 3.68823E-21
1.15786E-03 3.32259E-21
1.21797E-03 3.00106E-21
1.27961E-03 2.71745E-21
1.34276E-03 2.46647E-21
1.40743E-03 2.24375E-21
1.47362E-03 2.04556E-21
1.54133E-03 1.86872E-21
1.61056E-03 1.71055E-21
1.68131E-03 1.56871E-21
1.75357E-03 1.44124E-21
1.82735E-03 1.32643E-21
1.90265E-03 1.22279E-21
1.97947E-03 1.12905E-21
2.05780E-03 1.04409E-21
2.13765E-03 9.66956E-22
2.21902E-03 8.96791E-22
2.30190E-03 8.32857E-22
2.38630E-03 7.74499E-22
2.47222E-03 7.21148E-22
2.55965E-03 6.72295E-22
2.64859E-03 6.27496E-22
2.73905E-03 5.86353E-22
2.83103E-03 5.48515E-22
2.92452E-03 5.13670E-22
3.01952E-03 4.81538E-22
3.11604E-03 4.51871E-22
3.21407E-03 4.24448E-22
3.31362E-03 3.99073E-22
3.41468E-03 3.75547E-22
3.51725E-03 3.53709E-22
3.62133E-03 3.33428E-22
3.72692E-03 3.14571E-22
3.83403E-03 2.97022E-22
3.94265E-03 2.80673E-22
4.05278E-03 2.65426E-22
4.16442E-03 2.51195E-22
4.27757E-03 2.37899E-22
4.39223E-03 2.25466E-22
4.50840E-03 2.13829E-22
4.62608E-03 2.02928E-22
4.74527E-03 1.92708E-22
4.86597E-03 1.83119E-22
4.98817E-03 1.74115E-22
5.11188E-03 1.65654E-22
5.23711E-03 1.57696E-22
5.36383E-03 1.50207E-22
5.49207E-03 1.43153E-22
5.62181E-03 1.36505E-22
5.75306E-03 1.30236E-22
5.88581E-03 1.24319E-22
6.02007E-03 1.18731E-22
6.15583E-03 1.13451E-22
6.29310E-03 1.08459E-22
6.43187E-03 1.03736E-22
6.57214E-03 9.92641E-23
6.71392E-03 9.50285E-23
6.85720E-03 9.10142E-23
7.00198E-03 8.72074E-23
7.14827E-03 8.35954E-23
7.29605E-03 8.01665E-23
7.44534E-03 7.69097E-23
7.59612E-03 7.38148E-23
7.97965E-03 6.67246E-23
8.37255E-03 6.04561E-23
8.77480E-03 5.48983E-23
9.18641E-03 4.99568E-23
9.60736E-03 4.55518E-23
1.00376E-02 4.16153E-23
1.04773E-02 3.80890E-23
1.09262E-02 3.49229E-23
1.13844E-02 3.20739E-23
1.18520E-02 2.95050E-23
1.23288E-02 2.71839E-23
1.28150E-02 2.50826E-23
1.33104E-02 2.31768E-23
1.38150E-02 2.14452E-23
1.43290E-02 1.98692E-23
1.48521E-02 1.84324E-23
1.53845E-02 1.71205E-23
1.59262E-02 1.59206E-23
1.64770E-02 1.48218E-23
1.70371E-02 1.38139E-23
1.76063E-02 1.28882E-23
1.81848E-02 1.20368E-23
1.87724E-02 1.12528E-23
1.93692E-02 1.05299E-23
1.99751E-02 9.86258E-24
2.05901E-02 9.24582E-24
2.12143E-02 8.67515E-24
2.18476E-02 8.14655E-24
2.24900E-02 7.65638E-24
2.31415E-02 7.20138E-24
2.38021E-02 6.77862E-24
2.44717E-02 6.38541E-24
2.51504E-02 6.01935E-24
2.58382E-02 5.67825E-24
2.65349E-02 5.36013E-24
2.72407E-02 5.06318E-24
2.79555E-02 4.78575E-24
2.86793E-02 4.52635E-24
2.94120E-02 4.28362E-24
3.01537E-02 4.05630E-24
3.09043E-02 3.84326E-24
3.16639E-02 3.64345E-24
3.24324E-02 3.45592E-24
3.32098E-02 3.27978E-24
3.39961E-02 3.11424E-24
3.47912E-02 2.95855E-24
3.55952E-02 2.81203E-24
3.64081E-02 2.67405E-24
3.72297E-02 2.54403E-24
3.80602E-02 2.42144E-24
3.88995E-02 2.30579E-24
3.97476E-02 2.19663E-24
4.06044E-02 2.09352E-24
4.14700E-02 1.99608E-24
4.23443E-02 1.90395E-24
4.32273E-02 1.81680E-24
4.41190E-02 1.73431E-24
4.50194E-02 1.65619E-24
4.59284E-02 1.58218E-24
4.68461E-02 1.51202E-24
4.87074E-02 1.38237E-24
5.06030E-02 1.26555E-24
5.25328E-02 1.16012E-24
5.44967E-02 1.06480E-24
5.64946E-02 9.78483E-25
5.85262E-02 9.00200E-25
6.05914E-02 8.29096E-25
6.26901E-02 7.64421E-25
6.48222E-02 7.05512E-25
6.69873E-02 6.51784E-25
6.91854E-02 6.02719E-25
7.14163E-02 5.57857E-25
7.36799E-02 5.16789E-25
7.59760E-02 4.79150E-25
7.83043E-02 4.44617E-25
8.06647E-02 4.12900E-25
8.30571E-02 3.83738E-25
8.54812E-02 3.56899E-25
8.79369E-02 3.32174E-25
9.04240E-02 3.09376E-25
9.29422E-02 2.88334E-25
9.54915E-02 2.68898E-25
9.80716E-02 2.50929E-25
1.00682E-01 2.34302E-25
1.03323E-01 2.18906E-25
1.05995E-01 2.04638E-25
1.08696E-01 1.91405E-25
1.11427E-01 1.79124E-25
1.14188E-01 1.67719E-25
1.16978E-01 1.57118E-25
1.19797E-01 1.47260E-25
1.22645E-01 1.38086E-25
1.25522E-01 1.29543E-25
1.28428E-01 1.21584E-25
1.31361E-01 1.14163E-25
1.34323E-01 1.07241E-25
1.37313E-01 1.00780E-25
1.40330E-01 9.47469E-26
1.43375E-01 8.91095E-26
1.46447E-01 8.38394E-26
1.49545E-01 7.89103E-26
1.52671E-01 7.42979E-26
1.55823E-01 6.99797E-26
1.59001E-01 6.59351E-26
1.62205E-01 6.21450E-26
1.65435E-01 5.85919E-26
1.68690E-01 5.52596E-26
1.71970E-01 5.21329E-26
1.75276E-01 4.91981E-26
1.78606E-01 4.64422E-26
1.81961E-01 4.38534E-26
1.85340E-01 4.14205E-26
1.88743E-01 3.91334E-26
1.92169E-01 3.69825E-26
1.95619E-01 3.49591E-26
1.99092E-01 3.30548E-26
2.02589E-01 3.12621E-26
2.06107E-01 2.95740E-26
2.09649E-01 2.79837E-26
2.13212E-01 2.64851E-26
2.16797E-01 2.50726E-26
2.20404E-01 2.37408E-26
2.24032E-01 2.24846E-26
2.27680E-01 2.12996E-26
2.31350E-01 2.01812E-26
2.35040E-01 1.91256E-26
2.38751E-01 1.81288E-26
2.42481E-01 1.71874E-26
2.46231E-01 1.62981E-26
2.50000E-01 1.54578E-26
2.53788E-01 1.46635E-26
2.57595E-01 1.39126E-26
2.61421E-01 1.32026E-26
2.65264E-01 1.25310E-26
2.69126E-01 1.18956E-26
2.73005E-01 1.12944E-26
2.76901E-01 1.07253E-26
2.80814E-01 1.01867E-26
2.84744E-01 9.67659E-27
2.88691E-01 9.19352E-27
2.92653E-01 8.73594E-27
2.96632E-01 8.30240E-27
3.00625E-01 7.89157E-27
3.04634E-01 7.50218E-27
3.08658E-01 7.13304E-27
3.12697E-01 6.78305E-27
3.16749E-01 6.45113E-27
3.20816E-01 6.13631E-27
3.24896E-01 5.83765E-27
3.28990E-01 5.55428E-27
3.33097E-01 5.28536E-27
3.37216E-01 5.03011E-27
3.41348E-01 4.78781E-27
3.45492E-01 4.55775E-27
3.49647E-01 4.33930E-27
3.53814E-01 4.13181E-27
3.57992E-01 3.93473E-27
3.62181E-01 3.74749E-27
3.66381E-01 3.56959E-27
3.70590E-01 3.40052E-27
3.74810E-01 3.23983E-27
3.79039E-01 3.08708E-27
3.83277E-01 2.94186E-27
3.87524E-01 2.80378E-27
3.91780E-01 2.67247E-27
3.96044E-01 2.54758E-27
4.00316E-01 2.42878E-27
4.04596E-01 2.31576E-27
4.08882E-01 2.20823E-27
4.13176E-01 2.10591E-27
4.17476E-01 2.00852E-27
4.21783E-01 1.91583E-27
4.26095E-01 1.82760E-27
4.30413E-01 1.74359E-27
4.34737E-01 1.66361E-27
4.39065E-01 1.58744E-27
4.43398E-01 1.51490E-27
4.47736E-01 1.44581E-27
4.52077E-01 1.38000E-27
4.56422E-01 1.31730E-27
4.60770E-01 1.25755E-27
4.65122E-01 1.20063E-27
4.69476E-01 1.14638E-27
4.73832E-01 1.09467E-27
4.78190E-01 1.04538E-27
4.82550E-01 9.98400E-28
4.86912E-01 9.53606E-28
4.91274E-01 9.10897E-28
4.95637E-01 8.70170E-28
5.00000E-01 8.31330E-28
5.04363E-01 7.94286E-28
5.08726E-01 7.58953E-28
5.13088E-01 7.25246E-28
5.17450E-01 6.93090E-28
5.21810E-01 6.62409E-28
5.26168E-01 6.33133E-28
5.30524E-01 6.05195E-28
5.34878E-01 5.78532E-28
5.39230E-01 5.53084E-28
5.43578E-01 5.28793E-28
5.47923E-01 5.05603E-28
5.52264E-01 4.83465E-28
5.56602E-01 4.62327E-28
5.60935E-01 4.42144E-28
5.65263E-01 4.22870E-28
5.69587E-01 4.04462E-28
5.73905E-01 3.86882E-28
5.78217E-01 3.70089E-28
5.82524E-01 3.54048E-28
5.86824E-01 3.38723E-28
5.91118E-01 3.24082E-28
5.95404E-01 3.10093E-28
5.99684E-01 2.96726E-28
6.03956E-01 2.83951E-28
6.08220E-01 2.71743E-28
6.12476E-01 2.60075E-28
6.16723E-01 2.48922E-28
6.20961E-01 2.38261E-28
6.25190E-01 2.28069E-28
6.29410E-01 2.18325E-28
6.33619E-01 2.09008E-28
6.37819E-01 2.00100E-28
6.42008E-01 1.91582E-28
6.46186E-01 1.83435E-28
6.50353E-01 1.75644E-28
6.54508E-01 1.68193E-28
6.58652E-01 1.61065E-28
6.62784E-01 1.54246E-28
6.66903E-01 1.47724E-28
6.71010E-01 1.41483E-28
6.75104E-01 1.35513E-28
6.79184E-01 1.29800E-28
6.83251E-01 1.24333E-28
6.87303E-01 1.19102E-28
6.91342E-01 1.14095E-28
6.95366E-01 1.09303E-28
6.99375E-01 1.04717E-28
7.03368E-01 1.00327E-28
7.07347E-01 9.61241E-29
7.11309E-01 9.21009E-29
7.15256E-01 8.82492E-29
7.19186E-01 8.45614E-29
7.23099E-01 8.10303E-29
7.26995E-01 7.76490E-29
7.30874E-01 7.44111E-29
7.34736E-01 7.13102E-29
7.38579E-01 6.83404E-29
7.42405E-01 6.54960E-29
7.46212E-01 6.27714E-29
7.50000E-01 6.01616E-29
7.53769E-01 5.76615E-29
7.57519E-01 5.52664E-29
7.61249E-01 5.29718E-29
7.64960E-01 5.07733E-29
7.68650E-01 4.86667E-29
7.72320E-01 4.66481E-29
7.75968E-01 4.47138E-29
7.79596E-01 4.28601E-29
7.83203E-01 4.10835E-29
7.86788E-01 3.93808E-29
7.90351E-01 3.77488E-29
7.93893E-01 3.61844E-29
7.97411E-01 3.46849E-29
8.00908E-01 3.32473E-29
8.04381E-01 3.18692E-29
8.07831E-01 3.05480E-29
8.11257E-01 2.92812E-29
8.14660E-01 2.80665E-29
8.18039E-01 2.69018E-29
8.21394E-01 2.57850E-29
8.24724E-01 2.47140E-29
8.28030E-01 2.36868E-29
8.31310E-01 2.27017E-29
8.34565E-01 2.17569E-29
8.37795E-01 2.08507E-29
8.40999E-01 1.99815E-29
8.44177E-01 1.91477E-29
8.47329E-01 1.83478E-29
8.50455E-01 1.75805E-29
8.53553E-01 1.68443E-29
8.56625E-01 1.61380E-29
8.59670E-01 1.54604E-29
8.62687E-01 1.48102E-29
8.65677E-01 1.41863E-29
8.68639E-01 1.35876E-29
8.71572E-01 1.30131E-29
8.74478E-01 1.24618E-29
8.77355E-01 1.19327E-29
8.80203E-01 1.14250E-29
8.83022E-01 1.09376E-29
8.85812E-01 1.04699E-29
8.88573E-01 1.00209E-29
8.91304E-01 9.59001E-30
8.94005E-01 9.17637E-30
8.96677E-01 8.77933E-30
8.99318E-01 8.39818E-30
9.01928E-01 8.03230E-30
9.04508E-01 7.68107E-30
9.07058E-01 7.34388E-30
9.09576E-01 7.02017E-30
9.12063E-01 6.70939E-30
9.14519E-01 6.41104E-30
9.16943E-01 6.12459E-30
9.19335E-01 5.84958E-30
9.21696E-01 5.58556E-30
9.24024E-01 5.33207E-30
9.26320E-01 5.08869E-30
9.28584E-01 4.85504E-30
9.30815E-01 4.63071E-30
9.33013E-01 4.41534E-30
9.35178E-01 4.20858E-30
9.37310E-01 4.01008E-30
9.39409E-01 3.81952E-30
9.41474E-01 3.63659E-30
9.43505E-01 3.46099E-30
9.45503E-01 3.29244E-30
9.47467E-01 3.13065E-30
9.49397E-01 2.97538E-30
9.51293E-01 2.82636E-30
9.53154E-01 2.68335E-30
9.54981E-01 2.54614E-30
9.56773E-01 2.41448E-30
9.58530E-01 2.28818E-30
9.60252E-01 2.16703E-30
9.61940E-01 2.05084E-30
9.63592E-01 1.93942E-30
9.65209E-01 1.83260E-30
9.66790E-01 1.73020E-30
9.68336E-01 1.63206E-30
9.69846E-01 1.53803E-30
9.71321E-01 1.44795E-30
9.72759E-01 1.36169E-30
9.74162E-01 1.27911E-30
9.75528E-01 1.20008E-30
9.76858E-01 1.12447E-30
9.78152E-01 1.05217E-30
9.79410E-01 9.83065E-31
9.80631E-01 9.17044E-31
9.81815E-01 8.54004E-31
9.82963E-01 7.93849E-31
9.84074E-01 7.36484E-31
9.85148E-01 6.81821E-31
9.86185E-01 6.29774E-31
9.87185E-01 5.80262E-31
9.88148E-01 5.33209E-31
9.89074E-01 4.88543E-31
9.89962E-01 4.46194E-31
9.90814E-01 4.06097E-31
9.91627E-01 3.68191E-31
9.92404E-01 3.32417E-31
9.93143E-01 2.98719E-31
9.93844E-01 2.67047E-31
9.94508E-01 2.37351E-31
9.95134E-01 2.09587E-31
9.95722E-01 1.83712E-31
9.96273E-01 1.59685E-31
9.96786E-01 1.37472E-31
9.97261E-01 1.17036E-31
9.97698E-01 9.83482E-32
9.98097E-01 8.13792E-32
9.98459E-01 6.61031E-32
9.98782E-01 5.24968E-32
9.99067E-01 4.05393E-32
9.99315E-01 3.02128E-32
9.99524E-01 2.15014E-32
9.99695E-01 1.43919E-32
9.99829E-01 8.87340E-33
9.99924E-01 4.93762E-33
9.99981E-01 2.57853E-33
1.00000E+00 1.79264E-33
