 #
 # Subroutine ELSEPA. Elastic scattering of electrons and positrons
 #                    by neutral atoms and positive ions
 #
 # Projectile: positron
 # Kinetic energy = 4.50000E+06 eV = 1.65372E+05 a.u.
 #
 # WARNING: High-energy factorization with free-atom DF screening.
 #          Absorption, polarization and exchange corrections are
 #          switched off.
 #          Phase shifts are calculated for the bare nucleus.
 #          Scattering amplitudes are not evaluated.
 #
 # Element: At,  Z =  85,  atomic weight = 2.09987E+02 g/mol
 #
 # Nuclear model: Fermi distribution
 #                Average radius = 6.35987E-13 cm
 #                Skin thickness = 5.46000E-14 cm
 #
 # Number of electrons = 85
 #
 # Total elastic cross section = 9.45871E-18 cm**2 = 3.37777E-01 a0**2
 # 1st transport cross section = 3.36491E-22 cm**2 = 1.20163E-05 a0**2
 # 2nd transport cross section = 9.65841E-22 cm**2 = 3.44908E-05 a0**2
 #
 #
 # Differential cross section:                       MU=(1-COS(THETA))/2
 #
 #  THETA        MU          DCS          DCS        Sherman      error
 #  (deg)                 (cm**2/sr)   (a0**2/sr)    function
 #----------------------------------------------------------------------
0.00000E+00 1.62994E-12
7.61557E-13 1.62993E-12
1.18994E-12 1.62993E-12
1.71346E-12 1.62992E-12
2.33225E-12 1.62991E-12
3.04617E-12 1.62991E-12
3.85530E-12 1.62990E-12
4.75964E-12 1.62989E-12
5.75917E-12 1.62988E-12
6.85391E-12 1.62987E-12
8.04379E-12 1.62985E-12
9.32893E-12 1.62984E-12
1.07092E-11 1.62983E-12
1.21847E-11 1.62981E-12
1.37554E-11 1.62979E-12
1.54213E-11 1.62978E-12
1.71823E-11 1.62976E-12
1.90386E-11 1.62974E-12
2.09900E-11 1.62972E-12
2.30367E-11 1.62970E-12
2.51785E-11 1.62968E-12
2.74156E-11 1.62965E-12
2.97478E-11 1.62963E-12
3.21752E-11 1.62960E-12
3.46979E-11 1.62958E-12
3.73157E-11 1.62955E-12
4.00286E-11 1.62952E-12
4.28368E-11 1.62950E-12
4.57402E-11 1.62947E-12
4.87388E-11 1.62944E-12
5.18325E-11 1.62940E-12
5.50215E-11 1.62937E-12
5.83057E-11 1.62934E-12
6.16850E-11 1.62930E-12
6.51595E-11 1.62927E-12
6.87293E-11 1.62923E-12
7.23943E-11 1.62920E-12
7.61544E-11 1.62916E-12
1.18991E-10 1.62872E-12
1.71347E-10 1.62819E-12
2.33223E-10 1.62757E-12
3.04617E-10 1.62685E-12
3.85531E-10 1.62604E-12
4.75965E-10 1.62513E-12
5.75917E-10 1.62413E-12
6.85389E-10 1.62304E-12
8.04380E-10 1.62185E-12
9.32891E-10 1.62057E-12
1.07092E-09 1.61919E-12
1.21847E-09 1.61773E-12
1.37554E-09 1.61617E-12
1.54213E-09 1.61452E-12
1.71823E-09 1.61278E-12
1.90386E-09 1.61095E-12
2.09900E-09 1.60902E-12
2.30367E-09 1.60701E-12
2.51785E-09 1.60491E-12
2.74156E-09 1.60272E-12
2.97478E-09 1.60045E-12
3.21752E-09 1.59808E-12
3.46978E-09 1.59563E-12
3.73156E-09 1.59310E-12
4.00286E-09 1.59047E-12
4.28368E-09 1.58777E-12
4.57402E-09 1.58498E-12
4.87388E-09 1.58210E-12
5.18326E-09 1.57915E-12
5.50215E-09 1.57611E-12
5.83057E-09 1.57299E-12
6.16850E-09 1.56979E-12
6.51596E-09 1.56651E-12
6.87293E-09 1.56316E-12
7.23942E-09 1.55972E-12
7.61544E-09 1.55621E-12
1.18991E-08 1.51688E-12
1.71347E-08 1.47108E-12
2.33223E-08 1.41974E-12
3.04617E-08 1.36401E-12
3.85531E-08 1.30500E-12
4.75965E-08 1.24379E-12
5.75917E-08 1.18134E-12
6.85389E-08 1.11827E-12
8.04380E-08 1.05568E-12
9.32891E-08 9.94251E-13
1.07092E-07 9.34525E-13
1.21847E-07 8.76931E-13
1.37554E-07 8.21784E-13
1.54213E-07 7.69300E-13
1.71823E-07 7.19612E-13
1.90386E-07 6.72781E-13
2.09900E-07 6.28809E-13
2.30367E-07 5.87631E-13
2.51785E-07 5.49090E-13
2.74156E-07 5.13215E-13
2.97478E-07 4.79877E-13
3.21752E-07 4.48940E-13
3.46978E-07 4.20257E-13
3.73156E-07 3.93683E-13
4.00286E-07 3.69073E-13
4.28368E-07 3.46286E-13
4.57402E-07 3.25186E-13
4.87388E-07 3.05646E-13
5.18325E-07 2.87533E-13
5.50215E-07 2.70719E-13
5.83057E-07 2.55128E-13
6.16850E-07 2.40662E-13
6.51596E-07 2.27227E-13
6.87293E-07 2.14740E-13
7.23942E-07 2.03121E-13
7.61543E-07 1.92302E-13
1.18991E-06 1.14887E-13
1.71347E-06 7.39555E-14
2.33223E-06 4.97757E-14
3.04617E-06 3.46783E-14
3.85531E-06 2.48797E-14
4.75964E-06 1.83236E-14
5.75916E-06 1.38138E-14
6.85388E-06 1.06182E-14
8.04378E-06 8.31026E-15
9.32888E-06 6.60323E-15
1.07092E-05 5.31434E-15
1.21846E-05 4.32394E-15
1.37553E-05 3.55158E-15
1.54212E-05 2.94179E-15
1.71822E-05 2.45532E-15
1.90385E-05 2.06237E-15
2.09899E-05 1.74644E-15
2.30365E-05 1.48853E-15
2.51783E-05 1.27394E-15
2.74153E-05 1.09649E-15
2.97475E-05 9.49088E-16
3.21749E-05 8.26008E-16
3.46974E-05 7.22634E-16
3.73152E-05 6.35250E-16
4.00281E-05 5.60892E-16
4.28362E-05 4.97216E-16
4.57395E-05 4.42373E-16
4.87380E-05 3.94909E-16
5.18317E-05 3.53655E-16
5.50205E-05 3.17662E-16
5.83045E-05 2.86177E-16
6.16838E-05 2.58542E-16
6.51582E-05 2.34202E-16
6.87277E-05 2.12687E-16
7.23925E-05 1.93602E-16
7.61524E-05 1.76616E-16
9.21439E-05 1.24746E-16
1.09658E-04 9.05803E-17
1.28695E-04 6.73833E-17
1.49255E-04 5.11716E-17
1.71338E-04 3.95639E-17
1.94942E-04 3.10717E-17
2.20070E-04 2.47399E-17
2.46720E-04 1.99397E-17
2.74892E-04 1.62468E-17
3.04586E-04 1.33678E-17
3.35803E-04 1.10972E-17
3.68542E-04 9.28704E-18
4.02802E-04 7.82951E-18
4.38585E-04 6.64650E-18
4.75889E-04 5.67830E-18
5.14715E-04 4.87997E-18
5.55063E-04 4.21699E-18
5.96931E-04 3.66283E-18
6.40321E-04 3.19675E-18
6.85233E-04 2.80249E-18
7.31665E-04 2.46718E-18
7.79618E-04 2.18054E-18
8.29092E-04 1.93433E-18
8.80086E-04 1.72184E-18
9.32601E-04 1.53774E-18
9.86636E-04 1.37757E-18
1.04219E-03 1.23770E-18
1.09927E-03 1.11511E-18
1.15786E-03 1.00730E-18
1.21797E-03 9.12181E-19
1.27961E-03 8.28000E-19
1.34276E-03 7.53279E-19
1.40743E-03 6.86777E-19
1.47362E-03 6.27422E-19
1.54133E-03 5.74314E-19
1.61056E-03 5.26687E-19
1.68131E-03 4.83876E-19
1.75357E-03 4.45310E-19
1.82735E-03 4.10493E-19
1.90265E-03 3.79000E-19
1.97947E-03 3.50455E-19
2.05780E-03 3.24535E-19
2.13765E-03 3.00956E-19
2.21902E-03 2.79470E-19
2.30190E-03 2.59858E-19
2.38630E-03 2.41926E-19
2.47222E-03 2.25508E-19
2.55965E-03 2.10452E-19
2.64859E-03 1.96626E-19
2.73905E-03 1.83911E-19
2.83103E-03 1.72203E-19
2.92452E-03 1.61407E-19
3.01952E-03 1.51440E-19
3.11604E-03 1.42227E-19
3.21407E-03 1.33701E-19
3.31362E-03 1.25800E-19
3.41468E-03 1.18472E-19
3.51725E-03 1.11667E-19
3.62133E-03 1.05341E-19
3.72692E-03 9.94545E-20
3.83403E-03 9.39718E-20
3.94265E-03 8.88598E-20
4.05278E-03 8.40891E-20
4.16442E-03 7.96328E-20
4.27757E-03 7.54664E-20
4.39223E-03 7.15676E-20
4.50840E-03 6.79160E-20
4.62608E-03 6.44932E-20
4.74527E-03 6.12822E-20
4.86597E-03 5.82677E-20
4.98817E-03 5.54353E-20
5.11188E-03 5.27721E-20
5.23711E-03 5.02662E-20
5.36383E-03 4.79065E-20
5.49207E-03 4.56829E-20
5.62181E-03 4.35862E-20
5.75306E-03 4.16078E-20
5.88581E-03 3.97398E-20
6.02007E-03 3.79749E-20
6.15583E-03 3.63064E-20
6.29310E-03 3.47280E-20
6.43187E-03 3.32340E-20
6.57214E-03 3.18191E-20
6.71392E-03 3.04782E-20
6.85720E-03 2.92069E-20
7.00198E-03 2.80008E-20
7.14827E-03 2.68559E-20
7.29605E-03 2.57687E-20
7.44534E-03 2.47356E-20
7.59612E-03 2.37534E-20
7.97965E-03 2.15020E-20
8.37255E-03 1.95095E-20
8.77480E-03 1.77414E-20
9.18641E-03 1.61679E-20
9.60736E-03 1.47639E-20
1.00376E-02 1.35082E-20
1.04773E-02 1.23824E-20
1.09262E-02 1.13707E-20
1.13844E-02 1.04595E-20
1.18520E-02 9.63723E-21
1.23288E-02 8.89363E-21
1.28150E-02 8.21987E-21
1.33104E-02 7.60826E-21
1.38150E-02 7.05208E-21
1.43290E-02 6.54540E-21
1.48521E-02 6.08307E-21
1.53845E-02 5.66053E-21
1.59262E-02 5.27375E-21
1.64770E-02 4.91918E-21
1.70371E-02 4.59367E-21
1.76063E-02 4.29441E-21
1.81848E-02 4.01892E-21
1.87724E-02 3.76498E-21
1.93692E-02 3.53060E-21
1.99751E-02 3.31401E-21
2.05901E-02 3.11362E-21
2.12143E-02 2.92801E-21
2.18476E-02 2.75590E-21
2.24900E-02 2.59612E-21
2.31415E-02 2.44765E-21
2.38021E-02 2.30953E-21
2.44717E-02 2.18092E-21
2.51504E-02 2.06105E-21
2.58382E-02 1.94922E-21
2.65349E-02 1.84479E-21
2.72407E-02 1.74719E-21
2.79555E-02 1.65589E-21
2.86793E-02 1.57040E-21
2.94120E-02 1.49031E-21
3.01537E-02 1.41519E-21
3.09043E-02 1.34470E-21
3.16639E-02 1.27849E-21
3.24324E-02 1.21626E-21
3.32098E-02 1.15773E-21
3.39961E-02 1.10263E-21
3.47912E-02 1.05074E-21
3.55952E-02 1.00182E-21
3.64081E-02 9.55684E-22
3.72297E-02 9.12140E-22
3.80602E-02 8.71016E-22
3.88995E-02 8.32155E-22
3.97476E-02 7.95410E-22
4.06044E-02 7.60645E-22
4.14700E-02 7.27733E-22
4.23443E-02 6.96560E-22
4.32273E-02 6.67015E-22
4.41190E-02 6.39000E-22
4.50194E-02 6.12420E-22
4.59284E-02 5.87188E-22
4.68461E-02 5.63225E-22
4.87074E-02 5.18809E-22
5.06030E-02 4.78627E-22
5.25328E-02 4.42208E-22
5.44967E-02 4.09141E-22
5.64946E-02 3.79063E-22
5.85262E-02 3.51659E-22
6.05914E-02 3.26652E-22
6.26901E-02 3.03795E-22
6.48222E-02 2.82873E-22
6.69873E-02 2.63694E-22
6.91854E-02 2.46087E-22
7.14163E-02 2.29903E-22
7.36799E-02 2.15006E-22
7.59760E-02 2.01276E-22
7.83043E-02 1.88606E-22
8.06647E-02 1.76901E-22
8.30571E-02 1.66074E-22
8.54812E-02 1.56049E-22
8.79369E-02 1.46755E-22
9.04240E-02 1.38131E-22
9.29422E-02 1.30119E-22
9.54915E-02 1.22669E-22
9.80716E-02 1.15734E-22
1.00682E-01 1.09274E-22
1.03323E-01 1.03249E-22
1.05995E-01 9.76248E-23
1.08696E-01 9.23713E-23
1.11427E-01 8.74590E-23
1.14188E-01 8.28623E-23
1.16978E-01 7.85574E-23
1.19797E-01 7.45224E-23
1.22645E-01 7.07376E-23
1.25522E-01 6.71847E-23
1.28428E-01 6.38471E-23
1.31361E-01 6.07096E-23
1.34323E-01 5.77579E-23
1.37313E-01 5.49794E-23
1.40330E-01 5.23620E-23
1.43375E-01 4.98947E-23
1.46447E-01 4.75676E-23
1.49545E-01 4.53712E-23
1.52671E-01 4.32969E-23
1.55823E-01 4.13368E-23
1.59001E-01 3.94835E-23
1.62205E-01 3.77302E-23
1.65435E-01 3.60706E-23
1.68690E-01 3.44988E-23
1.71970E-01 3.30093E-23
1.75276E-01 3.15971E-23
1.78606E-01 3.02574E-23
1.81961E-01 2.89860E-23
1.85340E-01 2.77788E-23
1.88743E-01 2.66319E-23
1.92169E-01 2.55418E-23
1.95619E-01 2.45053E-23
1.99092E-01 2.35192E-23
2.02589E-01 2.25806E-23
2.06107E-01 2.16869E-23
2.09649E-01 2.08355E-23
2.13212E-01 2.00242E-23
2.16797E-01 1.92507E-23
2.20404E-01 1.85129E-23
2.24032E-01 1.78089E-23
2.27680E-01 1.71369E-23
2.31350E-01 1.64952E-23
2.35040E-01 1.58821E-23
2.38751E-01 1.52963E-23
2.42481E-01 1.47362E-23
2.46231E-01 1.42006E-23
2.50000E-01 1.36881E-23
2.53788E-01 1.31977E-23
2.57595E-01 1.27282E-23
2.61421E-01 1.22786E-23
2.65264E-01 1.18478E-23
2.69126E-01 1.14350E-23
2.73005E-01 1.10393E-23
2.76901E-01 1.06598E-23
2.80814E-01 1.02958E-23
2.84744E-01 9.94659E-24
2.88691E-01 9.61135E-24
2.92653E-01 9.28949E-24
2.96632E-01 8.98037E-24
3.00625E-01 8.68342E-24
3.04634E-01 8.39807E-24
3.08658E-01 8.12379E-24
3.12697E-01 7.86008E-24
3.16749E-01 7.60646E-24
3.20816E-01 7.36248E-24
3.24896E-01 7.12771E-24
3.28990E-01 6.90174E-24
3.33097E-01 6.68418E-24
3.37216E-01 6.47468E-24
3.41348E-01 6.27289E-24
3.45492E-01 6.07848E-24
3.49647E-01 5.89113E-24
3.53814E-01 5.71053E-24
3.57992E-01 5.53640E-24
3.62181E-01 5.36847E-24
3.66381E-01 5.20648E-24
3.70590E-01 5.05020E-24
3.74810E-01 4.89938E-24
3.79039E-01 4.75381E-24
3.83277E-01 4.61328E-24
3.87524E-01 4.47756E-24
3.91780E-01 4.34648E-24
3.96044E-01 4.21984E-24
4.00316E-01 4.09746E-24
4.04596E-01 3.97920E-24
4.08882E-01 3.86489E-24
4.13176E-01 3.75438E-24
4.17476E-01 3.64751E-24
4.21783E-01 3.54413E-24
4.26095E-01 3.44412E-24
4.30413E-01 3.34735E-24
4.34737E-01 3.25370E-24
4.39065E-01 3.16307E-24
4.43398E-01 3.07532E-24
4.47736E-01 2.99036E-24
4.52077E-01 2.90808E-24
4.56422E-01 2.82837E-24
4.60770E-01 2.75115E-24
4.65122E-01 2.67633E-24
4.69476E-01 2.60383E-24
4.73832E-01 2.53355E-24
4.78190E-01 2.46542E-24
4.82550E-01 2.39937E-24
4.86912E-01 2.33531E-24
4.91274E-01 2.27318E-24
4.95637E-01 2.21291E-24
5.00000E-01 2.15444E-24
5.04363E-01 2.09770E-24
5.08726E-01 2.04264E-24
5.13088E-01 1.98920E-24
5.17450E-01 1.93731E-24
5.21810E-01 1.88694E-24
5.26168E-01 1.83803E-24
5.30524E-01 1.79052E-24
5.34878E-01 1.74438E-24
5.39230E-01 1.69956E-24
5.43578E-01 1.65601E-24
5.47923E-01 1.61369E-24
5.52264E-01 1.57256E-24
5.56602E-01 1.53259E-24
5.60935E-01 1.49373E-24
5.65263E-01 1.45595E-24
5.69587E-01 1.41922E-24
5.73905E-01 1.38350E-24
5.78217E-01 1.34876E-24
5.82524E-01 1.31496E-24
5.86824E-01 1.28209E-24
5.91118E-01 1.25011E-24
5.95404E-01 1.21898E-24
5.99684E-01 1.18870E-24
6.03956E-01 1.15922E-24
6.08220E-01 1.13053E-24
6.12476E-01 1.10260E-24
6.16723E-01 1.07540E-24
6.20961E-01 1.04892E-24
6.25190E-01 1.02314E-24
6.29410E-01 9.98029E-25
6.33619E-01 9.73570E-25
6.37819E-01 9.49745E-25
6.42008E-01 9.26535E-25
6.46186E-01 9.03920E-25
6.50353E-01 8.81885E-25
6.54508E-01 8.60412E-25
6.58652E-01 8.39484E-25
6.62784E-01 8.19087E-25
6.66903E-01 7.99205E-25
6.71010E-01 7.79822E-25
6.75104E-01 7.60925E-25
6.79184E-01 7.42500E-25
6.83251E-01 7.24533E-25
6.87303E-01 7.07011E-25
6.91342E-01 6.89923E-25
6.95366E-01 6.73255E-25
6.99375E-01 6.56997E-25
7.03368E-01 6.41137E-25
7.07347E-01 6.25663E-25
7.11309E-01 6.10566E-25
7.15256E-01 5.95835E-25
7.19186E-01 5.81460E-25
7.23099E-01 5.67431E-25
7.26995E-01 5.53739E-25
7.30874E-01 5.40375E-25
7.34736E-01 5.27330E-25
7.38579E-01 5.14596E-25
7.42405E-01 5.02165E-25
7.46212E-01 4.90028E-25
7.50000E-01 4.78178E-25
7.53769E-01 4.66607E-25
7.57519E-01 4.55307E-25
7.61249E-01 4.44273E-25
7.64960E-01 4.33497E-25
7.68650E-01 4.22972E-25
7.72320E-01 4.12692E-25
7.75968E-01 4.02651E-25
7.79596E-01 3.92842E-25
7.83203E-01 3.83261E-25
7.86788E-01 3.73900E-25
7.90351E-01 3.64755E-25
7.93893E-01 3.55820E-25
7.97411E-01 3.47091E-25
8.00908E-01 3.38561E-25
8.04381E-01 3.30226E-25
8.07831E-01 3.22081E-25
8.11257E-01 3.14122E-25
8.14660E-01 3.06344E-25
8.18039E-01 2.98743E-25
8.21394E-01 2.91314E-25
8.24724E-01 2.84053E-25
8.28030E-01 2.76957E-25
8.31310E-01 2.70022E-25
8.34565E-01 2.63243E-25
8.37795E-01 2.56617E-25
8.40999E-01 2.50141E-25
8.44177E-01 2.43810E-25
8.47329E-01 2.37622E-25
8.50455E-01 2.31574E-25
8.53553E-01 2.25662E-25
8.56625E-01 2.19883E-25
8.59670E-01 2.14234E-25
8.62687E-01 2.08712E-25
8.65677E-01 2.03314E-25
8.68639E-01 1.98038E-25
8.71572E-01 1.92881E-25
8.74478E-01 1.87840E-25
8.77355E-01 1.82912E-25
8.80203E-01 1.78096E-25
8.83022E-01 1.73389E-25
8.85812E-01 1.68789E-25
8.88573E-01 1.64292E-25
8.91304E-01 1.59898E-25
8.94005E-01 1.55604E-25
8.96677E-01 1.51407E-25
8.99318E-01 1.47306E-25
9.01928E-01 1.43299E-25
9.04508E-01 1.39384E-25
9.07058E-01 1.35559E-25
9.09576E-01 1.31822E-25
9.12063E-01 1.28172E-25
9.14519E-01 1.24606E-25
9.16943E-01 1.21124E-25
9.19335E-01 1.17723E-25
9.21696E-01 1.14402E-25
9.24024E-01 1.11159E-25
9.26320E-01 1.07993E-25
9.28584E-01 1.04902E-25
9.30815E-01 1.01885E-25
9.33013E-01 9.89414E-26
9.35178E-01 9.60687E-26
9.37310E-01 9.32660E-26
9.39409E-01 9.05320E-26
9.41474E-01 8.78656E-26
9.43505E-01 8.52655E-26
9.45503E-01 8.27306E-26
9.47467E-01 8.02598E-26
9.49397E-01 7.78519E-26
9.51293E-01 7.55060E-26
9.53154E-01 7.32210E-26
9.54981E-01 7.09958E-26
9.56773E-01 6.88297E-26
9.58530E-01 6.67215E-26
9.60252E-01 6.46704E-26
9.61940E-01 6.26755E-26
9.63592E-01 6.07359E-26
9.65209E-01 5.88509E-26
9.66790E-01 5.70197E-26
9.68336E-01 5.52413E-26
9.69846E-01 5.35152E-26
9.71321E-01 5.18405E-26
9.72759E-01 5.02166E-26
9.74162E-01 4.86428E-26
9.75528E-01 4.71184E-26
9.76858E-01 4.56428E-26
9.78152E-01 4.42154E-26
9.79410E-01 4.28356E-26
9.80631E-01 4.15028E-26
9.81815E-01 4.02164E-26
9.82963E-01 3.89759E-26
9.84074E-01 3.77809E-26
9.85148E-01 3.66308E-26
9.86185E-01 3.55252E-26
9.87185E-01 3.44635E-26
9.88148E-01 3.34454E-26
9.89074E-01 3.24705E-26
9.89962E-01 3.15384E-26
9.90814E-01 3.06486E-26
9.91627E-01 2.98008E-26
9.92404E-01 2.89947E-26
9.93143E-01 2.82300E-26
9.93844E-01 2.75063E-26
9.94508E-01 2.68233E-26
9.95134E-01 2.61808E-26
9.95722E-01 2.55786E-26
9.96273E-01 2.50163E-26
9.96786E-01 2.44938E-26
9.97261E-01 2.40108E-26
9.97698E-01 2.35671E-26
9.98097E-01 2.31626E-26
9.98459E-01 2.27972E-26
9.98782E-01 2.24705E-26
9.99067E-01 2.21827E-26
9.99315E-01 2.19334E-26
9.99524E-01 2.17226E-26
9.99695E-01 2.15503E-26
9.99829E-01 2.14164E-26
9.99924E-01 2.13207E-26
9.99981E-01 2.12634E-26
1.00000E+00 2.12442E-26
