 #
 # Subroutine ELSEPA. Elastic scattering of electrons and positrons
 #                    by neutral atoms and positive ions
 #
 # Projectile: positron
 # Kinetic energy = 4.00000E+06 eV = 1.46997E+05 a.u.
 #
 # WARNING: High-energy factorization with free-atom DF screening.
 #          Absorption, polarization and exchange corrections are
 #          switched off.
 #          Phase shifts are calculated for the bare nucleus.
 #          Scattering amplitudes are not evaluated.
 #
 # Element: At,  Z =  85,  atomic weight = 2.09987E+02 g/mol
 #
 # Nuclear model: Fermi distribution
 #                Average radius = 6.35987E-13 cm
 #                Skin thickness = 5.46000E-14 cm
 #
 # Number of electrons = 85
 #
 # Total elastic cross section = 9.48507E-18 cm**2 = 3.38718E-01 a0**2
 # 1st transport cross section = 4.07571E-22 cm**2 = 1.45546E-05 a0**2
 # 2nd transport cross section = 1.16835E-21 cm**2 = 4.17227E-05 a0**2
 #
 #
 # Differential cross section:                       MU=(1-COS(THETA))/2
 #
 #  THETA        MU          DCS          DCS        Sherman      error
 #  (deg)                 (cm**2/sr)   (a0**2/sr)    function
 #----------------------------------------------------------------------
0.00000E+00 1.32090E-12
7.61557E-13 1.32089E-12
1.18994E-12 1.32089E-12
1.71346E-12 1.32088E-12
2.33225E-12 1.32088E-12
3.04617E-12 1.32087E-12
3.85530E-12 1.32087E-12
4.75964E-12 1.32086E-12
5.75917E-12 1.32085E-12
6.85391E-12 1.32085E-12
8.04379E-12 1.32084E-12
9.32893E-12 1.32083E-12
1.07092E-11 1.32082E-12
1.21847E-11 1.32081E-12
1.37554E-11 1.32080E-12
1.54213E-11 1.32079E-12
1.71823E-11 1.32078E-12
1.90386E-11 1.32076E-12
2.09900E-11 1.32075E-12
2.30367E-11 1.32074E-12
2.51785E-11 1.32072E-12
2.74156E-11 1.32071E-12
2.97478E-11 1.32069E-12
3.21752E-11 1.32067E-12
3.46979E-11 1.32066E-12
3.73157E-11 1.32064E-12
4.00286E-11 1.32062E-12
4.28368E-11 1.32060E-12
4.57402E-11 1.32058E-12
4.87388E-11 1.32056E-12
5.18325E-11 1.32054E-12
5.50215E-11 1.32052E-12
5.83057E-11 1.32050E-12
6.16850E-11 1.32048E-12
6.51595E-11 1.32045E-12
6.87293E-11 1.32043E-12
7.23943E-11 1.32041E-12
7.61544E-11 1.32038E-12
1.18991E-10 1.32010E-12
1.71347E-10 1.31975E-12
2.33223E-10 1.31934E-12
3.04617E-10 1.31887E-12
3.85531E-10 1.31833E-12
4.75965E-10 1.31774E-12
5.75917E-10 1.31708E-12
6.85389E-10 1.31636E-12
8.04380E-10 1.31558E-12
9.32891E-10 1.31474E-12
1.07092E-09 1.31384E-12
1.21847E-09 1.31287E-12
1.37554E-09 1.31185E-12
1.54213E-09 1.31077E-12
1.71823E-09 1.30962E-12
1.90386E-09 1.30842E-12
2.09900E-09 1.30715E-12
2.30367E-09 1.30583E-12
2.51785E-09 1.30445E-12
2.74156E-09 1.30301E-12
2.97478E-09 1.30151E-12
3.21752E-09 1.29995E-12
3.46978E-09 1.29833E-12
3.73156E-09 1.29666E-12
4.00286E-09 1.29493E-12
4.28368E-09 1.29314E-12
4.57402E-09 1.29130E-12
4.87388E-09 1.28940E-12
5.18326E-09 1.28744E-12
5.50215E-09 1.28543E-12
5.83057E-09 1.28337E-12
6.16850E-09 1.28125E-12
6.51596E-09 1.27907E-12
6.87293E-09 1.27685E-12
7.23942E-09 1.27457E-12
7.61544E-09 1.27224E-12
1.18991E-08 1.24610E-12
1.71347E-08 1.21533E-12
2.33223E-08 1.18039E-12
3.04617E-08 1.14205E-12
3.85531E-08 1.10103E-12
4.75965E-08 1.05799E-12
5.75917E-08 1.01355E-12
6.85389E-08 9.67840E-13
8.04380E-08 9.21879E-13
9.32891E-08 8.76162E-13
1.07092E-07 8.31108E-13
1.21847E-07 7.87059E-13
1.37554E-07 7.43999E-13
1.54213E-07 7.02306E-13
1.71823E-07 6.62322E-13
1.90386E-07 6.24156E-13
2.09900E-07 5.87867E-13
2.30367E-07 5.53430E-13
2.51785E-07 5.20673E-13
2.74156E-07 4.89841E-13
2.97478E-07 4.60881E-13
3.21752E-07 4.33723E-13
3.46978E-07 4.08289E-13
3.73156E-07 3.84385E-13
4.00286E-07 3.62021E-13
4.28368E-07 3.41152E-13
4.57402E-07 3.21686E-13
4.87388E-07 3.03530E-13
5.18325E-07 2.86575E-13
5.50215E-07 2.70704E-13
5.83057E-07 2.55909E-13
6.16850E-07 2.42111E-13
6.51596E-07 2.29237E-13
6.87293E-07 2.17219E-13
7.23942E-07 2.05953E-13
7.61543E-07 1.95417E-13
1.18991E-06 1.19846E-13
1.71347E-06 7.82306E-14
2.33223E-06 5.31824E-14
3.04617E-06 3.74917E-14
3.85531E-06 2.72011E-14
4.75964E-06 2.02175E-14
5.75916E-06 1.53457E-14
6.85388E-06 1.18416E-14
8.04378E-06 9.30642E-15
9.32888E-06 7.42881E-15
1.07092E-05 6.00952E-15
1.21846E-05 4.91713E-15
1.37553E-05 4.05825E-15
1.54212E-05 3.37668E-15
1.71822E-05 2.83156E-15
1.90385E-05 2.38940E-15
2.09899E-05 2.03201E-15
2.30365E-05 1.73738E-15
2.51783E-05 1.49209E-15
2.74153E-05 1.28849E-15
2.97475E-05 1.11767E-15
3.21749E-05 9.73704E-16
3.46974E-05 8.52441E-16
3.73152E-05 7.49687E-16
4.00281E-05 6.62271E-16
4.28362E-05 5.87496E-16
4.57395E-05 5.23142E-16
4.87380E-05 4.67450E-16
5.18317E-05 4.18991E-16
5.50205E-05 3.76613E-16
5.83045E-05 3.39499E-16
6.16838E-05 3.06891E-16
6.51582E-05 2.78154E-16
6.87277E-05 2.52750E-16
7.23925E-05 2.30195E-16
7.61524E-05 2.10127E-16
9.21439E-05 1.48877E-16
1.09658E-04 1.08409E-16
1.28695E-04 8.07526E-17
1.49255E-04 6.14471E-17
1.71338E-04 4.75971E-17
1.94942E-04 3.74465E-17
2.20070E-04 2.98560E-17
2.46720E-04 2.40931E-17
2.74892E-04 1.96574E-17
3.04586E-04 1.61966E-17
3.35803E-04 1.34640E-17
3.68542E-04 1.12819E-17
4.02802E-04 9.52086E-18
4.38585E-04 8.08989E-18
4.75889E-04 6.91733E-18
5.14715E-04 5.94933E-18
5.55063E-04 5.14454E-18
5.96931E-04 4.47065E-18
6.40321E-04 3.90335E-18
6.85233E-04 3.42325E-18
7.31665E-04 3.01476E-18
7.79618E-04 2.66540E-18
8.29092E-04 2.36519E-18
8.80086E-04 2.10595E-18
9.32601E-04 1.88129E-18
9.86636E-04 1.68583E-18
1.04219E-03 1.51510E-18
1.09927E-03 1.36545E-18
1.15786E-03 1.23376E-18
1.21797E-03 1.11754E-18
1.27961E-03 1.01469E-18
1.34276E-03 9.23381E-19
1.40743E-03 8.42103E-19
1.47362E-03 7.69542E-19
1.54133E-03 7.04597E-19
1.61056E-03 6.46343E-19
1.68131E-03 5.93971E-19
1.75357E-03 5.46782E-19
1.82735E-03 5.04171E-19
1.90265E-03 4.65604E-19
1.97947E-03 4.30640E-19
2.05780E-03 3.98885E-19
2.13765E-03 3.69992E-19
2.21902E-03 3.43657E-19
2.30190E-03 3.19611E-19
2.38630E-03 2.97618E-19
2.47222E-03 2.77476E-19
2.55965E-03 2.59002E-19
2.64859E-03 2.42033E-19
2.73905E-03 2.26425E-19
2.83103E-03 2.12045E-19
2.92452E-03 1.98783E-19
3.01952E-03 1.86537E-19
3.11604E-03 1.75215E-19
3.21407E-03 1.64735E-19
3.31362E-03 1.55022E-19
3.41468E-03 1.46010E-19
3.51725E-03 1.37640E-19
3.62133E-03 1.29859E-19
3.72692E-03 1.22617E-19
3.83403E-03 1.15870E-19
3.94265E-03 1.09578E-19
4.05278E-03 1.03704E-19
4.16442E-03 9.82178E-20
4.27757E-03 9.30873E-20
4.39223E-03 8.82859E-20
4.50840E-03 8.37880E-20
4.62608E-03 7.95714E-20
4.74527E-03 7.56154E-20
4.86597E-03 7.19010E-20
4.98817E-03 6.84108E-20
5.11188E-03 6.51286E-20
5.23711E-03 6.20396E-20
5.36383E-03 5.91307E-20
5.49207E-03 5.63894E-20
5.62181E-03 5.38044E-20
5.75306E-03 5.13650E-20
5.88581E-03 4.90614E-20
6.02007E-03 4.68848E-20
6.15583E-03 4.48270E-20
6.29310E-03 4.28802E-20
6.43187E-03 4.10374E-20
6.57214E-03 3.92920E-20
6.71392E-03 3.76378E-20
6.85720E-03 3.60693E-20
7.00198E-03 3.45812E-20
7.14827E-03 3.31686E-20
7.29605E-03 3.18271E-20
7.44534E-03 3.05522E-20
7.59612E-03 2.93401E-20
7.97965E-03 2.65614E-20
8.37255E-03 2.41022E-20
8.77480E-03 2.19195E-20
9.18641E-03 1.99770E-20
9.60736E-03 1.82437E-20
1.00376E-02 1.66932E-20
1.04773E-02 1.53030E-20
1.09262E-02 1.40536E-20
1.13844E-02 1.29283E-20
1.18520E-02 1.19127E-20
1.23288E-02 1.09942E-20
1.28150E-02 1.01619E-20
1.33104E-02 9.40637E-21
1.38150E-02 8.71927E-21
1.43290E-02 8.09328E-21
1.48521E-02 7.52204E-21
1.53845E-02 6.99995E-21
1.59262E-02 6.52202E-21
1.64770E-02 6.08388E-21
1.70371E-02 5.68161E-21
1.76063E-02 5.31175E-21
1.81848E-02 4.97125E-21
1.87724E-02 4.65738E-21
1.93692E-02 4.36767E-21
1.99751E-02 4.09995E-21
2.05901E-02 3.85223E-21
2.12143E-02 3.62277E-21
2.18476E-02 3.40998E-21
2.24900E-02 3.21244E-21
2.31415E-02 3.02887E-21
2.38021E-02 2.85809E-21
2.44717E-02 2.69905E-21
2.51504E-02 2.55082E-21
2.58382E-02 2.41252E-21
2.65349E-02 2.28337E-21
2.72407E-02 2.16266E-21
2.79555E-02 2.04973E-21
2.86793E-02 1.94399E-21
2.94120E-02 1.84492E-21
3.01537E-02 1.75201E-21
3.09043E-02 1.66481E-21
3.16639E-02 1.58290E-21
3.24324E-02 1.50591E-21
3.32098E-02 1.43349E-21
3.39961E-02 1.36533E-21
3.47912E-02 1.30112E-21
3.55952E-02 1.24059E-21
3.64081E-02 1.18350E-21
3.72297E-02 1.12961E-21
3.80602E-02 1.07872E-21
3.88995E-02 1.03063E-21
3.97476E-02 9.85158E-22
4.06044E-02 9.42130E-22
4.14700E-02 9.01396E-22
4.23443E-02 8.62812E-22
4.32273E-02 8.26243E-22
4.41190E-02 7.91565E-22
4.50194E-02 7.58663E-22
4.59284E-02 7.27429E-22
4.68461E-02 6.97765E-22
4.87074E-02 6.42778E-22
5.06030E-02 5.93030E-22
5.25328E-02 5.47938E-22
5.44967E-02 5.06993E-22
5.64946E-02 4.69748E-22
5.85262E-02 4.35813E-22
6.05914E-02 4.04843E-22
6.26901E-02 3.76534E-22
6.48222E-02 3.50621E-22
6.69873E-02 3.26865E-22
6.91854E-02 3.05055E-22
7.14163E-02 2.85006E-22
7.36799E-02 2.66551E-22
7.59760E-02 2.49542E-22
7.83043E-02 2.33845E-22
8.06647E-02 2.19342E-22
8.30571E-02 2.05927E-22
8.54812E-02 1.93505E-22
8.79369E-02 1.81989E-22
9.04240E-02 1.71301E-22
9.29422E-02 1.61372E-22
9.54915E-02 1.52139E-22
9.80716E-02 1.43545E-22
1.00682E-01 1.35537E-22
1.03323E-01 1.28070E-22
1.05995E-01 1.21099E-22
1.08696E-01 1.14587E-22
1.11427E-01 1.08498E-22
1.14188E-01 1.02799E-22
1.16978E-01 9.74627E-23
1.19797E-01 9.24603E-23
1.22645E-01 8.77680E-23
1.25522E-01 8.33631E-23
1.28428E-01 7.92251E-23
1.31361E-01 7.53348E-23
1.34323E-01 7.16750E-23
1.37313E-01 6.82297E-23
1.40330E-01 6.49840E-23
1.43375E-01 6.19246E-23
1.46447E-01 5.90386E-23
1.49545E-01 5.63148E-23
1.52671E-01 5.37424E-23
1.55823E-01 5.13114E-23
1.59001E-01 4.90129E-23
1.62205E-01 4.68383E-23
1.65435E-01 4.47798E-23
1.68690E-01 4.28302E-23
1.71970E-01 4.09827E-23
1.75276E-01 3.92309E-23
1.78606E-01 3.75692E-23
1.81961E-01 3.59921E-23
1.85340E-01 3.44944E-23
1.88743E-01 3.30716E-23
1.92169E-01 3.17192E-23
1.95619E-01 3.04332E-23
1.99092E-01 2.92098E-23
2.02589E-01 2.80453E-23
2.06107E-01 2.69364E-23
2.09649E-01 2.58801E-23
2.13212E-01 2.48734E-23
2.16797E-01 2.39136E-23
2.20404E-01 2.29981E-23
2.24032E-01 2.21245E-23
2.27680E-01 2.12905E-23
2.31350E-01 2.04942E-23
2.35040E-01 1.97334E-23
2.38751E-01 1.90064E-23
2.42481E-01 1.83113E-23
2.46231E-01 1.76465E-23
2.50000E-01 1.70105E-23
2.53788E-01 1.64018E-23
2.57595E-01 1.58190E-23
2.61421E-01 1.52609E-23
2.65264E-01 1.47262E-23
2.69126E-01 1.42138E-23
2.73005E-01 1.37226E-23
2.76901E-01 1.32516E-23
2.80814E-01 1.27997E-23
2.84744E-01 1.23661E-23
2.88691E-01 1.19499E-23
2.92653E-01 1.15503E-23
2.96632E-01 1.11665E-23
3.00625E-01 1.07978E-23
3.04634E-01 1.04435E-23
3.08658E-01 1.01030E-23
3.12697E-01 9.77555E-24
3.16749E-01 9.46063E-24
3.20816E-01 9.15766E-24
3.24896E-01 8.86613E-24
3.28990E-01 8.58552E-24
3.33097E-01 8.31535E-24
3.37216E-01 8.05519E-24
3.41348E-01 7.80458E-24
3.45492E-01 7.56313E-24
3.49647E-01 7.33044E-24
3.53814E-01 7.10613E-24
3.57992E-01 6.88986E-24
3.62181E-01 6.68128E-24
3.66381E-01 6.48008E-24
3.70590E-01 6.28595E-24
3.74810E-01 6.09861E-24
3.79039E-01 5.91778E-24
3.83277E-01 5.74319E-24
3.87524E-01 5.57460E-24
3.91780E-01 5.41175E-24
3.96044E-01 5.25443E-24
4.00316E-01 5.10241E-24
4.04596E-01 4.95548E-24
4.08882E-01 4.81345E-24
4.13176E-01 4.67612E-24
4.17476E-01 4.54332E-24
4.21783E-01 4.41487E-24
4.26095E-01 4.29061E-24
4.30413E-01 4.17037E-24
4.34737E-01 4.05401E-24
4.39065E-01 3.94137E-24
4.43398E-01 3.83232E-24
4.47736E-01 3.72673E-24
4.52077E-01 3.62446E-24
4.56422E-01 3.52540E-24
4.60770E-01 3.42943E-24
4.65122E-01 3.33644E-24
4.69476E-01 3.24632E-24
4.73832E-01 3.15897E-24
4.78190E-01 3.07429E-24
4.82550E-01 2.99218E-24
4.86912E-01 2.91255E-24
4.91274E-01 2.83531E-24
4.95637E-01 2.76038E-24
5.00000E-01 2.68768E-24
5.04363E-01 2.61715E-24
5.08726E-01 2.54870E-24
5.13088E-01 2.48225E-24
5.17450E-01 2.41775E-24
5.21810E-01 2.35512E-24
5.26168E-01 2.29429E-24
5.30524E-01 2.23522E-24
5.34878E-01 2.17784E-24
5.39230E-01 2.12210E-24
5.43578E-01 2.06794E-24
5.47923E-01 2.01532E-24
5.52264E-01 1.96417E-24
5.56602E-01 1.91446E-24
5.60935E-01 1.86613E-24
5.65263E-01 1.81914E-24
5.69587E-01 1.77345E-24
5.73905E-01 1.72902E-24
5.78217E-01 1.68580E-24
5.82524E-01 1.64377E-24
5.86824E-01 1.60287E-24
5.91118E-01 1.56308E-24
5.95404E-01 1.52437E-24
5.99684E-01 1.48669E-24
6.03956E-01 1.45002E-24
6.08220E-01 1.41432E-24
6.12476E-01 1.37957E-24
6.16723E-01 1.34573E-24
6.20961E-01 1.31278E-24
6.25190E-01 1.28070E-24
6.29410E-01 1.24945E-24
6.33619E-01 1.21901E-24
6.37819E-01 1.18937E-24
6.42008E-01 1.16048E-24
6.46186E-01 1.13234E-24
6.50353E-01 1.10491E-24
6.54508E-01 1.07819E-24
6.58652E-01 1.05214E-24
6.62784E-01 1.02675E-24
6.66903E-01 1.00200E-24
6.71010E-01 9.77876E-25
6.75104E-01 9.54353E-25
6.79184E-01 9.31416E-25
6.83251E-01 9.09049E-25
6.87303E-01 8.87237E-25
6.91342E-01 8.65962E-25
6.95366E-01 8.45211E-25
6.99375E-01 8.24969E-25
7.03368E-01 8.05221E-25
7.07347E-01 7.85954E-25
7.11309E-01 7.67155E-25
7.15256E-01 7.48812E-25
7.19186E-01 7.30910E-25
7.23099E-01 7.13440E-25
7.26995E-01 6.96389E-25
7.30874E-01 6.79746E-25
7.34736E-01 6.63500E-25
7.38579E-01 6.47640E-25
7.42405E-01 6.32157E-25
7.46212E-01 6.17039E-25
7.50000E-01 6.02278E-25
7.53769E-01 5.87865E-25
7.57519E-01 5.73789E-25
7.61249E-01 5.60044E-25
7.64960E-01 5.46619E-25
7.68650E-01 5.33507E-25
7.72320E-01 5.20700E-25
7.75968E-01 5.08190E-25
7.79596E-01 4.95969E-25
7.83203E-01 4.84031E-25
7.86788E-01 4.72367E-25
7.90351E-01 4.60972E-25
7.93893E-01 4.49838E-25
7.97411E-01 4.38960E-25
8.00908E-01 4.28330E-25
8.04381E-01 4.17943E-25
8.07831E-01 4.07792E-25
8.11257E-01 3.97872E-25
8.14660E-01 3.88178E-25
8.18039E-01 3.78704E-25
8.21394E-01 3.69445E-25
8.24724E-01 3.60395E-25
8.28030E-01 3.51550E-25
8.31310E-01 3.42904E-25
8.34565E-01 3.34454E-25
8.37795E-01 3.26194E-25
8.40999E-01 3.18120E-25
8.44177E-01 3.10227E-25
8.47329E-01 3.02513E-25
8.50455E-01 2.94971E-25
8.53553E-01 2.87600E-25
8.56625E-01 2.80394E-25
8.59670E-01 2.73350E-25
8.62687E-01 2.66464E-25
8.65677E-01 2.59733E-25
8.68639E-01 2.53154E-25
8.71572E-01 2.46723E-25
8.74478E-01 2.40436E-25
8.77355E-01 2.34291E-25
8.80203E-01 2.28285E-25
8.83022E-01 2.22414E-25
8.85812E-01 2.16676E-25
8.88573E-01 2.11067E-25
8.91304E-01 2.05586E-25
8.94005E-01 2.00229E-25
8.96677E-01 1.94994E-25
8.99318E-01 1.89879E-25
9.01928E-01 1.84880E-25
9.04508E-01 1.79996E-25
9.07058E-01 1.75224E-25
9.09576E-01 1.70562E-25
9.12063E-01 1.66008E-25
9.14519E-01 1.61559E-25
9.16943E-01 1.57214E-25
9.19335E-01 1.52970E-25
9.21696E-01 1.48826E-25
9.24024E-01 1.44780E-25
9.26320E-01 1.40829E-25
9.28584E-01 1.36972E-25
9.30815E-01 1.33208E-25
9.33013E-01 1.29534E-25
9.35178E-01 1.25949E-25
9.37310E-01 1.22451E-25
9.39409E-01 1.19039E-25
9.41474E-01 1.15711E-25
9.43505E-01 1.12466E-25
9.45503E-01 1.09302E-25
9.47467E-01 1.06218E-25
9.49397E-01 1.03213E-25
9.51293E-01 1.00285E-25
9.53154E-01 9.74324E-26
9.54981E-01 9.46549E-26
9.56773E-01 9.19509E-26
9.58530E-01 8.93192E-26
9.60252E-01 8.67587E-26
9.61940E-01 8.42684E-26
9.63592E-01 8.18471E-26
9.65209E-01 7.94939E-26
9.66790E-01 7.72076E-26
9.68336E-01 7.49875E-26
9.69846E-01 7.28324E-26
9.71321E-01 7.07416E-26
9.72759E-01 6.87142E-26
9.74162E-01 6.67492E-26
9.75528E-01 6.48459E-26
9.76858E-01 6.30035E-26
9.78152E-01 6.12212E-26
9.79410E-01 5.94982E-26
9.80631E-01 5.78340E-26
9.81815E-01 5.62277E-26
9.82963E-01 5.46788E-26
9.84074E-01 5.31866E-26
9.85148E-01 5.17504E-26
9.86185E-01 5.03697E-26
9.87185E-01 4.90440E-26
9.88148E-01 4.77727E-26
9.89074E-01 4.65552E-26
9.89962E-01 4.53911E-26
9.90814E-01 4.42799E-26
9.91627E-01 4.32212E-26
9.92404E-01 4.22145E-26
9.93143E-01 4.12595E-26
9.93844E-01 4.03557E-26
9.94508E-01 3.95028E-26
9.95134E-01 3.87004E-26
9.95722E-01 3.79482E-26
9.96273E-01 3.72460E-26
9.96786E-01 3.65934E-26
9.97261E-01 3.59902E-26
9.97698E-01 3.54361E-26
9.98097E-01 3.49309E-26
9.98459E-01 3.44745E-26
9.98782E-01 3.40665E-26
9.99067E-01 3.37070E-26
9.99315E-01 3.33957E-26
9.99524E-01 3.31324E-26
9.99695E-01 3.29172E-26
9.99829E-01 3.27499E-26
9.99924E-01 3.26305E-26
9.99981E-01 3.25588E-26
1.00000E+00 3.25349E-26
