 #
 # Subroutine ELSEPA. Elastic scattering of electrons and positrons
 #                    by neutral atoms and positive ions
 #
 # Projectile: positron
 # Kinetic energy = 1.75000E+08 eV = 6.43113E+06 a.u.
 #
 # WARNING: High-energy factorization with free-atom DF screening.
 #          Absorption, polarization and exchange corrections are
 #          switched off.
 #          Phase shifts are calculated for the bare nucleus.
 #          Scattering amplitudes are not evaluated.
 #
 # Element: At,  Z =  85,  atomic weight = 2.09987E+02 g/mol
 #
 # Nuclear model: Fermi distribution
 #                Average radius = 6.35987E-13 cm
 #                Skin thickness = 5.46000E-14 cm
 #
 # Number of electrons = 85
 #
 # Total elastic cross section = 9.37254E-18 cm**2 = 3.34700E-01 a0**2
 # 1st transport cross section = 4.30723E-25 cm**2 = 1.53814E-08 a0**2
 # 2nd transport cross section = 1.28786E-24 cm**2 = 4.59903E-08 a0**2
 #
 #
 # Differential cross section:                       MU=(1-COS(THETA))/2
 #
 #  THETA        MU          DCS          DCS        Sherman      error
 #  (deg)                 (cm**2/sr)   (a0**2/sr)    function
 #----------------------------------------------------------------------
0.00000E+00 1.99955E-09
7.61557E-13 1.98796E-09
1.18994E-12 1.98150E-09
1.71346E-12 1.97366E-09
2.33225E-12 1.96445E-09
3.04617E-12 1.95392E-09
3.85530E-12 1.94209E-09
4.75964E-12 1.92900E-09
5.75917E-12 1.91469E-09
6.85391E-12 1.89921E-09
8.04379E-12 1.88249E-09
9.32893E-12 1.86469E-09
1.07092E-11 1.84609E-09
1.21847E-11 1.82647E-09
1.37554E-11 1.80572E-09
1.54213E-11 1.78439E-09
1.71823E-11 1.76234E-09
1.90386E-11 1.73914E-09
2.09900E-11 1.71560E-09
2.30367E-11 1.69167E-09
2.51785E-11 1.66655E-09
2.74156E-11 1.64133E-09
2.97478E-11 1.61607E-09
3.21752E-11 1.58958E-09
3.46979E-11 1.56318E-09
3.73157E-11 1.53695E-09
4.00286E-11 1.50977E-09
4.28368E-11 1.48268E-09
4.57402E-11 1.45593E-09
4.87388E-11 1.42853E-09
5.18325E-11 1.40120E-09
5.50215E-11 1.37434E-09
5.83057E-11 1.34713E-09
6.16850E-11 1.31994E-09
6.51595E-11 1.29334E-09
6.87293E-11 1.26667E-09
7.23943E-11 1.23995E-09
7.61544E-11 1.21390E-09
1.18991E-10 9.69485E-10
1.71347E-10 7.65080E-10
2.33223E-10 6.03060E-10
3.04617E-10 4.77993E-10
3.85531E-10 3.82435E-10
4.75965E-10 3.09396E-10
5.75917E-10 2.53126E-10
6.85389E-10 2.09362E-10
8.04380E-10 1.73883E-10
9.32891E-10 1.45839E-10
1.07092E-09 1.24378E-10
1.21847E-09 1.06708E-10
1.37554E-09 9.13804E-11
1.54213E-09 7.92421E-11
1.71823E-09 6.91851E-11
1.90386E-09 6.01665E-11
2.09900E-09 5.28300E-11
2.30367E-09 4.67255E-11
2.51785E-09 4.11564E-11
2.74156E-09 3.65263E-11
2.97478E-09 3.26452E-11
3.21752E-09 2.90819E-11
3.46978E-09 2.60622E-11
3.73156E-09 2.34889E-11
4.00286E-09 2.11511E-11
4.28368E-09 1.91219E-11
4.57402E-09 1.73681E-11
4.87388E-09 1.57805E-11
5.18326E-09 1.43763E-11
5.50215E-09 1.31482E-11
5.83057E-09 1.20360E-11
6.16850E-09 1.10367E-11
6.51596E-09 1.01538E-11
6.87293E-09 9.35303E-12
7.23942E-09 8.62339E-12
7.61544E-09 7.97320E-12
1.18991E-08 3.89987E-12
1.71347E-08 2.10646E-12
2.33223E-08 1.22946E-12
3.04617E-08 7.67106E-13
3.85531E-08 5.04480E-13
4.75965E-08 3.45800E-13
5.75917E-08 2.45261E-13
6.85389E-08 1.78833E-13
8.04380E-08 1.33360E-13
9.32891E-08 1.01617E-13
1.07092E-07 7.88087E-14
1.21847E-07 6.20206E-14
1.37554E-07 4.94960E-14
1.54213E-07 3.99902E-14
1.71823E-07 3.26655E-14
1.90386E-07 2.69446E-14
2.09900E-07 2.24126E-14
2.30367E-07 1.87952E-14
2.51785E-07 1.58787E-14
2.74156E-07 1.35061E-14
2.97478E-07 1.15599E-14
3.21752E-07 9.94919E-15
3.46978E-07 8.60974E-15
3.73156E-07 7.48845E-15
4.00286E-07 6.54402E-15
4.28368E-07 5.74398E-15
4.57402E-07 5.06214E-15
4.87388E-07 4.47876E-15
5.18325E-07 3.97727E-15
5.50215E-07 3.54422E-15
5.83057E-07 3.16865E-15
6.16850E-07 2.84144E-15
6.51596E-07 2.55553E-15
6.87293E-07 2.30477E-15
7.23942E-07 2.08410E-15
7.61543E-07 1.88927E-15
1.18991E-06 7.92973E-16
1.71347E-06 3.88449E-16
2.33223E-06 2.11864E-16
3.04617E-06 1.25104E-16
3.85531E-06 7.85333E-17
4.75964E-06 5.17511E-17
5.75916E-06 3.54735E-17
6.85388E-06 2.51221E-17
8.04378E-06 1.82859E-17
9.32888E-06 1.36249E-17
1.07092E-05 1.03587E-17
1.21846E-05 8.01501E-18
1.37553E-05 6.29811E-18
1.54212E-05 5.01716E-18
1.71822E-05 4.04582E-18
1.90385E-05 3.29625E-18
2.09899E-05 2.71621E-18
2.30365E-05 2.25780E-18
2.51783E-05 1.89146E-18
2.74153E-05 1.59597E-18
2.97475E-05 1.35573E-18
3.21749E-05 1.15900E-18
3.46974E-05 9.96776E-19
3.73152E-05 8.62081E-19
4.00281E-05 7.49470E-19
4.28362E-05 6.54689E-19
4.57395E-05 5.74413E-19
4.87380E-05 5.06032E-19
5.18317E-05 4.47491E-19
5.50205E-05 3.97146E-19
5.83045E-05 3.53671E-19
6.16838E-05 3.15985E-19
6.51582E-05 2.83192E-19
6.87277E-05 2.54550E-19
7.23925E-05 2.29443E-19
7.61524E-05 2.07532E-19
9.21439E-05 1.41783E-19
1.09658E-04 1.00117E-19
1.28695E-04 7.26930E-20
1.49255E-04 5.40442E-20
1.71338E-04 4.10093E-20
1.94942E-04 3.16770E-20
2.20070E-04 2.48540E-20
2.46720E-04 1.97727E-20
2.74892E-04 1.59259E-20
3.04586E-04 1.29704E-20
3.35803E-04 1.06697E-20
3.68542E-04 8.85703E-21
4.02802E-04 7.41335E-21
4.38585E-04 6.25211E-21
4.75889E-04 5.30945E-21
5.14715E-04 4.53790E-21
5.55063E-04 3.90141E-21
5.96931E-04 3.37265E-21
6.40321E-04 2.93043E-21
6.85233E-04 2.55829E-21
7.31665E-04 2.24336E-21
7.79618E-04 1.97536E-21
8.29092E-04 1.74620E-21
8.80086E-04 1.54933E-21
9.32601E-04 1.37931E-21
9.86636E-04 1.23189E-21
1.04219E-03 1.10361E-21
1.09927E-03 9.91550E-22
1.15786E-03 8.93317E-22
1.21797E-03 8.06916E-22
1.27961E-03 7.30676E-22
1.34276E-03 6.63195E-22
1.40743E-03 6.03297E-22
1.47362E-03 5.49978E-22
1.54133E-03 5.02395E-22
1.61056E-03 4.59820E-22
1.68131E-03 4.21636E-22
1.75357E-03 3.87310E-22
1.82735E-03 3.56385E-22
1.90265E-03 3.28464E-22
1.97947E-03 3.03205E-22
2.05780E-03 2.80309E-22
2.13765E-03 2.59516E-22
2.21902E-03 2.40598E-22
2.30190E-03 2.23358E-22
2.38630E-03 2.07620E-22
2.47222E-03 1.93229E-22
2.55965E-03 1.80050E-22
2.64859E-03 1.67964E-22
2.73905E-03 1.56862E-22
2.83103E-03 1.46652E-22
2.92452E-03 1.37248E-22
3.01952E-03 1.28575E-22
3.11604E-03 1.20568E-22
3.21407E-03 1.13164E-22
3.31362E-03 1.06312E-22
3.41468E-03 9.99622E-23
3.51725E-03 9.40715E-23
3.62133E-03 8.86010E-23
3.72692E-03 8.35153E-23
3.83403E-03 7.87825E-23
3.94265E-03 7.43738E-23
4.05278E-03 7.02630E-23
4.16442E-03 6.64266E-23
4.27757E-03 6.28428E-23
4.39223E-03 5.94922E-23
4.50840E-03 5.63569E-23
4.62608E-03 5.34206E-23
4.74527E-03 5.06685E-23
4.86597E-03 4.80869E-23
4.98817E-03 4.56634E-23
5.11188E-03 4.33867E-23
5.23711E-03 4.12463E-23
5.36383E-03 3.92326E-23
5.49207E-03 3.73367E-23
5.62181E-03 3.55507E-23
5.75306E-03 3.38670E-23
5.88581E-03 3.22787E-23
6.02007E-03 3.07795E-23
6.15583E-03 2.93635E-23
6.29310E-03 2.80253E-23
6.43187E-03 2.67599E-23
6.57214E-03 2.55626E-23
6.71392E-03 2.44291E-23
6.85720E-03 2.33555E-23
7.00198E-03 2.23380E-23
7.14827E-03 2.13733E-23
7.29605E-03 2.04580E-23
7.44534E-03 1.95893E-23
7.59612E-03 1.87643E-23
7.97965E-03 1.68768E-23
8.37255E-03 1.52114E-23
8.77480E-03 1.37379E-23
9.18641E-03 1.24308E-23
9.60736E-03 1.12685E-23
1.00376E-02 1.02324E-23
1.04773E-02 9.30673E-24
1.09262E-02 8.47803E-24
1.13844E-02 7.73458E-24
1.18520E-02 7.06632E-24
1.23288E-02 6.46452E-24
1.28150E-02 5.92160E-24
1.33104E-02 5.43096E-24
1.38150E-02 4.98685E-24
1.43290E-02 4.58421E-24
1.48521E-02 4.21863E-24
1.53845E-02 3.88621E-24
1.59262E-02 3.58353E-24
1.64770E-02 3.30757E-24
1.70371E-02 3.05563E-24
1.76063E-02 2.82535E-24
1.81848E-02 2.61461E-24
1.87724E-02 2.42154E-24
1.93692E-02 2.24446E-24
1.99751E-02 2.08187E-24
2.05901E-02 1.93244E-24
2.12143E-02 1.79497E-24
2.18476E-02 1.66838E-24
2.24900E-02 1.55170E-24
2.31415E-02 1.44407E-24
2.38021E-02 1.34469E-24
2.44717E-02 1.25286E-24
2.51504E-02 1.16794E-24
2.58382E-02 1.08934E-24
2.65349E-02 1.01655E-24
2.72407E-02 9.49085E-25
2.79555E-02 8.86514E-25
2.86793E-02 8.28443E-25
2.94120E-02 7.74514E-25
3.01537E-02 7.24399E-25
3.09043E-02 6.77802E-25
3.16639E-02 6.34450E-25
3.24324E-02 5.94094E-25
3.32098E-02 5.56507E-25
3.39961E-02 5.21481E-25
3.47912E-02 4.88824E-25
3.55952E-02 4.58362E-25
3.64081E-02 4.29932E-25
3.72297E-02 4.03388E-25
3.80602E-02 3.78593E-25
3.88995E-02 3.55421E-25
3.97476E-02 3.33759E-25
4.06044E-02 3.13498E-25
4.14700E-02 2.94541E-25
4.23443E-02 2.76798E-25
4.32273E-02 2.60184E-25
4.41190E-02 2.44623E-25
4.50194E-02 2.30042E-25
4.59284E-02 2.16375E-25
4.68461E-02 2.03561E-25
4.87074E-02 1.80268E-25
5.06030E-02 1.59754E-25
5.25328E-02 1.41669E-25
5.44967E-02 1.25708E-25
5.64946E-02 1.11609E-25
5.85262E-02 9.91423E-26
6.05914E-02 8.81108E-26
6.26901E-02 7.83414E-26
6.48222E-02 6.96835E-26
6.69873E-02 6.20057E-26
6.91854E-02 5.51927E-26
7.14163E-02 4.91438E-26
7.36799E-02 4.37705E-26
7.59760E-02 3.89950E-26
7.83043E-02 3.47490E-26
8.06647E-02 3.09723E-26
8.30571E-02 2.76117E-26
8.54812E-02 2.46205E-26
8.79369E-02 2.19572E-26
9.04240E-02 1.95853E-26
9.29422E-02 1.74725E-26
9.54915E-02 1.55899E-26
9.80716E-02 1.39123E-26
1.00682E-01 1.24170E-26
1.03323E-01 1.10840E-26
1.05995E-01 9.89570E-27
1.08696E-01 8.83616E-27
1.11427E-01 7.89137E-27
1.14188E-01 7.04884E-27
1.16978E-01 6.29747E-27
1.19797E-01 5.62737E-27
1.22645E-01 5.02971E-27
1.25522E-01 4.49664E-27
1.28428E-01 4.02118E-27
1.31361E-01 3.59709E-27
1.34323E-01 3.21881E-27
1.37313E-01 2.88137E-27
1.40330E-01 2.58036E-27
1.43375E-01 2.31184E-27
1.46447E-01 2.07228E-27
1.49545E-01 1.85854E-27
1.52671E-01 1.66783E-27
1.55823E-01 1.49765E-27
1.59001E-01 1.34577E-27
1.62205E-01 1.21019E-27
1.65435E-01 1.08915E-27
1.68690E-01 9.81065E-28
1.71970E-01 8.84519E-28
1.75276E-01 7.98255E-28
1.78606E-01 7.21151E-28
1.81961E-01 6.52207E-28
1.85340E-01 5.90532E-28
1.88743E-01 5.35329E-28
1.92169E-01 4.85892E-28
1.95619E-01 4.41590E-28
1.99092E-01 4.01860E-28
2.02589E-01 3.66204E-28
2.06107E-01 3.34175E-28
2.09649E-01 3.05378E-28
2.13212E-01 2.79460E-28
2.16797E-01 2.56108E-28
2.20404E-01 2.35044E-28
2.24032E-01 2.16018E-28
2.27680E-01 1.98813E-28
2.31350E-01 1.83230E-28
2.35040E-01 1.69098E-28
2.38751E-01 1.56261E-28
2.42481E-01 1.44583E-28
2.46231E-01 1.33941E-28
2.50000E-01 1.24228E-28
2.53788E-01 1.15348E-28
2.57595E-01 1.07214E-28
2.61421E-01 9.97531E-29
2.65264E-01 9.28963E-29
2.69126E-01 8.65843E-29
2.73005E-01 8.07642E-29
2.76901E-01 7.53889E-29
2.80814E-01 7.04163E-29
2.84744E-01 6.58093E-29
2.88691E-01 6.15347E-29
2.92653E-01 5.75627E-29
2.96632E-01 5.38672E-29
3.00625E-01 5.04244E-29
3.04634E-01 4.72133E-29
3.08658E-01 4.42150E-29
3.12697E-01 4.14126E-29
3.16749E-01 3.87910E-29
3.20816E-01 3.63363E-29
3.24896E-01 3.40364E-29
3.28990E-01 3.18799E-29
3.33097E-01 2.98569E-29
3.37216E-01 2.79582E-29
3.41348E-01 2.61753E-29
3.45492E-01 2.45007E-29
3.49647E-01 2.29275E-29
3.53814E-01 2.14491E-29
3.57992E-01 2.00598E-29
3.62181E-01 1.87541E-29
3.66381E-01 1.75269E-29
3.70590E-01 1.63737E-29
3.74810E-01 1.52901E-29
3.79039E-01 1.42720E-29
3.83277E-01 1.33157E-29
3.87524E-01 1.24177E-29
3.91780E-01 1.15747E-29
3.96044E-01 1.07835E-29
4.00316E-01 1.00413E-29
4.04596E-01 9.34527E-30
4.08882E-01 8.69284E-30
4.13176E-01 8.08157E-30
4.17476E-01 7.50912E-30
4.21783E-01 6.97330E-30
4.26095E-01 6.47203E-30
4.30413E-01 6.00334E-30
4.34737E-01 5.56537E-30
4.39065E-01 5.15633E-30
4.43398E-01 4.77456E-30
4.47736E-01 4.41845E-30
4.52077E-01 4.08648E-30
4.56422E-01 3.77724E-30
4.60770E-01 3.48935E-30
4.65122E-01 3.22151E-30
4.69476E-01 2.97252E-30
4.73832E-01 2.74120E-30
4.78190E-01 2.52645E-30
4.82550E-01 2.32724E-30
4.86912E-01 2.14257E-30
4.91274E-01 1.97153E-30
4.95637E-01 1.81321E-30
5.00000E-01 1.66679E-30
5.04363E-01 1.53149E-30
5.08726E-01 1.40656E-30
5.13088E-01 1.29129E-30
5.17450E-01 1.18504E-30
5.21810E-01 1.08717E-30
5.26168E-01 9.97102E-31
5.30524E-01 9.14287E-31
5.34878E-01 8.38205E-31
5.39230E-01 7.68372E-31
5.43578E-01 7.04331E-31
5.47923E-01 6.45655E-31
5.52264E-01 5.91944E-31
5.56602E-01 5.42823E-31
5.60935E-01 4.97942E-31
5.65263E-01 4.56973E-31
5.69587E-01 4.19611E-31
5.73905E-01 3.85570E-31
5.78217E-01 3.54585E-31
5.82524E-01 3.26408E-31
5.86824E-01 3.00809E-31
5.91118E-01 2.77575E-31
5.95404E-01 2.56505E-31
5.99684E-01 2.37417E-31
6.03956E-01 2.20138E-31
6.08220E-01 2.04512E-31
6.12476E-01 1.90391E-31
6.16723E-01 1.77640E-31
6.20961E-01 1.66136E-31
6.25190E-01 1.55762E-31
6.29410E-01 1.46412E-31
6.33619E-01 1.37990E-31
6.37819E-01 1.30406E-31
6.42008E-01 1.23577E-31
6.46186E-01 1.17429E-31
6.50353E-01 1.11891E-31
6.54508E-01 1.06903E-31
6.58652E-01 1.02405E-31
6.62784E-01 9.83449E-32
6.66903E-01 9.46760E-32
6.71010E-01 9.13545E-32
6.75104E-01 8.83410E-32
6.79184E-01 8.55999E-32
6.83251E-01 8.30992E-32
6.87303E-01 8.08098E-32
6.91342E-01 7.87055E-32
6.95366E-01 7.67629E-32
6.99375E-01 7.49610E-32
7.03368E-01 7.32810E-32
7.07347E-01 7.17062E-32
7.11309E-01 7.02217E-32
7.15256E-01 6.88144E-32
7.19186E-01 6.74725E-32
7.23099E-01 6.61860E-32
7.26995E-01 6.49459E-32
7.30874E-01 6.37443E-32
7.34736E-01 6.25746E-32
7.38579E-01 6.14309E-32
7.42405E-01 6.03083E-32
7.46212E-01 5.92026E-32
7.50000E-01 5.81103E-32
7.53769E-01 5.70285E-32
7.57519E-01 5.59547E-32
7.61249E-01 5.48871E-32
7.64960E-01 5.38241E-32
7.68650E-01 5.27648E-32
7.72320E-01 5.17083E-32
7.75968E-01 5.06540E-32
7.79596E-01 4.96018E-32
7.83203E-01 4.85515E-32
7.86788E-01 4.75034E-32
7.90351E-01 4.64575E-32
7.93893E-01 4.54144E-32
7.97411E-01 4.43746E-32
8.00908E-01 4.33385E-32
8.04381E-01 4.23069E-32
8.07831E-01 4.12804E-32
8.11257E-01 4.02598E-32
8.14660E-01 3.92457E-32
8.18039E-01 3.82389E-32
8.21394E-01 3.72402E-32
8.24724E-01 3.62504E-32
8.28030E-01 3.52700E-32
8.31310E-01 3.42999E-32
8.34565E-01 3.33407E-32
8.37795E-01 3.23931E-32
8.40999E-01 3.14576E-32
8.44177E-01 3.05350E-32
8.47329E-01 2.96256E-32
8.50455E-01 2.87301E-32
8.53553E-01 2.78488E-32
8.56625E-01 2.69823E-32
8.59670E-01 2.61308E-32
8.62687E-01 2.52948E-32
8.65677E-01 2.44745E-32
8.68639E-01 2.36703E-32
8.71572E-01 2.28822E-32
8.74478E-01 2.21106E-32
8.77355E-01 2.13556E-32
8.80203E-01 2.06173E-32
8.83022E-01 1.98957E-32
8.85812E-01 1.91910E-32
8.88573E-01 1.85031E-32
8.91304E-01 1.78320E-32
8.94005E-01 1.71778E-32
8.96677E-01 1.65403E-32
8.99318E-01 1.59194E-32
9.01928E-01 1.53151E-32
9.04508E-01 1.47271E-32
9.07058E-01 1.41555E-32
9.09576E-01 1.35999E-32
9.12063E-01 1.30602E-32
9.14519E-01 1.25362E-32
9.16943E-01 1.20277E-32
9.19335E-01 1.15344E-32
9.21696E-01 1.10561E-32
9.24024E-01 1.05926E-32
9.26320E-01 1.01436E-32
9.28584E-01 9.70889E-33
9.30815E-01 9.28810E-33
9.33013E-01 8.88100E-33
9.35178E-01 8.48730E-33
9.37310E-01 8.10672E-33
9.39409E-01 7.73896E-33
9.41474E-01 7.38375E-33
9.43505E-01 7.04078E-33
9.45503E-01 6.70976E-33
9.47467E-01 6.39040E-33
9.49397E-01 6.08241E-33
9.51293E-01 5.78550E-33
9.53154E-01 5.49938E-33
9.54981E-01 5.22376E-33
9.56773E-01 4.95837E-33
9.58530E-01 4.70292E-33
9.60252E-01 4.45713E-33
9.61940E-01 4.22074E-33
9.63592E-01 3.99348E-33
9.65209E-01 3.77509E-33
9.66790E-01 3.56530E-33
9.68336E-01 3.36387E-33
9.69846E-01 3.17055E-33
9.71321E-01 2.98509E-33
9.72759E-01 2.80727E-33
9.74162E-01 2.63684E-33
9.75528E-01 2.47360E-33
9.76858E-01 2.31732E-33
9.78152E-01 2.16778E-33
9.79410E-01 2.02479E-33
9.80631E-01 1.88815E-33
9.81815E-01 1.75765E-33
9.82963E-01 1.63312E-33
9.84074E-01 1.51437E-33
9.85148E-01 1.40124E-33
9.86185E-01 1.29354E-33
9.87185E-01 1.19113E-33
9.88148E-01 1.09385E-33
9.89074E-01 1.00154E-33
9.89962E-01 9.14078E-34
9.90814E-01 8.31312E-34
9.91627E-01 7.53114E-34
9.92404E-01 6.79365E-34
9.93143E-01 6.09946E-34
9.93844E-01 5.44747E-34
9.94508E-01 4.83660E-34
9.95134E-01 4.26590E-34
9.95722E-01 3.73438E-34
9.96273E-01 3.24121E-34
9.96786E-01 2.78555E-34
9.97261E-01 2.36667E-34
9.97698E-01 1.98384E-34
9.98097E-01 1.63643E-34
9.98459E-01 1.32387E-34
9.98782E-01 1.04561E-34
9.99067E-01 8.01214E-35
9.99315E-01 5.90224E-35
9.99524E-01 4.12302E-35
9.99695E-01 2.67147E-35
9.99829E-01 1.54500E-35
9.99924E-01 7.41767E-36
9.99981E-01 2.60387E-36
1.00000E+00 1.00015E-36
