 #
 # Subroutine ELSEPA. Elastic scattering of electrons and positrons
 #                    by neutral atoms and positive ions
 #
 # Projectile: positron
 # Kinetic energy = 7.00000E+08 eV = 2.57245E+07 a.u.
 #
 # WARNING: High-energy factorization with free-atom DF screening.
 #          Absorption, polarization and exchange corrections are
 #          switched off.
 #          Phase shifts are calculated for the bare nucleus.
 #          Scattering amplitudes are not evaluated.
 #
 # Element: At,  Z =  85,  atomic weight = 2.09987E+02 g/mol
 #
 # Nuclear model: Fermi distribution
 #                Average radius = 6.35987E-13 cm
 #                Skin thickness = 5.46000E-14 cm
 #
 # Number of electrons = 85
 #
 # Total elastic cross section = 9.36386E-18 cm**2 = 3.34390E-01 a0**2
 # 1st transport cross section = 2.73424E-26 cm**2 = 9.76416E-10 a0**2
 # 2nd transport cross section = 8.20102E-26 cm**2 = 2.92864E-09 a0**2
 #
 #
 # Differential cross section:                       MU=(1-COS(THETA))/2
 #
 #  THETA        MU          DCS          DCS        Sherman      error
 #  (deg)                 (cm**2/sr)   (a0**2/sr)    function
 #----------------------------------------------------------------------
0.00000E+00 3.18532E-08
7.61557E-13 2.91074E-08
1.18994E-12 2.77210E-08
1.71346E-12 2.61678E-08
2.33225E-12 2.45094E-08
3.04617E-12 2.27875E-08
3.85530E-12 2.10607E-08
4.75964E-12 1.93735E-08
5.75917E-12 1.77529E-08
6.85391E-12 1.62099E-08
8.04379E-12 1.47723E-08
9.32893E-12 1.34459E-08
1.07092E-11 1.22265E-08
1.21847E-11 1.11141E-08
1.37554E-11 1.01081E-08
1.54213E-11 9.20119E-09
1.71823E-11 8.38106E-09
1.90386E-11 7.64494E-09
2.09900E-11 6.98495E-09
2.30367E-11 6.39230E-09
2.51785E-11 5.85907E-09
2.74156E-11 5.38065E-09
2.97478E-11 4.95082E-09
3.21752E-11 4.56296E-09
3.46979E-11 4.21304E-09
3.73157E-11 3.89718E-09
4.00286E-11 3.61138E-09
4.28368E-11 3.35144E-09
4.57402E-11 3.11541E-09
4.87388E-11 2.89063E-09
5.18325E-11 2.68447E-09
5.50215E-11 2.50026E-09
5.83057E-11 2.33519E-09
6.16850E-11 2.18684E-09
6.51595E-11 2.05317E-09
6.87293E-11 1.93238E-09
7.23943E-11 1.82296E-09
7.61544E-11 1.70955E-09
1.18991E-10 9.64145E-10
1.71347E-10 5.85430E-10
2.33223E-10 3.76520E-10
3.04617E-10 2.53075E-10
3.85531E-10 1.77004E-10
4.75965E-10 1.27879E-10
5.75917E-10 9.47348E-11
6.85389E-10 7.14902E-11
8.04380E-10 5.49022E-11
9.32891E-10 4.28069E-11
1.07092E-09 3.38133E-11
1.21847E-09 2.70407E-11
1.37554E-09 2.18599E-11
1.54213E-09 1.78757E-11
1.71823E-09 1.47675E-11
1.90386E-09 1.23163E-11
2.09900E-09 1.03590E-11
2.30367E-09 8.77777E-12
2.51785E-09 7.48781E-12
2.74156E-09 6.42874E-12
2.97478E-09 5.55265E-12
3.21752E-09 4.82186E-12
3.46978E-09 4.20833E-12
3.73156E-09 3.68998E-12
4.00286E-09 3.24927E-12
4.28368E-09 2.87209E-12
4.57402E-09 2.54826E-12
4.87388E-09 2.26763E-12
5.18326E-09 2.02523E-12
5.50215E-09 1.81583E-12
5.83057E-09 1.63222E-12
6.16850E-09 1.47080E-12
6.51596E-09 1.32969E-12
6.87293E-09 1.20503E-12
7.23942E-09 1.09414E-12
7.61544E-09 9.96219E-13
1.18991E-08 4.32871E-13
1.71347E-08 2.17026E-13
2.33223E-08 1.20343E-13
3.04617E-08 7.19823E-14
3.85531E-08 4.56708E-14
4.75965E-08 3.03686E-14
5.75917E-08 2.09752E-14
6.85389E-08 1.49489E-14
8.04380E-08 1.09385E-14
9.32891E-08 8.18606E-15
1.07092E-07 6.24641E-15
1.21847E-07 4.84798E-15
1.37554E-07 3.81941E-15
1.54213E-07 3.04946E-15
1.71823E-07 2.46396E-15
1.90386E-07 2.01239E-15
2.09900E-07 1.65964E-15
2.30367E-07 1.38088E-15
2.51785E-07 1.15826E-15
2.74156E-07 9.78744E-16
2.97478E-07 8.32704E-16
3.21752E-07 7.12918E-16
3.46978E-07 6.13921E-16
3.73156E-07 5.31530E-16
4.00286E-07 4.62512E-16
4.28368E-07 4.04345E-16
4.57402E-07 3.55043E-16
4.87388E-07 3.13032E-16
5.18325E-07 2.77056E-16
5.50215E-07 2.46104E-16
5.83057E-07 2.19358E-16
6.16850E-07 1.96148E-16
6.51596E-07 1.75928E-16
6.87293E-07 1.58248E-16
7.23942E-07 1.42735E-16
7.61543E-07 1.29077E-16
1.18991E-06 5.31498E-17
1.71347E-06 2.57167E-17
2.33223E-06 1.39112E-17
3.04617E-06 8.16625E-18
3.85531E-06 5.10319E-18
4.75964E-06 3.35048E-18
5.75916E-06 2.28950E-18
6.85388E-06 1.61706E-18
8.04378E-06 1.17427E-18
9.32888E-06 8.73147E-19
1.07092E-05 6.62621E-19
1.21846E-05 5.11871E-19
1.37553E-05 4.01642E-19
1.54212E-05 3.19541E-19
1.71822E-05 2.57380E-19
1.90385E-05 2.09479E-19
2.09899E-05 1.72457E-19
2.30365E-05 1.43232E-19
2.51783E-05 1.19901E-19
2.74153E-05 1.01100E-19
2.97475E-05 8.58288E-20
3.21749E-05 7.33330E-20
3.46974E-05 6.30366E-20
3.73152E-05 5.44931E-20
4.00281E-05 4.73548E-20
4.28362E-05 4.13502E-20
4.57395E-05 3.62673E-20
4.87380E-05 3.19400E-20
5.18317E-05 2.82373E-20
5.50205E-05 2.50552E-20
5.83045E-05 2.23074E-20
6.16838E-05 1.99252E-20
6.51582E-05 1.78531E-20
6.87277E-05 1.60439E-20
7.23925E-05 1.44584E-20
7.61524E-05 1.33381E-20
9.21439E-05 9.11905E-21
1.09658E-04 6.44077E-21
1.28695E-04 4.67481E-21
1.49255E-04 3.47191E-21
1.71338E-04 2.62986E-21
1.94942E-04 2.02622E-21
2.20070E-04 1.58447E-21
2.46720E-04 1.25526E-21
2.74892E-04 1.00598E-21
3.04586E-04 8.14486E-22
3.35803E-04 6.65508E-22
3.68542E-04 5.48259E-22
4.02802E-04 4.55023E-22
4.38585E-04 3.80181E-22
4.75889E-04 3.19584E-22
5.14715E-04 2.70140E-22
5.55063E-04 2.29502E-22
5.96931E-04 1.95883E-22
6.40321E-04 1.67901E-22
6.85233E-04 1.44479E-22
7.31665E-04 1.24774E-22
7.79618E-04 1.08115E-22
8.29092E-04 9.39688E-23
8.80086E-04 8.19061E-23
9.32601E-04 7.15804E-23
9.86636E-04 6.27098E-23
1.04219E-03 5.50633E-23
1.09927E-03 4.84516E-23
1.15786E-03 4.27175E-23
1.21797E-03 3.77311E-23
1.27961E-03 3.33835E-23
1.34276E-03 2.95837E-23
1.40743E-03 2.62553E-23
1.47362E-03 2.33334E-23
1.54133E-03 2.07633E-23
1.61056E-03 1.84984E-23
1.68131E-03 1.64989E-23
1.75357E-03 1.47308E-23
1.82735E-03 1.31648E-23
1.90265E-03 1.17759E-23
1.97947E-03 1.05423E-23
2.05780E-03 9.44523E-24
2.13765E-03 8.46838E-24
2.21902E-03 7.59760E-24
2.30190E-03 6.82056E-24
2.38630E-03 6.12645E-24
2.47222E-03 5.50586E-24
2.55965E-03 4.95051E-24
2.64859E-03 4.45313E-24
2.73905E-03 4.00735E-24
2.83103E-03 3.60752E-24
2.92452E-03 3.24867E-24
3.01952E-03 2.92641E-24
3.11604E-03 2.63684E-24
3.21407E-03 2.37651E-24
3.31362E-03 2.14236E-24
3.41468E-03 1.93167E-24
3.51725E-03 1.74201E-24
3.62133E-03 1.57121E-24
3.72692E-03 1.41736E-24
3.83403E-03 1.27874E-24
3.94265E-03 1.15379E-24
4.05278E-03 1.04116E-24
4.16442E-03 9.39600E-25
4.27757E-03 8.48013E-25
4.39223E-03 7.65409E-25
4.50840E-03 6.90896E-25
4.62608E-03 6.23677E-25
4.74527E-03 5.63034E-25
4.86597E-03 5.08321E-25
4.98817E-03 4.58958E-25
5.11188E-03 4.14421E-25
5.23711E-03 3.74239E-25
5.36383E-03 3.37987E-25
5.49207E-03 3.05283E-25
5.62181E-03 2.75780E-25
5.75306E-03 2.49168E-25
5.88581E-03 2.25166E-25
6.02007E-03 2.03518E-25
6.15583E-03 1.83997E-25
6.29310E-03 1.66395E-25
6.43187E-03 1.50524E-25
6.57214E-03 1.36216E-25
6.71392E-03 1.23318E-25
6.85720E-03 1.11692E-25
7.00198E-03 1.01214E-25
7.14827E-03 9.17706E-26
7.29605E-03 8.32599E-26
7.44534E-03 7.55901E-26
7.59612E-03 6.86780E-26
7.97965E-03 5.42381E-26
8.37255E-03 4.30963E-26
8.77480E-03 3.44876E-26
9.18641E-03 2.78203E-26
9.60736E-03 2.26383E-26
1.00376E-02 1.85908E-26
1.04773E-02 1.54087E-26
1.09262E-02 1.28866E-26
1.13844E-02 1.08678E-26
1.18520E-02 9.23398E-27
1.23288E-02 7.89545E-27
1.28150E-02 6.78495E-27
1.33104E-02 5.85211E-27
1.38150E-02 5.05930E-27
1.43290E-02 4.37850E-27
1.48521E-02 3.78880E-27
1.53845E-02 3.27460E-27
1.59262E-02 2.82412E-27
1.64770E-02 2.42838E-27
1.70371E-02 2.08040E-27
1.76063E-02 1.77463E-27
1.81848E-02 1.50651E-27
1.87724E-02 1.27215E-27
1.93692E-02 1.06820E-27
1.99751E-02 8.91633E-28
2.05901E-02 7.39675E-28
2.12143E-02 6.09770E-28
2.18476E-02 4.99524E-28
2.24900E-02 4.06699E-28
2.31415E-02 3.29203E-28
2.38021E-02 2.65088E-28
2.44717E-02 2.12553E-28
2.51504E-02 1.69948E-28
2.58382E-02 1.35769E-28
2.65349E-02 1.08664E-28
2.72407E-02 8.74271E-29
2.79555E-02 7.09962E-29
2.86793E-02 5.84448E-29
2.94120E-02 4.89756E-29
3.01537E-02 4.19113E-29
3.09043E-02 3.66845E-29
3.16639E-02 3.28274E-29
3.24324E-02 2.99608E-29
3.32098E-02 2.77832E-29
3.39961E-02 2.60607E-29
3.47912E-02 2.46170E-29
3.55952E-02 2.33237E-29
3.64081E-02 2.20920E-29
3.72297E-02 2.08648E-29
3.80602E-02 1.96099E-29
3.88995E-02 1.83142E-29
3.97476E-02 1.69780E-29
4.06044E-02 1.56115E-29
4.14700E-02 1.42303E-29
4.23443E-02 1.28535E-29
4.32273E-02 1.15008E-29
4.41190E-02 1.01912E-29
4.50194E-02 8.94180E-30
4.59284E-02 7.76697E-30
4.68461E-02 6.67795E-30
4.87074E-02 4.78608E-30
5.06030E-02 3.29282E-30
5.25328E-02 2.18241E-30
5.44967E-02 1.40912E-30
5.64946E-02 9.10459E-31
5.85262E-02 6.18825E-31
6.05914E-02 4.70266E-31
6.26901E-02 4.10154E-31
6.48222E-02 3.95962E-31
6.69873E-02 3.97722E-31
6.91854E-02 3.96868E-31
7.14163E-02 3.84137E-31
7.36799E-02 3.57089E-31
7.59760E-02 3.17687E-31
7.83043E-02 2.70203E-31
8.06647E-02 2.19599E-31
8.30571E-02 1.70427E-31
8.54812E-02 1.26186E-31
8.79369E-02 8.90778E-32
9.04240E-02 6.00382E-32
9.29422E-02 3.89455E-32
9.54915E-02 2.49185E-32
9.80716E-02 1.66286E-32
1.00682E-01 1.25793E-32
1.03323E-01 1.13256E-32
1.05995E-01 1.16218E-32
1.08696E-01 1.25015E-32
1.11427E-01 1.32990E-32
1.14188E-01 1.36286E-32
1.16978E-01 1.33365E-32
1.19797E-01 1.24398E-32
1.22645E-01 1.10643E-32
1.25522E-01 9.38857E-33
1.28428E-01 7.60019E-33
1.31361E-01 5.86474E-33
1.34323E-01 4.30794E-33
1.37313E-01 3.00884E-33
1.40330E-01 2.00149E-33
1.43375E-01 1.28214E-33
1.46447E-01 8.19358E-34
1.49545E-01 5.64905E-34
1.52671E-01 4.63619E-34
1.55823E-01 4.61474E-34
1.59001E-01 5.11236E-34
1.62205E-01 5.75758E-34
1.65435E-01 6.29161E-34
1.68690E-01 6.56377E-34
1.71970E-01 6.51561E-34
1.75276E-01 6.15904E-34
1.78606E-01 5.55261E-34
1.81961E-01 4.77928E-34
1.85340E-01 3.92798E-34
1.88743E-01 3.07994E-34
1.92169E-01 2.29991E-34
1.95619E-01 1.63217E-34
1.99092E-01 1.10009E-34
2.02589E-01 7.08448E-35
2.06107E-01 4.47464E-35
2.09649E-01 2.97384E-35
2.13212E-01 2.33119E-35
2.16797E-01 2.28262E-35
2.20404E-01 2.58198E-35
2.24032E-01 3.02214E-35
2.27680E-01 3.44618E-35
2.31350E-01 3.75013E-35
2.35040E-01 3.87924E-35
2.38751E-01 3.81988E-35
2.42481E-01 3.58918E-35
2.46231E-01 3.22413E-35
2.50000E-01 2.77154E-35
2.53788E-01 2.27967E-35
2.57595E-01 1.79194E-35
2.61421E-01 1.34306E-35
2.65264E-01 9.57038E-36
2.69126E-01 6.47050E-36
2.73005E-01 4.16492E-36
2.76901E-01 2.60891E-36
2.80814E-01 1.70176E-36
2.84744E-01 1.31012E-36
2.88691E-01 1.28871E-36
2.92653E-01 1.49740E-36
2.96632E-01 1.81352E-36
3.00625E-01 2.13928E-36
3.04634E-01 2.40495E-36
3.08658E-01 2.56833E-36
3.12697E-01 2.61170E-36
3.16749E-01 2.53710E-36
3.20816E-01 2.36077E-36
3.24896E-01 2.10768E-36
3.28990E-01 1.80659E-36
3.33097E-01 1.48597E-36
3.37216E-01 1.17096E-36
3.41348E-01 8.81590E-37
3.45492E-01 6.31788E-37
3.49647E-01 4.29409E-37
3.53814E-01 2.76788E-37
3.57992E-01 1.71674E-37
3.62181E-01 1.08529E-37
3.66381E-01 7.96796E-38
3.70590E-01 7.65089E-38
3.74810E-01 9.04299E-38
3.79039E-01 1.13596E-37
3.83277E-01 1.39447E-37
3.87524E-01 1.62942E-37
3.91780E-01 1.80660E-37
3.96044E-01 1.90690E-37
4.00316E-01 1.92433E-37
4.04596E-01 1.86333E-37
4.08882E-01 1.73575E-37
4.13176E-01 1.55793E-37
4.17476E-01 1.34792E-37
4.21783E-01 1.12368E-37
4.26095E-01 9.01126E-38
4.30413E-01 6.93301E-38
4.34737E-01 5.09663E-38
4.39065E-01 3.56246E-38
4.43398E-01 1.00000E-45
4.47736E-01 1.00000E-45
4.52077E-01 1.00000E-45
4.56422E-01 1.00000E-45
4.60770E-01 1.00000E-45
4.65122E-01 1.00000E-45
4.69476E-01 1.00000E-45
4.73832E-01 1.00000E-45
4.78190E-01 1.00000E-45
4.82550E-01 1.00000E-45
4.86912E-01 1.00000E-45
4.91274E-01 1.00000E-45
4.95637E-01 1.00000E-45
5.00000E-01 1.00000E-45
5.04363E-01 1.00000E-45
5.08726E-01 1.00000E-45
5.13088E-01 1.00000E-45
5.17450E-01 1.00000E-45
5.21810E-01 1.00000E-45
5.26168E-01 1.00000E-45
5.30524E-01 1.00000E-45
5.34878E-01 1.00000E-45
5.39230E-01 1.00000E-45
5.43578E-01 1.00000E-45
5.47923E-01 1.00000E-45
5.52264E-01 1.00000E-45
5.56602E-01 1.00000E-45
5.60935E-01 1.00000E-45
5.65263E-01 1.00000E-45
5.69587E-01 1.00000E-45
5.73905E-01 1.00000E-45
5.78217E-01 1.00000E-45
5.82524E-01 1.00000E-45
5.86824E-01 1.00000E-45
5.91118E-01 1.00000E-45
5.95404E-01 1.00000E-45
5.99684E-01 1.00000E-45
6.03956E-01 1.00000E-45
6.08220E-01 1.00000E-45
6.12476E-01 1.00000E-45
6.16723E-01 1.00000E-45
6.20961E-01 1.00000E-45
6.25190E-01 1.00000E-45
6.29410E-01 1.00000E-45
6.33619E-01 1.00000E-45
6.37819E-01 1.00000E-45
6.42008E-01 1.00000E-45
6.46186E-01 1.00000E-45
6.50353E-01 1.00000E-45
6.54508E-01 1.00000E-45
6.58652E-01 1.00000E-45
6.62784E-01 1.00000E-45
6.66903E-01 1.00000E-45
6.71010E-01 1.00000E-45
6.75104E-01 1.00000E-45
6.79184E-01 1.00000E-45
6.83251E-01 1.00000E-45
6.87303E-01 1.00000E-45
6.91342E-01 1.00000E-45
6.95366E-01 1.00000E-45
6.99375E-01 1.00000E-45
7.03368E-01 1.00000E-45
7.07347E-01 1.00000E-45
7.11309E-01 1.00000E-45
7.15256E-01 1.00000E-45
7.19186E-01 1.00000E-45
7.23099E-01 1.00000E-45
7.26995E-01 1.00000E-45
7.30874E-01 1.00000E-45
7.34736E-01 1.00000E-45
7.38579E-01 1.00000E-45
7.42405E-01 1.00000E-45
7.46212E-01 1.00000E-45
7.50000E-01 1.00000E-45
7.53769E-01 1.00000E-45
7.57519E-01 1.00000E-45
7.61249E-01 1.00000E-45
7.64960E-01 1.00000E-45
7.68650E-01 1.00000E-45
7.72320E-01 1.00000E-45
7.75968E-01 1.00000E-45
7.79596E-01 1.00000E-45
7.83203E-01 1.00000E-45
7.86788E-01 1.00000E-45
7.90351E-01 1.00000E-45
7.93893E-01 1.00000E-45
7.97411E-01 1.00000E-45
8.00908E-01 1.00000E-45
8.04381E-01 1.00000E-45
8.07831E-01 1.00000E-45
8.11257E-01 1.00000E-45
8.14660E-01 1.00000E-45
8.18039E-01 1.00000E-45
8.21394E-01 1.00000E-45
8.24724E-01 1.00000E-45
8.28030E-01 1.00000E-45
8.31310E-01 1.00000E-45
8.34565E-01 1.00000E-45
8.37795E-01 1.00000E-45
8.40999E-01 1.00000E-45
8.44177E-01 1.00000E-45
8.47329E-01 1.00000E-45
8.50455E-01 1.00000E-45
8.53553E-01 1.00000E-45
8.56625E-01 1.00000E-45
8.59670E-01 1.00000E-45
8.62687E-01 1.00000E-45
8.65677E-01 1.00000E-45
8.68639E-01 1.00000E-45
8.71572E-01 1.00000E-45
8.74478E-01 1.00000E-45
8.77355E-01 1.00000E-45
8.80203E-01 1.00000E-45
8.83022E-01 1.00000E-45
8.85812E-01 1.00000E-45
8.88573E-01 1.00000E-45
8.91304E-01 1.00000E-45
8.94005E-01 1.00000E-45
8.96677E-01 1.00000E-45
8.99318E-01 1.00000E-45
9.01928E-01 1.00000E-45
9.04508E-01 1.00000E-45
9.07058E-01 1.00000E-45
9.09576E-01 1.00000E-45
9.12063E-01 1.00000E-45
9.14519E-01 1.00000E-45
9.16943E-01 1.00000E-45
9.19335E-01 1.00000E-45
9.21696E-01 1.00000E-45
9.24024E-01 1.00000E-45
9.26320E-01 1.00000E-45
9.28584E-01 1.00000E-45
9.30815E-01 1.00000E-45
9.33013E-01 1.00000E-45
9.35178E-01 1.00000E-45
9.37310E-01 1.00000E-45
9.39409E-01 1.00000E-45
9.41474E-01 1.00000E-45
9.43505E-01 1.00000E-45
9.45503E-01 1.00000E-45
9.47467E-01 1.00000E-45
9.49397E-01 1.00000E-45
9.51293E-01 1.00000E-45
9.53154E-01 1.00000E-45
9.54981E-01 1.00000E-45
9.56773E-01 1.00000E-45
9.58530E-01 1.00000E-45
9.60252E-01 1.00000E-45
9.61940E-01 1.00000E-45
9.63592E-01 1.00000E-45
9.65209E-01 1.00000E-45
9.66790E-01 1.00000E-45
9.68336E-01 1.00000E-45
9.69846E-01 1.00000E-45
9.71321E-01 1.00000E-45
9.72759E-01 1.00000E-45
9.74162E-01 1.00000E-45
9.75528E-01 1.00000E-45
9.76858E-01 1.00000E-45
9.78152E-01 1.00000E-45
9.79410E-01 1.00000E-45
9.80631E-01 1.00000E-45
9.81815E-01 1.00000E-45
9.82963E-01 1.00000E-45
9.84074E-01 1.00000E-45
9.85148E-01 1.00000E-45
9.86185E-01 1.00000E-45
9.87185E-01 1.00000E-45
9.88148E-01 1.00000E-45
9.89074E-01 1.00000E-45
9.89962E-01 1.00000E-45
9.90814E-01 1.00000E-45
9.91627E-01 1.00000E-45
9.92404E-01 1.00000E-45
9.93143E-01 1.00000E-45
9.93844E-01 1.00000E-45
9.94508E-01 1.00000E-45
9.95134E-01 1.00000E-45
9.95722E-01 1.00000E-45
9.96273E-01 1.00000E-45
9.96786E-01 1.00000E-45
9.97261E-01 1.00000E-45
9.97698E-01 1.00000E-45
9.98097E-01 1.00000E-45
9.98459E-01 1.00000E-45
9.98782E-01 1.00000E-45
9.99067E-01 1.00000E-45
9.99315E-01 1.00000E-45
9.99524E-01 1.00000E-45
9.99695E-01 1.00000E-45
9.99829E-01 1.00000E-45
9.99924E-01 1.00000E-45
9.99981E-01 1.00000E-45
1.00000E+00 1.00000E-45
