 #
 # Subroutine ELSEPA. Elastic scattering of electrons and positrons
 #                    by neutral atoms and positive ions
 #
 # Projectile: positron
 # Kinetic energy = 9.00000E+08 eV = 3.30744E+07 a.u.
 #
 # WARNING: High-energy factorization with free-atom DF screening.
 #          Absorption, polarization and exchange corrections are
 #          switched off.
 #          Phase shifts are calculated for the bare nucleus.
 #          Scattering amplitudes are not evaluated.
 #
 # Element: At,  Z =  85,  atomic weight = 2.09987E+02 g/mol
 #
 # Nuclear model: Fermi distribution
 #                Average radius = 6.35987E-13 cm
 #                Skin thickness = 5.46000E-14 cm
 #
 # Number of electrons = 85
 #
 # Total elastic cross section = 9.34361E-18 cm**2 = 3.33666E-01 a0**2
 # 1st transport cross section = 1.65445E-26 cm**2 = 5.90815E-10 a0**2
 # 2nd transport cross section = 4.96272E-26 cm**2 = 1.77222E-09 a0**2
 #
 #
 # Differential cross section:                       MU=(1-COS(THETA))/2
 #
 #  THETA        MU          DCS          DCS        Sherman      error
 #  (deg)                 (cm**2/sr)   (a0**2/sr)    function
 #----------------------------------------------------------------------
0.00000E+00 5.26383E-08
7.61557E-13 4.54596E-08
1.18994E-12 4.20869E-08
1.71346E-12 3.84784E-08
2.33225E-12 3.48074E-08
3.04617E-12 3.12434E-08
3.85530E-12 2.78636E-08
4.75964E-12 2.47449E-08
5.75917E-12 2.19276E-08
6.85391E-12 1.93987E-08
8.04379E-12 1.71664E-08
9.32893E-12 1.52093E-08
1.07092E-11 1.34924E-08
1.21847E-11 1.19996E-08
1.37554E-11 1.07003E-08
1.54213E-11 9.56703E-09
1.71823E-11 8.58104E-09
1.90386E-11 7.71934E-09
2.09900E-11 6.96457E-09
2.30367E-11 6.30288E-09
2.51785E-11 5.71924E-09
2.74156E-11 5.20369E-09
2.97478E-11 4.72761E-09
3.21752E-11 4.30320E-09
3.46979E-11 3.93541E-09
3.73157E-11 3.61518E-09
4.00286E-11 3.33506E-09
4.28368E-11 3.08895E-09
4.57402E-11 2.85259E-09
4.87388E-11 2.62838E-09
5.18325E-11 2.43027E-09
5.50215E-11 2.25456E-09
5.83057E-11 2.09818E-09
6.16850E-11 1.95852E-09
6.51595E-11 1.82557E-09
6.87293E-11 1.69705E-09
7.23943E-11 1.58176E-09
7.61544E-11 1.47804E-09
1.18991E-10 7.96309E-10
1.71347E-10 4.66620E-10
2.33223E-10 2.92649E-10
3.04617E-10 1.93659E-10
3.85531E-10 1.33035E-10
4.75965E-10 9.41769E-11
5.75917E-10 6.83913E-11
6.85389E-10 5.07355E-11
8.04380E-10 3.83645E-11
9.32891E-10 2.95571E-11
1.07092E-09 2.31622E-11
1.21847E-09 1.84297E-11
1.37554E-09 1.48551E-11
1.54213E-09 1.21096E-11
1.71823E-09 9.97615E-12
1.90386E-09 8.29653E-12
2.09900E-09 6.95851E-12
2.30367E-09 5.88136E-12
2.51785E-09 5.00451E-12
2.74156E-09 4.28530E-12
2.97478E-09 3.68861E-12
3.21752E-09 3.19425E-12
3.46978E-09 2.78220E-12
3.73156E-09 2.43202E-12
4.00286E-09 2.13746E-12
4.28368E-09 1.88497E-12
4.57402E-09 1.66923E-12
4.87388E-09 1.48389E-12
5.18326E-09 1.32299E-12
5.50215E-09 1.18412E-12
5.83057E-09 1.06231E-12
6.16850E-09 9.56135E-13
6.51596E-09 8.62894E-13
6.87293E-09 7.80579E-13
7.23942E-09 7.08175E-13
7.61544E-09 6.43556E-13
1.18991E-08 2.75774E-13
1.71347E-08 1.36945E-13
2.33223E-08 7.55223E-14
3.04617E-08 4.50191E-14
3.85531E-08 2.84828E-14
4.75965E-08 1.88868E-14
5.75917E-08 1.30095E-14
6.85389E-08 9.24823E-15
8.04380E-08 6.75181E-15
9.32891E-08 5.04290E-15
1.07092E-07 3.84164E-15
1.21847E-07 2.97752E-15
1.37554E-07 2.34318E-15
1.54213E-07 1.86911E-15
1.71823E-07 1.50909E-15
1.90386E-07 1.23174E-15
2.09900E-07 1.01528E-15
2.30367E-07 8.44366E-16
2.51785E-07 7.07958E-16
2.74156E-07 5.98023E-16
2.97478E-07 5.08626E-16
3.21752E-07 4.35329E-16
3.46978E-07 3.74775E-16
3.73156E-07 3.24397E-16
4.00286E-07 2.82204E-16
4.28368E-07 2.46654E-16
4.57402E-07 2.16531E-16
4.87388E-07 1.90868E-16
5.18325E-07 1.68897E-16
5.50215E-07 1.49998E-16
5.83057E-07 1.33669E-16
6.16850E-07 1.19503E-16
6.51596E-07 1.07164E-16
6.87293E-07 9.63771E-17
7.23942E-07 8.69136E-17
7.61543E-07 7.85833E-17
1.18991E-06 3.23112E-17
1.71347E-06 1.56175E-17
2.33223E-06 8.44170E-18
3.04617E-06 4.95276E-18
3.85531E-06 3.09374E-18
4.75964E-06 2.03054E-18
5.75916E-06 1.38719E-18
6.85388E-06 9.79574E-19
8.04378E-06 7.11234E-19
9.32888E-06 5.28780E-19
1.07092E-05 4.01244E-19
1.21846E-05 3.09932E-19
1.37553E-05 2.43173E-19
1.54212E-05 1.93454E-19
1.71822E-05 1.55813E-19
1.90385E-05 1.26809E-19
2.09899E-05 1.04394E-19
2.30365E-05 8.67011E-20
2.51783E-05 7.25772E-20
2.74153E-05 6.11966E-20
2.97475E-05 5.19528E-20
3.21749E-05 4.43906E-20
3.46974E-05 3.81605E-20
3.73152E-05 3.29873E-20
4.00281E-05 2.86650E-20
4.28362E-05 2.50294E-20
4.57395E-05 2.19519E-20
4.87380E-05 1.93318E-20
5.18317E-05 1.70898E-20
5.50205E-05 1.51625E-20
5.83045E-05 1.34989E-20
6.16838E-05 1.20574E-20
6.51582E-05 1.08035E-20
6.87277E-05 9.70869E-21
7.23925E-05 8.74927E-21
7.61524E-05 8.10269E-21
9.21439E-05 5.52835E-21
1.09658E-04 3.89398E-21
1.28695E-04 2.81665E-21
1.49255E-04 2.08331E-21
1.71338E-04 1.57053E-21
1.94942E-04 1.20349E-21
2.20070E-04 9.35408E-22
2.46720E-04 7.36113E-22
2.74892E-04 5.85629E-22
3.04586E-04 4.70415E-22
3.35803E-04 3.81119E-22
3.68542E-04 3.11137E-22
4.02802E-04 2.55749E-22
4.38585E-04 2.11517E-22
4.75889E-04 1.75905E-22
5.14715E-04 1.47023E-22
5.55063E-04 1.23440E-22
5.96931E-04 1.04068E-22
6.40321E-04 8.80635E-23
6.85233E-04 7.47738E-23
7.31665E-04 6.36868E-23
7.79618E-04 5.43966E-23
8.29092E-04 4.65815E-23
8.80086E-04 3.99827E-23
9.32601E-04 3.43923E-23
9.86636E-04 2.96414E-23
1.04219E-03 2.55922E-23
1.09927E-03 2.21321E-23
1.15786E-03 1.91680E-23
1.21797E-03 1.66231E-23
1.27961E-03 1.44336E-23
1.34276E-03 1.25463E-23
1.40743E-03 1.09166E-23
1.47362E-03 9.50700E-24
1.54133E-03 8.28609E-24
1.61056E-03 7.22713E-24
1.68131E-03 6.30752E-24
1.75357E-03 5.50803E-24
1.82735E-03 4.81226E-24
1.90265E-03 4.20621E-24
1.97947E-03 3.67787E-24
2.05780E-03 3.21695E-24
2.13765E-03 2.81458E-24
2.21902E-03 2.46312E-24
2.30190E-03 2.15599E-24
2.38630E-03 1.88748E-24
2.47222E-03 1.65266E-24
2.55965E-03 1.44724E-24
2.64859E-03 1.26749E-24
2.73905E-03 1.11019E-24
2.83103E-03 9.72510E-25
2.92452E-03 8.51999E-25
3.01952E-03 7.46511E-25
3.11604E-03 6.54177E-25
3.21407E-03 5.73361E-25
3.31362E-03 5.02631E-25
3.41468E-03 4.40737E-25
3.51725E-03 3.86581E-25
3.62133E-03 3.39204E-25
3.72692E-03 2.97765E-25
3.83403E-03 2.61524E-25
3.94265E-03 2.29836E-25
4.05278E-03 2.02133E-25
4.16442E-03 1.77916E-25
4.27757E-03 1.56750E-25
4.39223E-03 1.38252E-25
4.50840E-03 1.22086E-25
4.62608E-03 1.07956E-25
4.74527E-03 9.56061E-26
4.86597E-03 8.48088E-26
4.98817E-03 7.53663E-26
5.11188E-03 6.71050E-26
5.23711E-03 5.98730E-26
5.36383E-03 5.35375E-26
5.49207E-03 4.79825E-26
5.62181E-03 4.31065E-26
5.75306E-03 3.88211E-26
5.88581E-03 3.50490E-26
6.02007E-03 3.17231E-26
6.15583E-03 2.87849E-26
6.29310E-03 2.61834E-26
6.43187E-03 2.38745E-26
6.57214E-03 2.18199E-26
6.71392E-03 1.99862E-26
6.85720E-03 1.83448E-26
7.00198E-03 1.68707E-26
7.14827E-03 1.55426E-26
7.29605E-03 1.43418E-26
7.44534E-03 1.32524E-26
7.59612E-03 1.22607E-26
7.97965E-03 1.01351E-26
8.37255E-03 8.40723E-27
8.77480E-03 6.97899E-27
9.18641E-03 5.78351E-27
9.60736E-03 4.77466E-27
1.00376E-02 3.91999E-27
1.04773E-02 3.19586E-27
1.09262E-02 2.58427E-27
1.13844E-02 2.07070E-27
1.18520E-02 1.64289E-27
1.23288E-02 1.28998E-27
1.28150E-02 1.00215E-27
1.33104E-02 7.70358E-28
1.38150E-02 5.86301E-28
1.43290E-02 4.42365E-28
1.48521E-02 3.31660E-28
1.53845E-02 2.48031E-28
1.59262E-02 1.86067E-28
1.64770E-02 1.41092E-28
1.70371E-02 1.09144E-28
1.76063E-02 8.69299E-29
1.81848E-02 7.17715E-29
1.87724E-02 6.15443E-29
1.93692E-02 5.46073E-29
1.99751E-02 4.97330E-29
2.05901E-02 4.60389E-29
2.12143E-02 4.29214E-29
2.18476E-02 3.99971E-29
2.24900E-02 3.70492E-29
2.31415E-02 3.39828E-29
2.38021E-02 3.07859E-29
2.44717E-02 2.74995E-29
2.51504E-02 2.41929E-29
2.58382E-02 2.09462E-29
2.65349E-02 1.78371E-29
2.72407E-02 1.49333E-29
2.79555E-02 1.22869E-29
2.86793E-02 9.93307E-30
2.94120E-02 7.88989E-30
3.01537E-02 6.15990E-30
3.09043E-02 4.73244E-30
3.16639E-02 3.58658E-30
3.24324E-02 2.69398E-30
3.32098E-02 2.02182E-30
3.39961E-02 1.53521E-30
3.47912E-02 1.19944E-30
3.55952E-02 9.81544E-31
3.64081E-02 8.51591E-31
3.72297E-02 7.83451E-31
3.80602E-02 7.55216E-31
3.88995E-02 7.49292E-31
3.97476E-02 7.52241E-31
4.06044E-02 7.54432E-31
4.14700E-02 7.49570E-31
4.23443E-02 7.34159E-31
4.32273E-02 7.06929E-31
4.41190E-02 6.68291E-31
4.50194E-02 6.19825E-31
4.59284E-02 5.63834E-31
4.68461E-02 5.02962E-31
4.87074E-02 3.77154E-31
5.06030E-02 2.60871E-31
5.25328E-02 1.66143E-31
5.44967E-02 9.77849E-32
5.64946E-02 5.46847E-32
5.85262E-02 3.19858E-32
6.05914E-02 2.33032E-32
6.26901E-02 2.24643E-32
6.48222E-02 2.45757E-32
6.69873E-02 2.64423E-32
6.91854E-02 2.64946E-32
7.14163E-02 2.44220E-32
7.36799E-02 2.06998E-32
7.59760E-02 1.61430E-32
7.83043E-02 1.15696E-32
8.06647E-02 7.59762E-33
8.30571E-02 4.56703E-33
8.54812E-02 2.55407E-33
8.79369E-02 1.43907E-33
9.04240E-02 9.93170E-34
9.29422E-02 9.58148E-34
9.54915E-02 1.10497E-33
9.80716E-02 1.26629E-33
1.00682E-01 1.34543E-33
1.03323E-01 1.30837E-33
1.05995E-01 1.16624E-33
1.08696E-01 9.55256E-34
1.11427E-01 7.19059E-34
1.14188E-01 4.95971E-34
1.16978E-01 3.12109E-34
1.19797E-01 1.79547E-34
1.22645E-01 9.81311E-35
1.25522E-01 5.92401E-35
1.28428E-01 5.00615E-35
1.31361E-01 5.73071E-35
1.34323E-01 6.98125E-35
1.37313E-01 7.98715E-35
1.40330E-01 8.34635E-35
1.43375E-01 7.97016E-35
1.46447E-01 6.98685E-35
1.49545E-01 5.63656E-35
1.52671E-01 4.18077E-35
1.55823E-01 2.83884E-35
1.59001E-01 1.75478E-35
1.62205E-01 9.90475E-36
1.65435E-01 5.37659E-36
1.68690E-01 3.40114E-36
1.71970E-01 3.18242E-36
1.75276E-01 3.90476E-36
1.78606E-01 4.88380E-36
1.81961E-01 5.64580E-36
1.85340E-01 5.94286E-36
1.88743E-01 5.72193E-36
1.92169E-01 5.06821E-36
1.95619E-01 4.14142E-36
1.99092E-01 3.11912E-36
2.02589E-01 2.15525E-36
2.06107E-01 1.35662E-36
2.09649E-01 7.75827E-37
2.13212E-01 4.16785E-37
2.16797E-01 2.47733E-37
2.20404E-01 2.16933E-37
2.24032E-01 2.67382E-37
2.27680E-01 3.48044E-37
2.31350E-01 4.20670E-37
2.35040E-01 4.62308E-37
2.38751E-01 4.64367E-37
2.42481E-01 4.29489E-37
2.46231E-01 3.67429E-37
2.50000E-01 2.90993E-37
2.53788E-01 2.12697E-37
2.57595E-01 1.42517E-37
2.61421E-01 8.67732E-38
2.65264E-01 1.00000E-45
2.69126E-01 1.00000E-45
2.73005E-01 1.00000E-45
2.76901E-01 1.00000E-45
2.80814E-01 1.00000E-45
2.84744E-01 1.00000E-45
2.88691E-01 1.00000E-45
2.92653E-01 1.00000E-45
2.96632E-01 1.00000E-45
3.00625E-01 1.00000E-45
3.04634E-01 1.00000E-45
3.08658E-01 1.00000E-45
3.12697E-01 1.00000E-45
3.16749E-01 1.00000E-45
3.20816E-01 1.00000E-45
3.24896E-01 1.00000E-45
3.28990E-01 1.00000E-45
3.33097E-01 1.00000E-45
3.37216E-01 1.00000E-45
3.41348E-01 1.00000E-45
3.45492E-01 1.00000E-45
3.49647E-01 1.00000E-45
3.53814E-01 1.00000E-45
3.57992E-01 1.00000E-45
3.62181E-01 1.00000E-45
3.66381E-01 1.00000E-45
3.70590E-01 1.00000E-45
3.74810E-01 1.00000E-45
3.79039E-01 1.00000E-45
3.83277E-01 1.00000E-45
3.87524E-01 1.00000E-45
3.91780E-01 1.00000E-45
3.96044E-01 1.00000E-45
4.00316E-01 1.00000E-45
4.04596E-01 1.00000E-45
4.08882E-01 1.00000E-45
4.13176E-01 1.00000E-45
4.17476E-01 1.00000E-45
4.21783E-01 1.00000E-45
4.26095E-01 1.00000E-45
4.30413E-01 1.00000E-45
4.34737E-01 1.00000E-45
4.39065E-01 1.00000E-45
4.43398E-01 1.00000E-45
4.47736E-01 1.00000E-45
4.52077E-01 1.00000E-45
4.56422E-01 1.00000E-45
4.60770E-01 1.00000E-45
4.65122E-01 1.00000E-45
4.69476E-01 1.00000E-45
4.73832E-01 1.00000E-45
4.78190E-01 1.00000E-45
4.82550E-01 1.00000E-45
4.86912E-01 1.00000E-45
4.91274E-01 1.00000E-45
4.95637E-01 1.00000E-45
5.00000E-01 1.00000E-45
5.04363E-01 1.00000E-45
5.08726E-01 1.00000E-45
5.13088E-01 1.00000E-45
5.17450E-01 1.00000E-45
5.21810E-01 1.00000E-45
5.26168E-01 1.00000E-45
5.30524E-01 1.00000E-45
5.34878E-01 1.00000E-45
5.39230E-01 1.00000E-45
5.43578E-01 1.00000E-45
5.47923E-01 1.00000E-45
5.52264E-01 1.00000E-45
5.56602E-01 1.00000E-45
5.60935E-01 1.00000E-45
5.65263E-01 1.00000E-45
5.69587E-01 1.00000E-45
5.73905E-01 1.00000E-45
5.78217E-01 1.00000E-45
5.82524E-01 1.00000E-45
5.86824E-01 1.00000E-45
5.91118E-01 1.00000E-45
5.95404E-01 1.00000E-45
5.99684E-01 1.00000E-45
6.03956E-01 1.00000E-45
6.08220E-01 1.00000E-45
6.12476E-01 1.00000E-45
6.16723E-01 1.00000E-45
6.20961E-01 1.00000E-45
6.25190E-01 1.00000E-45
6.29410E-01 1.00000E-45
6.33619E-01 1.00000E-45
6.37819E-01 1.00000E-45
6.42008E-01 1.00000E-45
6.46186E-01 1.00000E-45
6.50353E-01 1.00000E-45
6.54508E-01 1.00000E-45
6.58652E-01 1.00000E-45
6.62784E-01 1.00000E-45
6.66903E-01 1.00000E-45
6.71010E-01 1.00000E-45
6.75104E-01 1.00000E-45
6.79184E-01 1.00000E-45
6.83251E-01 1.00000E-45
6.87303E-01 1.00000E-45
6.91342E-01 1.00000E-45
6.95366E-01 1.00000E-45
6.99375E-01 1.00000E-45
7.03368E-01 1.00000E-45
7.07347E-01 1.00000E-45
7.11309E-01 1.00000E-45
7.15256E-01 1.00000E-45
7.19186E-01 1.00000E-45
7.23099E-01 1.00000E-45
7.26995E-01 1.00000E-45
7.30874E-01 1.00000E-45
7.34736E-01 1.00000E-45
7.38579E-01 1.00000E-45
7.42405E-01 1.00000E-45
7.46212E-01 1.00000E-45
7.50000E-01 1.00000E-45
7.53769E-01 1.00000E-45
7.57519E-01 1.00000E-45
7.61249E-01 1.00000E-45
7.64960E-01 1.00000E-45
7.68650E-01 1.00000E-45
7.72320E-01 1.00000E-45
7.75968E-01 1.00000E-45
7.79596E-01 1.00000E-45
7.83203E-01 1.00000E-45
7.86788E-01 1.00000E-45
7.90351E-01 1.00000E-45
7.93893E-01 1.00000E-45
7.97411E-01 1.00000E-45
8.00908E-01 1.00000E-45
8.04381E-01 1.00000E-45
8.07831E-01 1.00000E-45
8.11257E-01 1.00000E-45
8.14660E-01 1.00000E-45
8.18039E-01 1.00000E-45
8.21394E-01 1.00000E-45
8.24724E-01 1.00000E-45
8.28030E-01 1.00000E-45
8.31310E-01 1.00000E-45
8.34565E-01 1.00000E-45
8.37795E-01 1.00000E-45
8.40999E-01 1.00000E-45
8.44177E-01 1.00000E-45
8.47329E-01 1.00000E-45
8.50455E-01 1.00000E-45
8.53553E-01 1.00000E-45
8.56625E-01 1.00000E-45
8.59670E-01 1.00000E-45
8.62687E-01 1.00000E-45
8.65677E-01 1.00000E-45
8.68639E-01 1.00000E-45
8.71572E-01 1.00000E-45
8.74478E-01 1.00000E-45
8.77355E-01 1.00000E-45
8.80203E-01 1.00000E-45
8.83022E-01 1.00000E-45
8.85812E-01 1.00000E-45
8.88573E-01 1.00000E-45
8.91304E-01 1.00000E-45
8.94005E-01 1.00000E-45
8.96677E-01 1.00000E-45
8.99318E-01 1.00000E-45
9.01928E-01 1.00000E-45
9.04508E-01 1.00000E-45
9.07058E-01 1.00000E-45
9.09576E-01 1.00000E-45
9.12063E-01 1.00000E-45
9.14519E-01 1.00000E-45
9.16943E-01 1.00000E-45
9.19335E-01 1.00000E-45
9.21696E-01 1.00000E-45
9.24024E-01 1.00000E-45
9.26320E-01 1.00000E-45
9.28584E-01 1.00000E-45
9.30815E-01 1.00000E-45
9.33013E-01 1.00000E-45
9.35178E-01 1.00000E-45
9.37310E-01 1.00000E-45
9.39409E-01 1.00000E-45
9.41474E-01 1.00000E-45
9.43505E-01 1.00000E-45
9.45503E-01 1.00000E-45
9.47467E-01 1.00000E-45
9.49397E-01 1.00000E-45
9.51293E-01 1.00000E-45
9.53154E-01 1.00000E-45
9.54981E-01 1.00000E-45
9.56773E-01 1.00000E-45
9.58530E-01 1.00000E-45
9.60252E-01 1.00000E-45
9.61940E-01 1.00000E-45
9.63592E-01 1.00000E-45
9.65209E-01 1.00000E-45
9.66790E-01 1.00000E-45
9.68336E-01 1.00000E-45
9.69846E-01 1.00000E-45
9.71321E-01 1.00000E-45
9.72759E-01 1.00000E-45
9.74162E-01 1.00000E-45
9.75528E-01 1.00000E-45
9.76858E-01 1.00000E-45
9.78152E-01 1.00000E-45
9.79410E-01 1.00000E-45
9.80631E-01 1.00000E-45
9.81815E-01 1.00000E-45
9.82963E-01 1.00000E-45
9.84074E-01 1.00000E-45
9.85148E-01 1.00000E-45
9.86185E-01 1.00000E-45
9.87185E-01 1.00000E-45
9.88148E-01 1.00000E-45
9.89074E-01 1.00000E-45
9.89962E-01 1.00000E-45
9.90814E-01 1.00000E-45
9.91627E-01 1.00000E-45
9.92404E-01 1.00000E-45
9.93143E-01 1.00000E-45
9.93844E-01 1.00000E-45
9.94508E-01 1.00000E-45
9.95134E-01 1.00000E-45
9.95722E-01 1.00000E-45
9.96273E-01 1.00000E-45
9.96786E-01 1.00000E-45
9.97261E-01 1.00000E-45
9.97698E-01 1.00000E-45
9.98097E-01 1.00000E-45
9.98459E-01 1.00000E-45
9.98782E-01 1.00000E-45
9.99067E-01 1.00000E-45
9.99315E-01 1.00000E-45
9.99524E-01 1.00000E-45
9.99695E-01 1.00000E-45
9.99829E-01 1.00000E-45
9.99924E-01 1.00000E-45
9.99981E-01 1.00000E-45
1.00000E+00 1.00000E-45
