 #
 # Subroutine ELSEPA. Elastic scattering of electrons and positrons
 #                    by neutral atoms and positive ions
 #
 # Projectile: electron
 # Kinetic energy = 7.00000E+07 eV = 2.57245E+06 a.u.
 #
 # WARNING: High-energy factorization with free-atom DF screening.
 #          Absorption, polarization and exchange corrections are
 #          switched off.
 #          Phase shifts are calculated for the bare nucleus.
 #          Scattering amplitudes are not evaluated.
 #
 # Element:  O,  Z =   8,  atomic weight = 1.59994E+01 g/mol
 #
 # Nuclear model: Fermi distribution
 #                Average radius = 2.69620E-13 cm
 #                Skin thickness = 5.46000E-14 cm
 #
 # Number of electrons =  8
 #
 # Total elastic cross section = 2.74175E-19 cm**2 = 9.79097E-03 a0**2
 # 1st transport cross section = 2.80644E-26 cm**2 = 1.00220E-09 a0**2
 # 2nd transport cross section = 8.25217E-26 cm**2 = 2.94690E-09 a0**2
 #
 #
 # Differential cross section:                       MU=(1-COS(THETA))/2
 #
 #  THETA        MU          DCS          DCS        Sherman      error
 #  (deg)                 (cm**2/sr)   (a0**2/sr)    function
 #----------------------------------------------------------------------
0.00000E+00 7.50129E-12
7.61557E-13 7.49764E-12
1.18994E-12 7.49561E-12
1.71346E-12 7.49313E-12
2.33225E-12 7.49019E-12
3.04617E-12 7.48682E-12
3.85530E-12 7.48299E-12
4.75964E-12 7.47873E-12
5.75917E-12 7.47401E-12
6.85391E-12 7.46886E-12
8.04379E-12 7.46326E-12
9.32893E-12 7.45723E-12
1.07092E-11 7.45075E-12
1.21847E-11 7.44384E-12
1.37554E-11 7.43649E-12
1.54213E-11 7.42872E-12
1.71823E-11 7.42050E-12
1.90386E-11 7.41187E-12
2.09900E-11 7.40280E-12
2.30367E-11 7.39332E-12
2.51785E-11 7.38340E-12
2.74156E-11 7.37308E-12
2.97478E-11 7.36232E-12
3.21752E-11 7.35118E-12
3.46979E-11 7.33959E-12
3.73157E-11 7.32763E-12
4.00286E-11 7.31522E-12
4.28368E-11 7.30245E-12
4.57402E-11 7.28925E-12
4.87388E-11 7.27569E-12
5.18325E-11 7.26170E-12
5.50215E-11 7.24736E-12
5.83057E-11 7.23259E-12
6.16850E-11 7.21748E-12
6.51595E-11 7.20195E-12
6.87293E-11 7.18610E-12
7.23943E-11 7.16982E-12
7.61544E-11 7.15323E-12
1.18991E-10 6.96785E-12
1.71347E-10 6.75065E-12
2.33223E-10 6.50647E-12
3.04617E-10 6.24039E-12
3.85531E-10 5.94139E-12
4.75965E-10 5.66060E-12
5.75917E-10 5.34468E-12
6.85389E-10 5.05420E-12
8.04380E-10 4.73827E-12
9.32891E-10 4.45206E-12
1.07092E-09 4.14996E-12
1.21847E-09 3.87840E-12
1.37554E-09 3.59913E-12
1.54213E-09 3.34901E-12
1.71823E-09 3.09746E-12
1.90386E-09 2.87240E-12
2.09900E-09 2.65027E-12
2.30367E-09 2.45147E-12
2.51785E-09 2.25827E-12
2.74156E-09 2.08515E-12
2.97478E-09 1.91903E-12
3.21752E-09 1.76993E-12
3.46978E-09 1.62832E-12
3.73156E-09 1.50096E-12
4.00286E-09 1.38098E-12
4.28368E-09 1.27285E-12
4.57402E-09 1.17164E-12
4.87388E-09 1.08023E-12
5.18326E-09 9.95096E-13
5.50215E-09 9.18034E-13
5.83057E-09 8.46533E-13
6.16850E-09 7.81673E-13
6.51596E-09 7.21658E-13
6.87293E-09 6.67101E-13
7.23942E-09 6.16691E-13
7.61544E-09 5.70758E-13
1.18991E-08 2.74242E-13
1.71347E-08 1.43153E-13
2.33223E-08 8.09542E-14
3.04617E-08 4.90903E-14
3.85531E-08 3.15694E-14
4.75965E-08 2.13035E-14
5.75917E-08 1.49541E-14
6.85389E-08 1.08417E-14
8.04380E-08 8.07179E-15
9.32891E-08 6.14349E-15
1.07092E-07 4.76465E-15
1.21847E-07 3.75518E-15
1.37554E-07 3.00073E-15
1.54213E-07 2.42664E-15
1.71823E-07 1.98371E-15
1.90386E-07 1.63732E-15
2.09900E-07 1.36314E-15
2.30367E-07 1.14359E-15
2.51785E-07 9.66327E-16
2.74156E-07 8.21948E-16
2.97478E-07 7.03400E-16
3.21752E-07 6.05259E-16
3.46978E-07 5.23547E-16
3.73156E-07 4.55085E-16
4.00286E-07 3.97384E-16
4.28368E-07 3.48462E-16
4.57402E-07 3.06791E-16
4.87388E-07 2.71130E-16
5.18325E-07 2.40471E-16
5.50215E-07 2.13994E-16
5.83057E-07 1.91039E-16
6.16850E-07 1.71065E-16
6.51596E-07 1.53621E-16
6.87293E-07 1.38331E-16
7.23942E-07 1.24887E-16
7.61543E-07 1.13029E-16
1.18991E-06 4.67360E-17
1.71347E-06 2.26311E-17
2.33223E-06 1.22401E-17
3.04617E-06 7.18264E-18
3.85531E-06 4.48689E-18
4.75964E-06 2.94500E-18
5.75916E-06 2.01200E-18
6.85388E-06 1.42087E-18
8.04378E-06 1.03173E-18
9.32888E-06 7.67134E-19
1.07092E-05 5.82163E-19
1.21846E-05 4.49732E-19
1.37553E-05 3.52908E-19
1.54212E-05 2.80795E-19
1.71822E-05 2.26197E-19
1.90385E-05 1.84287E-19
2.09899E-05 1.51617E-19
2.30365E-05 1.25867E-19
2.51783E-05 1.05356E-19
2.74153E-05 8.88596E-20
2.97475E-05 7.54731E-20
3.21749E-05 6.45189E-20
3.46974E-05 5.54843E-20
3.73152E-05 4.79780E-20
4.00281E-05 4.16987E-20
4.28362E-05 3.64129E-20
4.57395E-05 3.19376E-20
4.87380E-05 2.81286E-20
5.18317E-05 2.48708E-20
5.50205E-05 2.20716E-20
5.83045E-05 1.96558E-20
6.16838E-05 1.75622E-20
6.51582E-05 1.57403E-20
6.87277E-05 1.41487E-20
7.23925E-05 1.27531E-20
7.61524E-05 1.15241E-20
9.21439E-05 7.87155E-21
1.09658E-04 5.55883E-21
1.28695E-04 4.03627E-21
1.49255E-04 3.00119E-21
1.71338E-04 2.27771E-21
1.94942E-04 1.75964E-21
2.20070E-04 1.38091E-21
2.46720E-04 1.09878E-21
2.74892E-04 8.85191E-22
3.04586E-04 7.21068E-22
3.35803E-04 5.93279E-22
3.68542E-04 4.92597E-22
4.02802E-04 4.12389E-22
4.38585E-04 3.47869E-22
4.75889E-04 2.95486E-22
5.14715E-04 2.52603E-22
5.55063E-04 2.17227E-22
5.96931E-04 1.87831E-22
6.40321E-04 1.63246E-22
6.85233E-04 1.42554E-22
7.31665E-04 1.25039E-22
7.79618E-04 1.10134E-22
8.29092E-04 9.73850E-23
8.80086E-04 8.64289E-23
9.32601E-04 7.69706E-23
9.86636E-04 6.87719E-23
1.04219E-03 6.16360E-23
1.09927E-03 5.54022E-23
1.15786E-03 4.99370E-23
1.21797E-03 4.51291E-23
1.27961E-03 4.08863E-23
1.34276E-03 3.71304E-23
1.40743E-03 3.37961E-23
1.47362E-03 3.08277E-23
1.54133E-03 2.81781E-23
1.61056E-03 2.58072E-23
1.68131E-03 2.36803E-23
1.75357E-03 2.17681E-23
1.82735E-03 2.00450E-23
1.90265E-03 1.84890E-23
1.97947E-03 1.70811E-23
2.05780E-03 1.58046E-23
2.13765E-03 1.46451E-23
2.21902E-03 1.35900E-23
2.30190E-03 1.26282E-23
2.38630E-03 1.17499E-23
2.47222E-03 1.09466E-23
2.55965E-03 1.02108E-23
2.64859E-03 9.53576E-24
2.73905E-03 8.91555E-24
2.83103E-03 8.34492E-24
2.92452E-03 7.81919E-24
3.01952E-03 7.33419E-24
3.11604E-03 6.88618E-24
3.21407E-03 6.47185E-24
3.31362E-03 6.08818E-24
3.41468E-03 5.73250E-24
3.51725E-03 5.40240E-24
3.62133E-03 5.09569E-24
3.72692E-03 4.81043E-24
3.83403E-03 4.54482E-24
3.94265E-03 4.29728E-24
4.05278E-03 4.06635E-24
4.16442E-03 3.85070E-24
4.27757E-03 3.64914E-24
4.39223E-03 3.46058E-24
4.50840E-03 3.28403E-24
4.62608E-03 3.11858E-24
4.74527E-03 2.96340E-24
4.86597E-03 2.81774E-24
4.98817E-03 2.68091E-24
5.11188E-03 2.55227E-24
5.23711E-03 2.43124E-24
5.36383E-03 2.31729E-24
5.49207E-03 2.20992E-24
5.62181E-03 2.10869E-24
5.75306E-03 2.01318E-24
5.88581E-03 1.92300E-24
6.02007E-03 1.83781E-24
6.15583E-03 1.75728E-24
6.29310E-03 1.68109E-24
6.43187E-03 1.60898E-24
6.57214E-03 1.54069E-24
6.71392E-03 1.47598E-24
6.85720E-03 1.41462E-24
7.00198E-03 1.35640E-24
7.14827E-03 1.30115E-24
7.29605E-03 1.24867E-24
7.44534E-03 1.19880E-24
7.59612E-03 1.15139E-24
7.97965E-03 1.04270E-24
8.37255E-03 9.46498E-25
8.77480E-03 8.61109E-25
9.18641E-03 7.85104E-25
9.60736E-03 7.17275E-25
1.00376E-02 6.56589E-25
1.04773E-02 6.02163E-25
1.09262E-02 5.53240E-25
1.13844E-02 5.09164E-25
1.18520E-02 4.69372E-25
1.23288E-02 4.33375E-25
1.28150E-02 4.00746E-25
1.33104E-02 3.71116E-25
1.38150E-02 3.44160E-25
1.43290E-02 3.19593E-25
1.48521E-02 2.97167E-25
1.53845E-02 2.76662E-25
1.59262E-02 2.57885E-25
1.64770E-02 2.40663E-25
1.70371E-02 2.24845E-25
1.76063E-02 2.10297E-25
1.81848E-02 1.96897E-25
1.87724E-02 1.84540E-25
1.93692E-02 1.73129E-25
1.99751E-02 1.62580E-25
2.05901E-02 1.52815E-25
2.12143E-02 1.43766E-25
2.18476E-02 1.35370E-25
2.24900E-02 1.27573E-25
2.31415E-02 1.20324E-25
2.38021E-02 1.13577E-25
2.44717E-02 1.07291E-25
2.51504E-02 1.01430E-25
2.58382E-02 9.59592E-26
2.65349E-02 9.08480E-26
2.72407E-02 8.60686E-26
2.79555E-02 8.15956E-26
2.86793E-02 7.74058E-26
2.94120E-02 7.34780E-26
3.01537E-02 6.97930E-26
3.09043E-02 6.63329E-26
3.16639E-02 6.30817E-26
3.24324E-02 6.00244E-26
3.32098E-02 5.71473E-26
3.39961E-02 5.44380E-26
3.47912E-02 5.18849E-26
3.55952E-02 4.94774E-26
3.64081E-02 4.72056E-26
3.72297E-02 4.50606E-26
3.80602E-02 4.30340E-26
3.88995E-02 4.11181E-26
3.97476E-02 3.93057E-26
4.06044E-02 3.75902E-26
4.14700E-02 3.59656E-26
4.23443E-02 3.44262E-26
4.32273E-02 3.29667E-26
4.41190E-02 3.15821E-26
4.50194E-02 3.02680E-26
4.59284E-02 2.90202E-26
4.68461E-02 2.78346E-26
4.87074E-02 2.56359E-26
5.06030E-02 2.36455E-26
5.25328E-02 2.18404E-26
5.44967E-02 2.02003E-26
5.64946E-02 1.87077E-26
5.85262E-02 1.73471E-26
6.05914E-02 1.61048E-26
6.26901E-02 1.49688E-26
6.48222E-02 1.39284E-26
6.69873E-02 1.29744E-26
6.91854E-02 1.20983E-26
7.14163E-02 1.12927E-26
7.36799E-02 1.05509E-26
7.59760E-02 9.86715E-27
7.83043E-02 9.23605E-27
8.06647E-02 8.65290E-27
8.30571E-02 8.11345E-27
8.54812E-02 7.61388E-27
8.79369E-02 7.15075E-27
9.04240E-02 6.72098E-27
9.29422E-02 6.32176E-27
9.54915E-02 5.95057E-27
9.80716E-02 5.60510E-27
1.00682E-01 5.28330E-27
1.03323E-01 4.98328E-27
1.05995E-01 4.70331E-27
1.08696E-01 4.44185E-27
1.11427E-01 4.19747E-27
1.14188E-01 3.96888E-27
1.16978E-01 3.75489E-27
1.19797E-01 3.55442E-27
1.22645E-01 3.36649E-27
1.25522E-01 3.19018E-27
1.28428E-01 3.02465E-27
1.31361E-01 2.86915E-27
1.34323E-01 2.72298E-27
1.37313E-01 2.58548E-27
1.40330E-01 2.45606E-27
1.43375E-01 2.33418E-27
1.46447E-01 2.21932E-27
1.49545E-01 2.11101E-27
1.52671E-01 2.00884E-27
1.55823E-01 1.91239E-27
1.59001E-01 1.82130E-27
1.62205E-01 1.73522E-27
1.65435E-01 1.65384E-27
1.68690E-01 1.57686E-27
1.71970E-01 1.50401E-27
1.75276E-01 1.43503E-27
1.78606E-01 1.36969E-27
1.81961E-01 1.30776E-27
1.85340E-01 1.24905E-27
1.88743E-01 1.19336E-27
1.92169E-01 1.14051E-27
1.95619E-01 1.09034E-27
1.99092E-01 1.04269E-27
2.02589E-01 9.97418E-28
2.06107E-01 9.54387E-28
2.09649E-01 9.13470E-28
2.13212E-01 8.74550E-28
2.16797E-01 8.37514E-28
2.20404E-01 8.02260E-28
2.24032E-01 7.68689E-28
2.27680E-01 7.36710E-28
2.31350E-01 7.06238E-28
2.35040E-01 6.77190E-28
2.38751E-01 6.49493E-28
2.42481E-01 6.23074E-28
2.46231E-01 5.97867E-28
2.50000E-01 5.73808E-28
2.53788E-01 5.50839E-28
2.57595E-01 5.28904E-28
2.61421E-01 5.07949E-28
2.65264E-01 4.87926E-28
2.69126E-01 4.68788E-28
2.73005E-01 4.50490E-28
2.76901E-01 4.32991E-28
2.80814E-01 4.16252E-28
2.84744E-01 4.00235E-28
2.88691E-01 3.84905E-28
2.92653E-01 3.70230E-28
2.96632E-01 3.56178E-28
3.00625E-01 3.42718E-28
3.04634E-01 3.29824E-28
3.08658E-01 3.17468E-28
3.12697E-01 3.05626E-28
3.16749E-01 2.94273E-28
3.20816E-01 2.83386E-28
3.24896E-01 2.72945E-28
3.28990E-01 2.62929E-28
3.33097E-01 2.53319E-28
3.37216E-01 2.44095E-28
3.41348E-01 2.35242E-28
3.45492E-01 2.26742E-28
3.49647E-01 2.18580E-28
3.53814E-01 2.10741E-28
3.57992E-01 2.03210E-28
3.62181E-01 1.95974E-28
3.66381E-01 1.89021E-28
3.70590E-01 1.82337E-28
3.74810E-01 1.75912E-28
3.79039E-01 1.69735E-28
3.83277E-01 1.63794E-28
3.87524E-01 1.58079E-28
3.91780E-01 1.52582E-28
3.96044E-01 1.47294E-28
4.00316E-01 1.42204E-28
4.04596E-01 1.37306E-28
4.08882E-01 1.32590E-28
4.13176E-01 1.28051E-28
4.17476E-01 1.23679E-28
4.21783E-01 1.19470E-28
4.26095E-01 1.15415E-28
4.30413E-01 1.11509E-28
4.34737E-01 1.07746E-28
4.39065E-01 1.04119E-28
4.43398E-01 1.00625E-28
4.47736E-01 9.72561E-29
4.52077E-01 9.40089E-29
4.56422E-01 9.08783E-29
4.60770E-01 8.78596E-29
4.65122E-01 8.49485E-29
4.69476E-01 8.21408E-29
4.73832E-01 7.94325E-29
4.78190E-01 7.68197E-29
4.82550E-01 7.42987E-29
4.86912E-01 7.18661E-29
4.91274E-01 6.95185E-29
4.95637E-01 6.72526E-29
5.00000E-01 6.50654E-29
5.04363E-01 6.29539E-29
5.08726E-01 6.09152E-29
5.13088E-01 5.89465E-29
5.17450E-01 5.70454E-29
5.21810E-01 5.52093E-29
5.26168E-01 5.34357E-29
5.30524E-01 5.17225E-29
5.34878E-01 5.00672E-29
5.39230E-01 4.84679E-29
5.43578E-01 4.69224E-29
5.47923E-01 4.54289E-29
5.52264E-01 4.39854E-29
5.56602E-01 4.25901E-29
5.60935E-01 4.12413E-29
5.65263E-01 3.99374E-29
5.69587E-01 3.86766E-29
5.73905E-01 3.74575E-29
5.78217E-01 3.62786E-29
5.82524E-01 3.51384E-29
5.86824E-01 3.40356E-29
5.91118E-01 3.29689E-29
5.95404E-01 3.19371E-29
5.99684E-01 3.09388E-29
6.03956E-01 2.99729E-29
6.08220E-01 2.90382E-29
6.12476E-01 2.81338E-29
6.16723E-01 2.72586E-29
6.20961E-01 2.64114E-29
6.25190E-01 2.55915E-29
6.29410E-01 2.47978E-29
6.33619E-01 2.40294E-29
6.37819E-01 2.32856E-29
6.42008E-01 2.25654E-29
6.46186E-01 2.18680E-29
6.50353E-01 2.11927E-29
6.54508E-01 2.05387E-29
6.58652E-01 1.99053E-29
6.62784E-01 1.92918E-29
6.66903E-01 1.86976E-29
6.71010E-01 1.81220E-29
6.75104E-01 1.75644E-29
6.79184E-01 1.70242E-29
6.83251E-01 1.65008E-29
6.87303E-01 1.59936E-29
6.91342E-01 1.55022E-29
6.95366E-01 1.50260E-29
6.99375E-01 1.45644E-29
7.03368E-01 1.41171E-29
7.07347E-01 1.36836E-29
7.11309E-01 1.32634E-29
7.15256E-01 1.28560E-29
7.19186E-01 1.24611E-29
7.23099E-01 1.20783E-29
7.26995E-01 1.17071E-29
7.30874E-01 1.13473E-29
7.34736E-01 1.09983E-29
7.38579E-01 1.06600E-29
7.42405E-01 1.03318E-29
7.46212E-01 1.00136E-29
7.50000E-01 9.70503E-30
7.53769E-01 9.40573E-30
7.57519E-01 9.11542E-30
7.61249E-01 8.83383E-30
7.64960E-01 8.56068E-30
7.68650E-01 8.29571E-30
7.72320E-01 8.03866E-30
7.75968E-01 7.78928E-30
7.79596E-01 7.54733E-30
7.83203E-01 7.31258E-30
7.86788E-01 7.08480E-30
7.90351E-01 6.86379E-30
7.93893E-01 6.64932E-30
7.97411E-01 6.44120E-30
8.00908E-01 6.23924E-30
8.04381E-01 6.04323E-30
8.07831E-01 5.85301E-30
8.11257E-01 5.66838E-30
8.14660E-01 5.48919E-30
8.18039E-01 5.31526E-30
8.21394E-01 5.14644E-30
8.24724E-01 4.98257E-30
8.28030E-01 4.82349E-30
8.31310E-01 4.66907E-30
8.34565E-01 4.51917E-30
8.37795E-01 4.37364E-30
8.40999E-01 4.23236E-30
8.44177E-01 4.09521E-30
8.47329E-01 3.96204E-30
8.50455E-01 3.83276E-30
8.53553E-01 3.70723E-30
8.56625E-01 3.58536E-30
8.59670E-01 3.46703E-30
8.62687E-01 3.35213E-30
8.65677E-01 3.24058E-30
8.68639E-01 3.13226E-30
8.71572E-01 3.02708E-30
8.74478E-01 2.92496E-30
8.77355E-01 2.82580E-30
8.80203E-01 2.72951E-30
8.83022E-01 2.63602E-30
8.85812E-01 2.54524E-30
8.88573E-01 2.45709E-30
8.91304E-01 2.37150E-30
8.94005E-01 2.28840E-30
8.96677E-01 2.20771E-30
8.99318E-01 2.12936E-30
9.01928E-01 2.05330E-30
9.04508E-01 1.97944E-30
9.07058E-01 1.90774E-30
9.09576E-01 1.83813E-30
9.12063E-01 1.77055E-30
9.14519E-01 1.70495E-30
9.16943E-01 1.64127E-30
9.19335E-01 1.57946E-30
9.21696E-01 1.51946E-30
9.24024E-01 1.46123E-30
9.26320E-01 1.40471E-30
9.28584E-01 1.34987E-30
9.30815E-01 1.29666E-30
9.33013E-01 1.24502E-30
9.35178E-01 1.19493E-30
9.37310E-01 1.14633E-30
9.39409E-01 1.09919E-30
9.41474E-01 1.05348E-30
9.43505E-01 1.00915E-30
9.45503E-01 9.66159E-31
9.47467E-01 9.24485E-31
9.49397E-01 8.84090E-31
9.51293E-01 8.44941E-31
9.53154E-01 8.07005E-31
9.54981E-01 7.70254E-31
9.56773E-01 7.34657E-31
9.58530E-01 7.00185E-31
9.60252E-01 6.66812E-31
9.61940E-01 6.34511E-31
9.63592E-01 6.03255E-31
9.65209E-01 5.73020E-31
9.66790E-01 5.43782E-31
9.68336E-01 5.15517E-31
9.69846E-01 4.88204E-31
9.71321E-01 4.61820E-31
9.72759E-01 4.36346E-31
9.74162E-01 4.11760E-31
9.75528E-01 3.88044E-31
9.76858E-01 3.65178E-31
9.78152E-01 3.43145E-31
9.79410E-01 3.21928E-31
9.80631E-01 3.01510E-31
9.81815E-01 2.81875E-31
9.82963E-01 2.63008E-31
9.84074E-01 2.44894E-31
9.85148E-01 2.27519E-31
9.86185E-01 2.10869E-31
9.87185E-01 1.94932E-31
9.88148E-01 1.79695E-31
9.89074E-01 1.65146E-31
9.89962E-01 1.51275E-31
9.90814E-01 1.38070E-31
9.91627E-01 1.25520E-31
9.92404E-01 1.13618E-31
9.93143E-01 1.02353E-31
9.93844E-01 9.17157E-32
9.94508E-01 8.16994E-32
9.95134E-01 7.22960E-32
9.95722E-01 6.34978E-32
9.96273E-01 5.52983E-32
9.96786E-01 4.76916E-32
9.97261E-01 4.06713E-32
9.97698E-01 3.42323E-32
9.98097E-01 2.83695E-32
9.98459E-01 2.30785E-32
9.98782E-01 1.83554E-32
9.99067E-01 1.41964E-32
9.99315E-01 1.05982E-32
9.99524E-01 7.55823E-33
9.99695E-01 5.07403E-33
9.99829E-01 3.14414E-33
9.99924E-01 1.76650E-33
9.99981E-01 9.40462E-34
1.00000E+00 6.65033E-34
