 #
 # Subroutine ELSEPA. Elastic scattering of electrons and positrons
 #                    by neutral atoms and positive ions
 #
 # Projectile: electron
 # Kinetic energy = 5.00000E+08 eV = 1.83747E+07 a.u.
 #
 # WARNING: High-energy factorization with free-atom DF screening.
 #          Absorption, polarization and exchange corrections are
 #          switched off.
 #          Phase shifts are calculated for the bare nucleus.
 #          Scattering amplitudes are not evaluated.
 #
 # Element:  O,  Z =   8,  atomic weight = 1.59994E+01 g/mol
 #
 # Nuclear model: Fermi distribution
 #                Average radius = 2.69620E-13 cm
 #                Skin thickness = 5.46000E-14 cm
 #
 # Number of electrons =  8
 #
 # Total elastic cross section = 2.73888E-19 cm**2 = 9.78071E-03 a0**2
 # 1st transport cross section = 5.74410E-28 cm**2 = 2.05125E-11 a0**2
 # 2nd transport cross section = 1.72192E-27 cm**2 = 6.14910E-11 a0**2
 #
 #
 # Differential cross section:                       MU=(1-COS(THETA))/2
 #
 #  THETA        MU          DCS          DCS        Sherman      error
 #  (deg)                 (cm**2/sr)   (a0**2/sr)    function
 #----------------------------------------------------------------------
0.00000E+00 3.77963E-10
7.61557E-13 3.68969E-10
1.18994E-12 3.64050E-10
1.71346E-12 3.58172E-10
2.33225E-12 3.51398E-10
3.04617E-12 3.43817E-10
3.85530E-12 3.35506E-10
4.75964E-12 3.26562E-10
5.75917E-12 3.17073E-10
6.85391E-12 3.06563E-10
8.04379E-12 2.96040E-10
9.32893E-12 2.86061E-10
1.07092E-11 2.74825E-10
1.21847E-11 2.63886E-10
1.37554E-11 2.53729E-10
1.54213E-11 2.42198E-10
1.71823E-11 2.31499E-10
1.90386E-11 2.21444E-10
2.09900E-11 2.10467E-10
2.30367E-11 2.00453E-10
2.51785E-11 1.90837E-10
2.74156E-11 1.80857E-10
2.97478E-11 1.71784E-10
3.21752E-11 1.62912E-10
3.46979E-11 1.54079E-10
3.73157E-11 1.46056E-10
4.00286E-11 1.38098E-10
4.28368E-11 1.30435E-10
4.57402E-11 1.23469E-10
4.87388E-11 1.16488E-10
5.18325E-11 1.09936E-10
5.50215E-11 1.03970E-10
5.83057E-11 9.79482E-11
6.16850E-11 9.24059E-11
6.51595E-11 8.73150E-11
6.87293E-11 8.22197E-11
7.23943E-11 7.75669E-11
7.61544E-11 7.32275E-11
1.18991E-10 4.09974E-11
1.71347E-10 2.36037E-11
2.33223E-10 1.41171E-11
3.04617E-10 8.80770E-12
3.85531E-10 5.72748E-12
4.75965E-10 3.87147E-12
5.75917E-10 2.70895E-12
6.85389E-10 1.95446E-12
8.04380E-10 1.44845E-12
9.32891E-10 1.09855E-12
1.07092E-09 8.50083E-13
1.21847E-09 6.69370E-13
1.37554E-09 5.35091E-13
1.54213E-09 4.33403E-13
1.71823E-09 3.55132E-13
1.90386E-09 2.94004E-13
2.09900E-09 2.45633E-13
2.30367E-09 2.06907E-13
2.51785E-09 1.75576E-13
2.74156E-09 1.49987E-13
2.97478E-09 1.28908E-13
3.21752E-09 1.11393E-13
3.46978E-09 9.67534E-14
3.73156E-09 8.44384E-14
4.00286E-09 7.40167E-14
4.28368E-09 6.51484E-14
4.57402E-09 5.75632E-14
4.87388E-09 5.10447E-14
5.18326E-09 4.54175E-14
5.50215E-09 4.05376E-14
5.83057E-09 3.62905E-14
6.16850E-09 3.25817E-14
6.51596E-09 2.93315E-14
6.87293E-09 2.64738E-14
7.23942E-09 2.39533E-14
7.61544E-09 2.17235E-14
1.18991E-08 9.11183E-15
1.71347E-08 4.44471E-15
2.33223E-08 2.41338E-15
3.04617E-08 1.41931E-15
3.85531E-08 8.87759E-16
4.75965E-08 5.83142E-16
5.75917E-08 3.98593E-16
6.85389E-08 2.81573E-16
8.04380E-08 2.04499E-16
9.32891E-08 1.52075E-16
1.07092E-07 1.15420E-16
1.21847E-07 8.91710E-17
1.37554E-07 6.99763E-17
1.54213E-07 5.56788E-17
1.71823E-07 4.48530E-17
1.90386E-07 3.65341E-17
2.09900E-07 3.00572E-17
2.30367E-07 2.49541E-17
2.51785E-07 2.08895E-17
2.74156E-07 1.76198E-17
2.97478E-07 1.49655E-17
3.21752E-07 1.27927E-17
3.46978E-07 1.10003E-17
3.73156E-07 9.51111E-18
4.00286E-07 8.26562E-18
4.28368E-07 7.21749E-18
4.57402E-07 6.33035E-18
4.87388E-07 5.57543E-18
5.18325E-07 4.92976E-18
5.50215E-07 4.37490E-18
5.83057E-07 3.89596E-18
6.16850E-07 3.48081E-18
6.51596E-07 3.11951E-18
6.87293E-07 2.80389E-18
7.23942E-07 2.52720E-18
7.61543E-07 2.28381E-18
1.18991E-06 9.35500E-19
1.71347E-06 4.51169E-19
2.33223E-06 2.43540E-19
3.04617E-06 1.42765E-19
3.85531E-06 8.91312E-20
4.75964E-06 5.84814E-20
5.75916E-06 3.99452E-20
6.85388E-06 2.82052E-20
8.04378E-06 2.04785E-20
9.32888E-06 1.52257E-20
1.07092E-05 1.15543E-20
1.21846E-05 8.92575E-21
1.37553E-05 7.00401E-21
1.54212E-05 5.57275E-21
1.71822E-05 4.48914E-21
1.90385E-05 3.65737E-21
2.09899E-05 3.00897E-21
2.30365E-05 2.49793E-21
2.51783E-05 2.09086E-21
2.74153E-05 1.76347E-21
2.97475E-05 1.49780E-21
3.21749E-05 1.28040E-21
3.46974E-05 1.10111E-21
3.73152E-05 9.52138E-22
4.00281E-05 8.27522E-22
4.28362E-05 7.22621E-22
4.57395E-05 6.33807E-22
4.87380E-05 5.58216E-22
5.18317E-05 4.93563E-22
5.50205E-05 4.38012E-22
5.83045E-05 3.90070E-22
6.16838E-05 3.48521E-22
6.51582E-05 3.12365E-22
6.87277E-05 2.80780E-22
7.23925E-05 2.53085E-22
7.61524E-05 2.27491E-22
9.21439E-05 1.55212E-22
1.09658E-04 1.09473E-22
1.28695E-04 7.93810E-23
1.49255E-04 5.89377E-23
1.71338E-04 4.46596E-23
1.94942E-04 3.44435E-23
2.20070E-04 2.69817E-23
2.46720E-04 2.14282E-23
2.74892E-04 1.72279E-23
3.04586E-04 1.40038E-23
3.35803E-04 1.14962E-23
3.68542E-04 9.52277E-24
4.02802E-04 7.95257E-24
4.38585E-04 6.69108E-24
4.75889E-04 5.66825E-24
5.14715E-04 4.83209E-24
5.55063E-04 4.14329E-24
5.96931E-04 3.57179E-24
6.40321E-04 3.09456E-24
6.85233E-04 2.69355E-24
7.31665E-04 2.35470E-24
7.79618E-04 2.06682E-24
8.29092E-04 1.82103E-24
8.80086E-04 1.61020E-24
9.32601E-04 1.42854E-24
9.86636E-04 1.27139E-24
1.04219E-03 1.13489E-24
1.09927E-03 1.01589E-24
1.15786E-03 9.11795E-25
1.21797E-03 8.20422E-25
1.27961E-03 7.39973E-25
1.34276E-03 6.68923E-25
1.40743E-03 6.06001E-25
1.47362E-03 5.50123E-25
1.54133E-03 5.00373E-25
1.61056E-03 4.55971E-25
1.68131E-03 4.16246E-25
1.75357E-03 3.80629E-25
1.82735E-03 3.48623E-25
1.90265E-03 3.19805E-25
1.97947E-03 2.93805E-25
2.05780E-03 2.70303E-25
2.13765E-03 2.49022E-25
2.21902E-03 2.29716E-25
2.30190E-03 2.12173E-25
2.38630E-03 1.96207E-25
2.47222E-03 1.81653E-25
2.55965E-03 1.68367E-25
2.64859E-03 1.56220E-25
2.73905E-03 1.45100E-25
2.83103E-03 1.34905E-25
2.92452E-03 1.25547E-25
3.01952E-03 1.16947E-25
3.11604E-03 1.09033E-25
3.21407E-03 1.01742E-25
3.31362E-03 9.50180E-26
3.41468E-03 8.88096E-26
3.51725E-03 8.30712E-26
3.62133E-03 7.77619E-26
3.72692E-03 7.28448E-26
3.83403E-03 6.82864E-26
3.94265E-03 6.40568E-26
4.05278E-03 6.01286E-26
4.16442E-03 5.64771E-26
4.27757E-03 5.30801E-26
4.39223E-03 4.99171E-26
4.50840E-03 4.69697E-26
4.62608E-03 4.42210E-26
4.74527E-03 4.16558E-26
4.86597E-03 3.92601E-26
4.98817E-03 3.70209E-26
5.11188E-03 3.49268E-26
5.23711E-03 3.29668E-26
5.36383E-03 3.11314E-26
5.49207E-03 2.94114E-26
5.62181E-03 2.77986E-26
5.75306E-03 2.62854E-26
5.88581E-03 2.48648E-26
6.02007E-03 2.35304E-26
6.15583E-03 2.22763E-26
6.29310E-03 2.10971E-26
6.43187E-03 1.99875E-26
6.57214E-03 1.89431E-26
6.71392E-03 1.79595E-26
6.85720E-03 1.70326E-26
7.00198E-03 1.61589E-26
7.14827E-03 1.53348E-26
7.29605E-03 1.45573E-26
7.44534E-03 1.38233E-26
7.59612E-03 1.31302E-26
7.97965E-03 1.15597E-26
8.37255E-03 1.01939E-26
8.77480E-03 9.00321E-27
9.18641E-03 7.96296E-27
9.60736E-03 7.05226E-27
1.00376E-02 6.25343E-27
1.04773E-02 5.55145E-27
1.09262E-02 4.93353E-27
1.13844E-02 4.38871E-27
1.18520E-02 3.90764E-27
1.23288E-02 3.48224E-27
1.28150E-02 3.10557E-27
1.33104E-02 2.77164E-27
1.38150E-02 2.47525E-27
1.43290E-02 2.21188E-27
1.48521E-02 1.97762E-27
1.53845E-02 1.76906E-27
1.59262E-02 1.58320E-27
1.64770E-02 1.41744E-27
1.70371E-02 1.26949E-27
1.76063E-02 1.13734E-27
1.81848E-02 1.01922E-27
1.87724E-02 9.13581E-28
1.93692E-02 8.19049E-28
1.99751E-02 7.34413E-28
2.05901E-02 6.58600E-28
2.12143E-02 5.90661E-28
2.18476E-02 5.29755E-28
2.24900E-02 4.75135E-28
2.31415E-02 4.26138E-28
2.38021E-02 3.82173E-28
2.44717E-02 3.42713E-28
2.51504E-02 3.07291E-28
2.58382E-02 2.75488E-28
2.65349E-02 2.46932E-28
2.72407E-02 2.21288E-28
2.79555E-02 1.98258E-28
2.86793E-02 1.77575E-28
2.94120E-02 1.59001E-28
3.01537E-02 1.42321E-28
3.09043E-02 1.27344E-28
3.16639E-02 1.13896E-28
3.24324E-02 1.01824E-28
3.32098E-02 9.09878E-29
3.39961E-02 8.12640E-29
3.47912E-02 7.25401E-29
3.55952E-02 6.47154E-29
3.64081E-02 5.76993E-29
3.72297E-02 5.14103E-29
3.80602E-02 4.57752E-29
3.88995E-02 4.07280E-29
3.97476E-02 3.62094E-29
4.06044E-02 3.21658E-29
4.14700E-02 2.85492E-29
4.23443E-02 2.53162E-29
4.32273E-02 2.24278E-29
4.41190E-02 1.98489E-29
4.50194E-02 1.75478E-29
4.59284E-02 1.54961E-29
4.68461E-02 1.36680E-29
4.87074E-02 1.05929E-29
5.06030E-02 8.16403E-30
5.25328E-02 6.25300E-30
5.44967E-02 4.75598E-30
5.64946E-02 3.58906E-30
5.85262E-02 2.68449E-30
6.05914E-02 1.98772E-30
6.26901E-02 1.45487E-30
6.48222E-02 1.05075E-30
6.69873E-02 7.47212E-31
6.91854E-02 5.21790E-31
7.14163E-02 3.56641E-31
7.36799E-02 2.37634E-31
7.59760E-02 1.53634E-31
7.83043E-02 9.59065E-32
8.06647E-02 5.76454E-32
8.30571E-02 3.35793E-32
8.54812E-02 1.96593E-32
8.79369E-02 1.28033E-32
9.04240E-02 1.06917E-32
9.29422E-02 1.16016E-32
9.54915E-02 1.42747E-32
9.80716E-02 1.78117E-32
1.00682E-01 2.15877E-32
1.03323E-01 2.51859E-32
1.05995E-01 2.83449E-32
1.08696E-01 3.09177E-32
1.11427E-01 3.28394E-32
1.14188E-01 3.41029E-32
1.16978E-01 3.47398E-32
1.19797E-01 3.48061E-32
1.22645E-01 3.43723E-32
1.25522E-01 3.35148E-32
1.28428E-01 3.23111E-32
1.31361E-01 3.08358E-32
1.34323E-01 2.91580E-32
1.37313E-01 2.73403E-32
1.40330E-01 2.54374E-32
1.43375E-01 2.34965E-32
1.46447E-01 2.15572E-32
1.49545E-01 1.96519E-32
1.52671E-01 1.78064E-32
1.55823E-01 1.60404E-32
1.59001E-01 1.43685E-32
1.62205E-01 1.28008E-32
1.65435E-01 1.13435E-32
1.68690E-01 9.99939E-33
1.71970E-01 8.76884E-33
1.75276E-01 7.64994E-33
1.78606E-01 6.63919E-33
1.81961E-01 5.73179E-33
1.85340E-01 4.92207E-33
1.88743E-01 4.20372E-33
1.92169E-01 3.57008E-33
1.95619E-01 3.01433E-33
1.99092E-01 2.52967E-33
2.02589E-01 2.10941E-33
2.06107E-01 1.74713E-33
2.09649E-01 1.43667E-33
2.13212E-01 1.17226E-33
2.16797E-01 9.48527E-34
2.20404E-01 7.60493E-34
2.24032E-01 6.03605E-34
2.27680E-01 4.73723E-34
2.31350E-01 3.67112E-34
2.35040E-01 2.80424E-34
2.38751E-01 2.10679E-34
2.42481E-01 1.55238E-34
2.46231E-01 1.11784E-34
2.50000E-01 7.82932E-35
2.53788E-01 5.30081E-35
2.57595E-01 3.44151E-35
2.61421E-01 2.12166E-35
2.65264E-01 1.23101E-35
2.69126E-01 6.76545E-36
2.73005E-01 3.80384E-36
2.76901E-01 2.77922E-36
2.80814E-01 3.16087E-36
2.84744E-01 4.51780E-36
2.88691E-01 6.50398E-36
2.92653E-01 8.84615E-36
2.96632E-01 1.13329E-35
3.00625E-01 1.38038E-35
3.04634E-01 1.61408E-35
3.08658E-01 1.82605E-35
3.12697E-01 2.01095E-35
3.16749E-01 2.16550E-35
3.20816E-01 2.28841E-35
3.24896E-01 2.37961E-35
3.28990E-01 2.44020E-35
3.33097E-01 2.47197E-35
3.37216E-01 2.47722E-35
3.41348E-01 2.45868E-35
3.45492E-01 2.41909E-35
3.49647E-01 2.36139E-35
3.53814E-01 2.28842E-35
3.57992E-01 2.20296E-35
3.62181E-01 2.10756E-35
3.66381E-01 2.00471E-35
3.70590E-01 1.89650E-35
3.74810E-01 1.78497E-35
3.79039E-01 1.67182E-35
3.83277E-01 1.55860E-35
3.87524E-01 1.44656E-35
3.91780E-01 1.33682E-35
3.96044E-01 1.23031E-35
4.00316E-01 1.12769E-35
4.04596E-01 1.02957E-35
4.08882E-01 9.36327E-36
4.13176E-01 8.48290E-36
4.17476E-01 7.65628E-36
4.21783E-01 6.88408E-36
4.26095E-01 6.16671E-36
4.30413E-01 5.50319E-36
4.34737E-01 4.89237E-36
4.39065E-01 4.33265E-36
4.43398E-01 3.82191E-36
4.47736E-01 3.35798E-36
4.52077E-01 2.93833E-36
4.56422E-01 2.56022E-36
4.60770E-01 2.22096E-36
4.65122E-01 1.91795E-36
4.69476E-01 1.64827E-36
4.73832E-01 1.40944E-36
4.78190E-01 1.19876E-36
4.82550E-01 1.01388E-36
4.86912E-01 8.52244E-37
4.91274E-01 7.11689E-37
4.95637E-01 5.90072E-37
5.00000E-01 4.85399E-37
5.04363E-01 3.95919E-37
5.08726E-01 3.19820E-37
5.13088E-01 2.55547E-37
5.17450E-01 2.01711E-37
5.21810E-01 1.56993E-37
5.26168E-01 1.20198E-37
5.30524E-01 9.02575E-38
5.34878E-01 6.62273E-38
5.39230E-01 4.72416E-38
5.43578E-01 3.25452E-38
5.47923E-01 2.14444E-38
5.52264E-01 1.33626E-38
5.56602E-01 7.76966E-39
5.60935E-01 4.21078E-39
5.65263E-01 2.29080E-39
5.69587E-01 1.66850E-39
5.73905E-01 2.05268E-39
5.78217E-01 3.19410E-39
5.82524E-01 4.88573E-39
5.86824E-01 6.94815E-39
5.91118E-01 9.24957E-39
5.95404E-01 1.16521E-38
5.99684E-01 1.40735E-38
6.03956E-01 1.64460E-38
6.08220E-01 1.86972E-38
6.12476E-01 2.07840E-38
6.16723E-01 2.26844E-38
6.20961E-01 2.43718E-38
6.25190E-01 2.58383E-38
6.29410E-01 2.70753E-38
6.33619E-01 2.80776E-38
6.37819E-01 2.88697E-38
6.42008E-01 2.94348E-38
6.46186E-01 2.97823E-38
6.50353E-01 2.99671E-38
6.54508E-01 2.99641E-38
6.58652E-01 2.98014E-38
6.62784E-01 2.94897E-38
6.66903E-01 2.90521E-38
6.71010E-01 2.84889E-38
6.75104E-01 2.78348E-38
6.79184E-01 2.70943E-38
6.83251E-01 2.62748E-38
6.87303E-01 2.53975E-38
6.91342E-01 2.44778E-38
6.95366E-01 2.35267E-38
6.99375E-01 2.25472E-38
7.03368E-01 2.15553E-38
7.07347E-01 2.05619E-38
7.11309E-01 1.95540E-38
7.15256E-01 1.85561E-38
7.19186E-01 1.75792E-38
7.23099E-01 1.66180E-38
7.26995E-01 1.56753E-38
7.30874E-01 1.47624E-38
7.34736E-01 1.38711E-38
7.38579E-01 1.30152E-38
7.42405E-01 1.21919E-38
7.46212E-01 1.13937E-38
7.50000E-01 1.06420E-38
7.53769E-01 9.91685E-39
7.57519E-01 9.22724E-39
7.61249E-01 8.57104E-39
7.64960E-01 7.95105E-39
7.68650E-01 7.36679E-39
7.72320E-01 6.81105E-39
7.75968E-01 6.28574E-39
7.79596E-01 5.80147E-39
7.83203E-01 5.33837E-39
7.86788E-01 4.90941E-39
7.90351E-01 4.50566E-39
7.93893E-01 4.12808E-39
7.97411E-01 3.78308E-39
8.00908E-01 3.45796E-39
8.04381E-01 3.15603E-39
8.07831E-01 2.87662E-39
8.11257E-01 2.62340E-39
8.14660E-01 2.38397E-39
8.18039E-01 2.16275E-39
8.21394E-01 1.96555E-39
8.24724E-01 1.77968E-39
8.28030E-01 1.60849E-39
8.31310E-01 1.45336E-39
8.34565E-01 1.31139E-39
8.37795E-01 1.17892E-39
8.40999E-01 1.06295E-39
8.44177E-01 9.50911E-40
8.47329E-01 8.54312E-40
8.50455E-01 7.61144E-40
8.53553E-01 6.80826E-40
8.56625E-01 6.05387E-40
8.59670E-01 5.40495E-40
8.62687E-01 4.77777E-40
8.65677E-01 4.24098E-40
8.68639E-01 3.74471E-40
8.71572E-01 3.28800E-40
8.74478E-01 2.89586E-40
8.77355E-01 2.54691E-40
8.80203E-01 2.22921E-40
8.83022E-01 1.94909E-40
8.85812E-01 1.69704E-40
8.88573E-01 1.46996E-40
8.91304E-01 1.27459E-40
8.94005E-01 1.09676E-40
8.96677E-01 9.47083E-41
8.99318E-01 8.06707E-41
9.01928E-01 6.87151E-41
9.04508E-01 5.87706E-41
9.07058E-01 4.98153E-41
9.09576E-01 4.14901E-41
9.12063E-01 3.49805E-41
9.14519E-01 2.86615E-41
9.16943E-01 2.36790E-41
9.19335E-01 1.92262E-41
9.21696E-01 1.00000E-45
9.24024E-01 1.00000E-45
9.26320E-01 1.00000E-45
9.28584E-01 1.00000E-45
9.30815E-01 1.00000E-45
9.33013E-01 1.00000E-45
9.35178E-01 1.00000E-45
9.37310E-01 1.00000E-45
9.39409E-01 1.00000E-45
9.41474E-01 1.00000E-45
9.43505E-01 1.00000E-45
9.45503E-01 1.00000E-45
9.47467E-01 1.00000E-45
9.49397E-01 1.00000E-45
9.51293E-01 1.00000E-45
9.53154E-01 1.00000E-45
9.54981E-01 1.00000E-45
9.56773E-01 1.00000E-45
9.58530E-01 1.00000E-45
9.60252E-01 1.00000E-45
9.61940E-01 1.00000E-45
9.63592E-01 1.00000E-45
9.65209E-01 1.00000E-45
9.66790E-01 1.00000E-45
9.68336E-01 1.00000E-45
9.69846E-01 1.00000E-45
9.71321E-01 1.00000E-45
9.72759E-01 1.00000E-45
9.74162E-01 1.00000E-45
9.75528E-01 1.00000E-45
9.76858E-01 1.00000E-45
9.78152E-01 1.00000E-45
9.79410E-01 1.00000E-45
9.80631E-01 1.00000E-45
9.81815E-01 1.00000E-45
9.82963E-01 1.00000E-45
9.84074E-01 1.00000E-45
9.85148E-01 1.00000E-45
9.86185E-01 1.00000E-45
9.87185E-01 1.00000E-45
9.88148E-01 1.00000E-45
9.89074E-01 1.00000E-45
9.89962E-01 1.00000E-45
9.90814E-01 1.00000E-45
9.91627E-01 1.00000E-45
9.92404E-01 1.00000E-45
9.93143E-01 1.00000E-45
9.93844E-01 1.00000E-45
9.94508E-01 1.00000E-45
9.95134E-01 1.00000E-45
9.95722E-01 1.00000E-45
9.96273E-01 1.00000E-45
9.96786E-01 1.00000E-45
9.97261E-01 1.00000E-45
9.97698E-01 1.00000E-45
9.98097E-01 1.00000E-45
9.98459E-01 1.00000E-45
9.98782E-01 1.00000E-45
9.99067E-01 1.00000E-45
9.99315E-01 1.00000E-45
9.99524E-01 1.00000E-45
9.99695E-01 1.00000E-45
9.99829E-01 1.00000E-45
9.99924E-01 1.00000E-45
9.99981E-01 1.00000E-45
1.00000E+00 1.00000E-45
