 #
 # Subroutine ELSEPA. Elastic scattering of electrons and positrons
 #                    by neutral atoms and positive ions
 #
 # Projectile: electron
 # Kinetic energy = 3.00000E+08 eV = 1.10248E+07 a.u.
 #
 # WARNING: High-energy factorization with free-atom DF screening.
 #          Absorption, polarization and exchange corrections are
 #          switched off.
 #          Phase shifts are calculated for the bare nucleus.
 #          Scattering amplitudes are not evaluated.
 #
 # Element:  O,  Z =   8,  atomic weight = 1.59994E+01 g/mol
 #
 # Nuclear model: Fermi distribution
 #                Average radius = 2.69620E-13 cm
 #                Skin thickness = 5.46000E-14 cm
 #
 # Number of electrons =  8
 #
 # Total elastic cross section = 2.73727E-19 cm**2 = 9.77498E-03 a0**2
 # 1st transport cross section = 1.59175E-27 cm**2 = 5.68424E-11 a0**2
 # 2nd transport cross section = 4.76547E-27 cm**2 = 1.70178E-10 a0**2
 #
 #
 # Differential cross section:                       MU=(1-COS(THETA))/2
 #
 #  THETA        MU          DCS          DCS        Sherman      error
 #  (deg)                 (cm**2/sr)   (a0**2/sr)    function
 #----------------------------------------------------------------------
0.00000E+00 1.36252E-10
7.61557E-13 1.35068E-10
1.18994E-12 1.34410E-10
1.71346E-12 1.33613E-10
2.33225E-12 1.32679E-10
3.04617E-12 1.31614E-10
3.85530E-12 1.30422E-10
4.75964E-12 1.29108E-10
5.75917E-12 1.27678E-10
6.85391E-12 1.26138E-10
8.04379E-12 1.24495E-10
9.32893E-12 1.22756E-10
1.07092E-11 1.20927E-10
1.21847E-11 1.19017E-10
1.37554E-11 1.17031E-10
1.54213E-11 1.14976E-10
1.71823E-11 1.12843E-10
1.90386E-11 1.10481E-10
2.09900E-11 1.08182E-10
2.30367E-11 1.05951E-10
2.51785E-11 1.03792E-10
2.74156E-11 1.01533E-10
2.97478E-11 9.90300E-11
3.21752E-11 9.66299E-11
3.46979E-11 9.43324E-11
3.73157E-11 9.21362E-11
4.00286E-11 8.97356E-11
4.28368E-11 8.72608E-11
4.57402E-11 8.49083E-11
4.87388E-11 8.26734E-11
5.18325E-11 8.05513E-11
5.50215E-11 7.81466E-11
5.83057E-11 7.58174E-11
6.16850E-11 7.36132E-11
6.51595E-11 7.15275E-11
6.87293E-11 6.94972E-11
7.23943E-11 6.72566E-11
7.61544E-11 6.51413E-11
1.18991E-10 4.69670E-11
1.71347E-10 3.32648E-11
2.33223E-10 2.34291E-11
3.04617E-10 1.65487E-11
3.85531E-10 1.17858E-11
4.75965E-10 8.49018E-12
5.75917E-10 6.20539E-12
6.85389E-10 4.60434E-12
8.04380E-10 3.46884E-12
9.32891E-10 2.65327E-12
1.07092E-09 2.05954E-12
1.21847E-09 1.62110E-12
1.37554E-09 1.29273E-12
1.54213E-09 1.04349E-12
1.71823E-09 8.51898E-13
1.90386E-09 7.02775E-13
2.09900E-09 5.85440E-13
2.30367E-09 4.91951E-13
2.51785E-09 4.16778E-13
2.74156E-09 3.55711E-13
2.97478E-09 3.05676E-13
3.21752E-09 2.64320E-13
3.46978E-09 2.29875E-13
3.73156E-09 2.00986E-13
4.00286E-09 1.76575E-13
4.28368E-09 1.55848E-13
4.57402E-09 1.38106E-13
4.87388E-09 1.22884E-13
5.18326E-09 1.09707E-13
5.50215E-09 9.83022E-14
5.83057E-09 8.83274E-14
6.16850E-09 7.96277E-14
6.51596E-09 7.19554E-14
6.87293E-09 6.52129E-14
7.23942E-09 5.92301E-14
7.61544E-09 5.39328E-14
1.18991E-08 2.34254E-14
1.71347E-08 1.17150E-14
2.33223E-08 6.46663E-15
3.04617E-08 3.84386E-15
3.85531E-08 2.42129E-15
4.75965E-08 1.59800E-15
5.75917E-08 1.09580E-15
6.85389E-08 7.75833E-16
8.04380E-08 5.64367E-16
9.32891E-08 4.20175E-16
1.07092E-07 3.19170E-16
1.21847E-07 2.46741E-16
1.37554E-07 1.93722E-16
1.54213E-07 1.54198E-16
1.71823E-07 1.24253E-16
1.90386E-07 1.01232E-16
2.09900E-07 8.33026E-17
2.30367E-07 6.91708E-17
2.51785E-07 5.79116E-17
2.74156E-07 4.88522E-17
2.97478E-07 4.14966E-17
3.21752E-07 3.54745E-17
3.46978E-07 3.05060E-17
3.73156E-07 2.63776E-17
4.00286E-07 2.29244E-17
4.28368E-07 2.00182E-17
4.57402E-07 1.75582E-17
4.87388E-07 1.54647E-17
5.18325E-07 1.36739E-17
5.50215E-07 1.21349E-17
5.83057E-07 1.08065E-17
6.16850E-07 9.65503E-18
6.51596E-07 8.65289E-18
6.87293E-07 7.77747E-18
7.23942E-07 7.01000E-18
7.61543E-07 6.33491E-18
1.18991E-06 2.59498E-18
1.71347E-06 1.25151E-18
2.33223E-06 6.75569E-19
3.04617E-06 3.96025E-19
3.85531E-06 2.47248E-19
4.75964E-06 1.62226E-19
5.75916E-06 1.10808E-19
6.85388E-06 7.82409E-20
8.04378E-06 5.68072E-20
9.32888E-06 4.22360E-20
1.07092E-05 3.20515E-20
1.21846E-05 2.47600E-20
1.37553E-05 1.94291E-20
1.54212E-05 1.54588E-20
1.71822E-05 1.24529E-20
1.90385E-05 1.01456E-20
2.09899E-05 8.34691E-21
2.30365E-05 6.92926E-21
2.51783E-05 5.80005E-21
2.74153E-05 4.89187E-21
2.97475E-05 4.15490E-21
3.21749E-05 3.55185E-21
3.46974E-05 3.05447E-21
3.73152E-05 2.64124E-21
4.00281E-05 2.29555E-21
4.28362E-05 2.00456E-21
4.57395E-05 1.75819E-21
4.87380E-05 1.54849E-21
5.18317E-05 1.36915E-21
5.50205E-05 1.21505E-21
5.83045E-05 1.08206E-21
6.16838E-05 9.66801E-22
6.51582E-05 8.66505E-22
6.87277E-05 7.78886E-22
7.23925E-05 7.02061E-22
7.61524E-05 6.33242E-22
9.21439E-05 4.32367E-22
1.09658E-04 3.05202E-22
1.28695E-04 2.21503E-22
1.49255E-04 1.64615E-22
1.71338E-04 1.24864E-22
1.94942E-04 9.64066E-23
2.20070E-04 7.56097E-23
2.46720E-04 6.01221E-23
2.74892E-04 4.84008E-23
3.04586E-04 3.93975E-23
3.35803E-04 3.23900E-23
3.68542E-04 2.68712E-23
4.02802E-04 2.24765E-23
4.38585E-04 1.89429E-23
4.75889E-04 1.60753E-23
5.14715E-04 1.37289E-23
5.55063E-04 1.17942E-23
5.96931E-04 1.01874E-23
6.40321E-04 8.84432E-24
6.85233E-04 7.71449E-24
7.31665E-04 6.75874E-24
7.79618E-04 5.94585E-24
8.29092E-04 5.25098E-24
8.80086E-04 4.65421E-24
9.32601E-04 4.13937E-24
9.86636E-04 3.69339E-24
1.04219E-03 3.30550E-24
1.09927E-03 2.96689E-24
1.15786E-03 2.67024E-24
1.21797E-03 2.40947E-24
1.27961E-03 2.17953E-24
1.34276E-03 1.97614E-24
1.40743E-03 1.79573E-24
1.47362E-03 1.63525E-24
1.54133E-03 1.49213E-24
1.61056E-03 1.36418E-24
1.68131E-03 1.24950E-24
1.75357E-03 1.14649E-24
1.82735E-03 1.05376E-24
1.90265E-03 9.70096E-25
1.97947E-03 8.94472E-25
2.05780E-03 8.25976E-25
2.13765E-03 7.63825E-25
2.21902E-03 7.07325E-25
2.30190E-03 6.55877E-25
2.38630E-03 6.08950E-25
2.47222E-03 5.66078E-25
2.55965E-03 5.26852E-25
2.64859E-03 4.90905E-25
2.73905E-03 4.57918E-25
2.83103E-03 4.27605E-25
2.92452E-03 3.99711E-25
3.01952E-03 3.74010E-25
3.11604E-03 3.50299E-25
3.21407E-03 3.28399E-25
3.31362E-03 3.08146E-25
3.41468E-03 2.89396E-25
3.51725E-03 2.72017E-25
3.62133E-03 2.55893E-25
3.72692E-03 2.40917E-25
3.83403E-03 2.26993E-25
3.94265E-03 2.14034E-25
4.05278E-03 2.01963E-25
4.16442E-03 1.90707E-25
4.27757E-03 1.80203E-25
4.39223E-03 1.70391E-25
4.50840E-03 1.61218E-25
4.62608E-03 1.52636E-25
4.74527E-03 1.44599E-25
4.86597E-03 1.37068E-25
4.98817E-03 1.30005E-25
5.11188E-03 1.23376E-25
5.23711E-03 1.17149E-25
5.36383E-03 1.11297E-25
5.49207E-03 1.05792E-25
5.62181E-03 1.00612E-25
5.75306E-03 9.57323E-26
5.88581E-03 9.11339E-26
6.02007E-03 8.67977E-26
6.15583E-03 8.27060E-26
6.29310E-03 7.88428E-26
6.43187E-03 7.51933E-26
6.57214E-03 7.17435E-26
6.71392E-03 6.84809E-26
6.85720E-03 6.53934E-26
7.00198E-03 6.24702E-26
7.14827E-03 5.97011E-26
7.29605E-03 5.70766E-26
7.44534E-03 5.45880E-26
7.59612E-03 5.22269E-26
7.97965E-03 4.68340E-26
8.37255E-03 4.20870E-26
8.77480E-03 3.78970E-26
9.18641E-03 3.41892E-26
9.60736E-03 3.08999E-26
1.00376E-02 2.79749E-26
1.04773E-02 2.53681E-26
1.09262E-02 2.30399E-26
1.13844E-02 2.09563E-26
1.18520E-02 1.90879E-26
1.23288E-02 1.74093E-26
1.28150E-02 1.58986E-26
1.33104E-02 1.45368E-26
1.38150E-02 1.33070E-26
1.43290E-02 1.21948E-26
1.48521E-02 1.11874E-26
1.53845E-02 1.02737E-26
1.59262E-02 9.44371E-27
1.64770E-02 8.68885E-27
1.70371E-02 8.00142E-27
1.76063E-02 7.37464E-27
1.81848E-02 6.80248E-27
1.87724E-02 6.27961E-27
1.93692E-02 5.80124E-27
1.99751E-02 5.36315E-27
2.05901E-02 4.96154E-27
2.12143E-02 4.59301E-27
2.18476E-02 4.25453E-27
2.24900E-02 3.94336E-27
2.31415E-02 3.65706E-27
2.38021E-02 3.39343E-27
2.44717E-02 3.15047E-27
2.51504E-02 2.92639E-27
2.58382E-02 2.71957E-27
2.65349E-02 2.52855E-27
2.72407E-02 2.35199E-27
2.79555E-02 2.18870E-27
2.86793E-02 2.03758E-27
2.94120E-02 1.89764E-27
3.01537E-02 1.76797E-27
3.09043E-02 1.64776E-27
3.16639E-02 1.53624E-27
3.24324E-02 1.43275E-27
3.32098E-02 1.33664E-27
3.39961E-02 1.24736E-27
3.47912E-02 1.16437E-27
3.55952E-02 1.08719E-27
3.64081E-02 1.01540E-27
3.72297E-02 9.48582E-28
3.80602E-02 8.86369E-28
3.88995E-02 8.28421E-28
3.97476E-02 7.74425E-28
4.06044E-02 7.24094E-28
4.14700E-02 6.77163E-28
4.23443E-02 6.33387E-28
4.32273E-02 5.92542E-28
4.41190E-02 5.54418E-28
4.50194E-02 5.18826E-28
4.59284E-02 4.85586E-28
4.68461E-02 4.54536E-28
4.87074E-02 3.98407E-28
5.06030E-02 3.49356E-28
5.25328E-02 3.06452E-28
5.44967E-02 2.68894E-28
5.64946E-02 2.35994E-28
5.85262E-02 2.07154E-28
6.05914E-02 1.81858E-28
6.26901E-02 1.59661E-28
6.48222E-02 1.40172E-28
6.69873E-02 1.23057E-28
6.91854E-02 1.08020E-28
7.14163E-02 9.48055E-29
7.36799E-02 8.31908E-29
7.59760E-02 7.29803E-29
7.83043E-02 6.40035E-29
8.06647E-02 5.61110E-29
8.30571E-02 4.91719E-29
8.54812E-02 4.30713E-29
8.79369E-02 3.77085E-29
9.04240E-02 3.29952E-29
9.29422E-02 2.88534E-29
9.54915E-02 2.52148E-29
9.80716E-02 2.20194E-29
1.00682E-01 1.92141E-29
1.03323E-01 1.67522E-29
1.05995E-01 1.45929E-29
1.08696E-01 1.26998E-29
1.11427E-01 1.10410E-29
1.14188E-01 9.58852E-30
1.16978E-01 8.31750E-30
1.19797E-01 7.20609E-30
1.22645E-01 6.23501E-30
1.25522E-01 5.38728E-30
1.28428E-01 4.64790E-30
1.31361E-01 4.00366E-30
1.34323E-01 3.44292E-30
1.37313E-01 2.95540E-30
1.40330E-01 2.53207E-30
1.43375E-01 2.16494E-30
1.46447E-01 1.84700E-30
1.49545E-01 1.57208E-30
1.52671E-01 1.33473E-30
1.55823E-01 1.13017E-30
1.59001E-01 9.54197E-31
1.62205E-01 8.03118E-31
1.65435E-01 6.73691E-31
1.68690E-01 5.63070E-31
1.71970E-01 4.68760E-31
1.75276E-01 3.88576E-31
1.78606E-01 3.20605E-31
1.81961E-01 2.63177E-31
1.85340E-01 2.14828E-31
1.88743E-01 1.74286E-31
1.92169E-01 1.40440E-31
1.95619E-01 1.12323E-31
1.99092E-01 8.90946E-32
2.02589E-01 7.00260E-32
2.06107E-01 5.44854E-32
2.09649E-01 4.19264E-32
2.13212E-01 3.18774E-32
2.16797E-01 2.39318E-32
2.20404E-01 1.77405E-32
2.24032E-01 1.30037E-32
2.27680E-01 9.46535E-33
2.31350E-01 6.90688E-33
2.35040E-01 5.14260E-33
2.38751E-01 4.01519E-33
2.42481E-01 3.39194E-33
2.46231E-01 3.16140E-33
2.50000E-01 3.23043E-33
2.53788E-01 3.52167E-33
2.57595E-01 3.97126E-33
2.61421E-01 4.52691E-33
2.65264E-01 5.14619E-33
2.69126E-01 5.79509E-33
2.73005E-01 6.44669E-33
2.76901E-01 7.08001E-33
2.80814E-01 7.67916E-33
2.84744E-01 8.23241E-33
2.88691E-01 8.73152E-33
2.92653E-01 9.17113E-33
2.96632E-01 9.54817E-33
3.00625E-01 9.86147E-33
3.04634E-01 1.01114E-32
3.08658E-01 1.02995E-32
3.12697E-01 1.04282E-32
3.16749E-01 1.05006E-32
3.20816E-01 1.05203E-32
3.24896E-01 1.04912E-32
3.28990E-01 1.04175E-32
3.33097E-01 1.03033E-32
3.37216E-01 1.01529E-32
3.41348E-01 9.97035E-33
3.45492E-01 9.75973E-33
3.49647E-01 9.52487E-33
3.53814E-01 9.26945E-33
3.57992E-01 8.99692E-33
3.62181E-01 8.71051E-33
3.66381E-01 8.41319E-33
3.70590E-01 8.10775E-33
3.74810E-01 7.79666E-33
3.79039E-01 7.48224E-33
3.83277E-01 7.16652E-33
3.87524E-01 6.85136E-33
3.91780E-01 6.53838E-33
3.96044E-01 6.22900E-33
4.00316E-01 5.92450E-33
4.04596E-01 5.62593E-33
4.08882E-01 5.33423E-33
4.13176E-01 5.05016E-33
4.17476E-01 4.77435E-33
4.21783E-01 4.50733E-33
4.26095E-01 4.24947E-33
4.30413E-01 4.00108E-33
4.34737E-01 3.76238E-33
4.39065E-01 3.53348E-33
4.43398E-01 3.31443E-33
4.47736E-01 3.10522E-33
4.52077E-01 2.90578E-33
4.56422E-01 2.71600E-33
4.60770E-01 2.53572E-33
4.65122E-01 2.36473E-33
4.69476E-01 2.20284E-33
4.73832E-01 2.04977E-33
4.78190E-01 1.90526E-33
4.82550E-01 1.76902E-33
4.86912E-01 1.64077E-33
4.91274E-01 1.52020E-33
4.95637E-01 1.40699E-33
5.00000E-01 1.30083E-33
5.04363E-01 1.20141E-33
5.08726E-01 1.10840E-33
5.13088E-01 1.02152E-33
5.17450E-01 9.40437E-34
5.21810E-01 8.64862E-34
5.26168E-01 7.94501E-34
5.30524E-01 7.29070E-34
5.34878E-01 6.68289E-34
5.39230E-01 6.11894E-34
5.43578E-01 5.59623E-34
5.47923E-01 5.11233E-34
5.52264E-01 4.66482E-34
5.56602E-01 4.25143E-34
5.60935E-01 3.86997E-34
5.65263E-01 3.51840E-34
5.69587E-01 3.19470E-34
5.73905E-01 2.89701E-34
5.78217E-01 2.62356E-34
5.82524E-01 2.37266E-34
5.86824E-01 2.14272E-34
5.91118E-01 1.93225E-34
5.95404E-01 1.73981E-34
5.99684E-01 1.56408E-34
6.03956E-01 1.40383E-34
6.08220E-01 1.25786E-34
6.12476E-01 1.12508E-34
6.16723E-01 1.00447E-34
6.20961E-01 8.95065E-35
6.25190E-01 7.95965E-35
6.29410E-01 7.06335E-35
6.33619E-01 6.25394E-35
6.37819E-01 5.52429E-35
6.42008E-01 4.86753E-35
6.46186E-01 4.27742E-35
6.50353E-01 3.74839E-35
6.54508E-01 3.27488E-35
6.58652E-01 2.85200E-35
6.62784E-01 2.47517E-35
6.66903E-01 2.14018E-35
6.71010E-01 1.84310E-35
6.75104E-01 1.58041E-35
6.79184E-01 1.34879E-35
6.83251E-01 1.14520E-35
6.87303E-01 9.66895E-36
6.91342E-01 8.11334E-36
6.95366E-01 6.76194E-36
6.99375E-01 5.59338E-36
7.03368E-01 4.58840E-36
7.07347E-01 3.72936E-36
7.11309E-01 2.99993E-36
7.15256E-01 2.38574E-36
7.19186E-01 1.87358E-36
7.23099E-01 1.45132E-36
7.26995E-01 1.10810E-36
7.30874E-01 8.34150E-37
7.34736E-01 6.20571E-37
7.38579E-01 4.59426E-37
7.42405E-01 3.43547E-37
7.46212E-01 2.66541E-37
7.50000E-01 2.22606E-37
7.53769E-01 2.06691E-37
7.57519E-01 2.14208E-37
7.61249E-01 2.41123E-37
7.64960E-01 2.83823E-37
7.68650E-01 3.39136E-37
7.72320E-01 4.04377E-37
7.75968E-01 4.77091E-37
7.79596E-01 5.54940E-37
7.83203E-01 6.36442E-37
7.86788E-01 7.19727E-37
7.90351E-01 8.03612E-37
7.93893E-01 8.86901E-37
7.97411E-01 9.68386E-37
8.00908E-01 1.04759E-36
8.04381E-01 1.12371E-36
8.07831E-01 1.19619E-36
8.11257E-01 1.26439E-36
8.14660E-01 1.32843E-36
8.18039E-01 1.38784E-36
8.21394E-01 1.44211E-36
8.24724E-01 1.49170E-36
8.28030E-01 1.53635E-36
8.31310E-01 1.57592E-36
8.34565E-01 1.61056E-36
8.37795E-01 1.64053E-36
8.40999E-01 1.66542E-36
8.44177E-01 1.68618E-36
8.47329E-01 1.70206E-36
8.50455E-01 1.71413E-36
8.53553E-01 1.72173E-36
8.56625E-01 1.72570E-36
8.59670E-01 1.72564E-36
8.62687E-01 1.72254E-36
8.65677E-01 1.71584E-36
8.68639E-01 1.70623E-36
8.71572E-01 1.69391E-36
8.74478E-01 1.67871E-36
8.77355E-01 1.66103E-36
8.80203E-01 1.64119E-36
8.83022E-01 1.61923E-36
8.85812E-01 1.59545E-36
8.88573E-01 1.57002E-36
8.91304E-01 1.54295E-36
8.94005E-01 1.51461E-36
8.96677E-01 1.48489E-36
8.99318E-01 1.45431E-36
9.01928E-01 1.42271E-36
9.04508E-01 1.39017E-36
9.07058E-01 1.35703E-36
9.09576E-01 1.32352E-36
9.12063E-01 1.28932E-36
9.14519E-01 1.25504E-36
9.16943E-01 1.22034E-36
9.19335E-01 1.18558E-36
9.21696E-01 1.15072E-36
9.24024E-01 1.11597E-36
9.26320E-01 1.08134E-36
9.28584E-01 1.04665E-36
9.30815E-01 1.01236E-36
9.33013E-01 9.78352E-37
9.35178E-01 9.44650E-37
9.37310E-01 9.11432E-37
9.39409E-01 8.78306E-37
9.41474E-01 8.46100E-37
9.43505E-01 8.14014E-37
9.45503E-01 7.82658E-37
9.47467E-01 7.51712E-37
9.49397E-01 7.21463E-37
9.51293E-01 6.91865E-37
9.53154E-01 6.62685E-37
9.54981E-01 6.34346E-37
9.56773E-01 6.06586E-37
9.58530E-01 5.79435E-37
9.60252E-01 5.52851E-37
9.61940E-01 5.27247E-37
9.63592E-01 5.01988E-37
9.65209E-01 4.77641E-37
9.66790E-01 4.53888E-37
9.68336E-01 4.30796E-37
9.69846E-01 4.08367E-37
9.71321E-01 3.86602E-37
9.72759E-01 3.65609E-37
9.74162E-01 3.45197E-37
9.75528E-01 3.25447E-37
9.76858E-01 3.06391E-37
9.78152E-01 2.87994E-37
9.79410E-01 2.70224E-37
9.80631E-01 2.53124E-37
9.81815E-01 2.36539E-37
9.82963E-01 2.20714E-37
9.84074E-01 2.05550E-37
9.85148E-01 1.90926E-37
9.86185E-01 1.76889E-37
9.87185E-01 1.63365E-37
9.88148E-01 1.50568E-37
9.89074E-01 1.38327E-37
9.89962E-01 1.26581E-37
9.90814E-01 1.15542E-37
9.91627E-01 1.04837E-37
9.92404E-01 9.48690E-38
9.93143E-01 8.54379E-38
9.93844E-01 7.64370E-38
9.94508E-01 6.80180E-38
9.95134E-01 6.01369E-38
9.95722E-01 5.27216E-38
9.96273E-01 4.57654E-38
9.96786E-01 3.94416E-38
9.97261E-01 3.35388E-38
9.97698E-01 2.81368E-38
9.98097E-01 2.32145E-38
9.98459E-01 1.87644E-38
9.98782E-01 1.48392E-38
9.99067E-01 1.13716E-38
9.99315E-01 8.36247E-39
9.99524E-01 5.80049E-39
9.99695E-01 3.68509E-39
9.99829E-01 2.11084E-39
9.99924E-01 9.43336E-40
9.99981E-01 2.68163E-40
1.00000E+00 2.82165E-41
