 #
 # Subroutine ELSEPA. Elastic scattering of electrons and positrons
 #                    by neutral atoms and positive ions
 #
 # Projectile: electron
 # Kinetic energy = 1.75000E+07 eV = 6.43113E+05 a.u.
 #
 # WARNING: High-energy factorization with free-atom DF screening.
 #          Absorption, polarization and exchange corrections are
 #          switched off.
 #          Phase shifts are calculated for the bare nucleus.
 #          Scattering amplitudes are not evaluated.
 #
 # Element:  O,  Z =   8,  atomic weight = 1.59994E+01 g/mol
 #
 # Nuclear model: Fermi distribution
 #                Average radius = 2.69620E-13 cm
 #                Skin thickness = 5.46000E-14 cm
 #
 # Number of electrons =  8
 #
 # Total elastic cross section = 2.74214E-19 cm**2 = 9.79236E-03 a0**2
 # 1st transport cross section = 3.76364E-25 cm**2 = 1.34402E-08 a0**2
 # 2nd transport cross section = 1.08929E-24 cm**2 = 3.88993E-08 a0**2
 #
 #
 # Differential cross section:                       MU=(1-COS(THETA))/2
 #
 #  THETA        MU          DCS          DCS        Sherman      error
 #  (deg)                 (cm**2/sr)   (a0**2/sr)    function
 #----------------------------------------------------------------------
0.00000E+00 4.89438E-13
7.61557E-13 4.89422E-13
1.18994E-12 4.89413E-13
1.71346E-12 4.89403E-13
2.33225E-12 4.89390E-13
3.04617E-12 4.89375E-13
3.85530E-12 4.89359E-13
4.75964E-12 4.89341E-13
5.75917E-12 4.89320E-13
6.85391E-12 4.89298E-13
8.04379E-12 4.89274E-13
9.32893E-12 4.89248E-13
1.07092E-11 4.89220E-13
1.21847E-11 4.89190E-13
1.37554E-11 4.89159E-13
1.54213E-11 4.89125E-13
1.71823E-11 4.89089E-13
1.90386E-11 4.89052E-13
2.09900E-11 4.89012E-13
2.30367E-11 4.88971E-13
2.51785E-11 4.88928E-13
2.74156E-11 4.88883E-13
2.97478E-11 4.88836E-13
3.21752E-11 4.88787E-13
3.46979E-11 4.88736E-13
3.73157E-11 4.88684E-13
4.00286E-11 4.88629E-13
4.28368E-11 4.88572E-13
4.57402E-11 4.88514E-13
4.87388E-11 4.88454E-13
5.18325E-11 4.88391E-13
5.50215E-11 4.88327E-13
5.83057E-11 4.88261E-13
6.16850E-11 4.88193E-13
6.51595E-11 4.88124E-13
6.87293E-11 4.88052E-13
7.23943E-11 4.87979E-13
7.61544E-11 4.87903E-13
1.18991E-10 4.87045E-13
1.71347E-10 4.86000E-13
2.33223E-10 4.84770E-13
3.04617E-10 4.83356E-13
3.85531E-10 4.81760E-13
4.75965E-10 4.79987E-13
5.75917E-10 4.78039E-13
6.85389E-10 4.75918E-13
8.04380E-10 4.73627E-13
9.32891E-10 4.71173E-13
1.07092E-09 4.68560E-13
1.21847E-09 4.65785E-13
1.37554E-09 4.62858E-13
1.54213E-09 4.59787E-13
1.71823E-09 4.56573E-13
1.90386E-09 4.53214E-13
2.09900E-09 4.49725E-13
2.30367E-09 4.46112E-13
2.51785E-09 4.42373E-13
2.74156E-09 4.38513E-13
2.97478E-09 4.34544E-13
3.21752E-09 4.30473E-13
3.46978E-09 4.26294E-13
3.73156E-09 4.22018E-13
4.00286E-09 4.17658E-13
4.28368E-09 4.13218E-13
4.57402E-09 4.08687E-13
4.87388E-09 4.03885E-13
5.18326E-09 3.98799E-13
5.50215E-09 3.93791E-13
5.83057E-09 3.88867E-13
6.16850E-09 3.84030E-13
6.51596E-09 3.79285E-13
6.87293E-09 3.74633E-13
7.23942E-09 3.70078E-13
7.61544E-09 3.65058E-13
1.18991E-08 3.13848E-13
1.71347E-08 2.64850E-13
2.33223E-08 2.20460E-13
3.04617E-08 1.81185E-13
3.85531E-08 1.47585E-13
4.75965E-08 1.19865E-13
5.75917E-08 9.72592E-14
6.85389E-08 7.87736E-14
8.04380E-08 6.39075E-14
9.32891E-08 5.20283E-14
1.07092E-07 4.25308E-14
1.21847E-07 3.48691E-14
1.37554E-07 2.87433E-14
1.54213E-07 2.38244E-14
1.71823E-07 1.98532E-14
1.90386E-07 1.66273E-14
2.09900E-07 1.40046E-14
2.30367E-07 1.18614E-14
2.51785E-07 1.01001E-14
2.74156E-07 8.64565E-15
2.97478E-07 7.43970E-15
3.21752E-07 6.43437E-15
3.46978E-07 5.59144E-15
3.73156E-07 4.88145E-15
4.00286E-07 4.28064E-15
4.28368E-07 3.76982E-15
4.57402E-07 3.33347E-15
4.87388E-07 2.95905E-15
5.18325E-07 2.63642E-15
5.50215E-07 2.35743E-15
5.83057E-07 2.11505E-15
6.16850E-07 1.90343E-15
6.51596E-07 1.71823E-15
6.87293E-07 1.55556E-15
7.23942E-07 1.41199E-15
7.61543E-07 1.28506E-15
1.18991E-06 5.63016E-16
1.71347E-06 2.87681E-16
2.33223E-06 1.62575E-16
3.04617E-06 9.87053E-17
3.85531E-06 6.32701E-17
4.75964E-06 4.23389E-17
5.75916E-06 2.93483E-17
6.85388E-06 2.09534E-17
8.04378E-06 1.53407E-17
9.32888E-06 1.14788E-17
1.07092E-05 8.75381E-18
1.21846E-05 6.78834E-18
1.37553E-05 5.34284E-18
1.54212E-05 4.26120E-18
1.71822E-05 3.43913E-18
1.90385E-05 2.80618E-18
2.09899E-05 2.31156E-18
2.30365E-05 1.92092E-18
2.51783E-05 1.60924E-18
2.74153E-05 1.35821E-18
2.97475E-05 1.15426E-18
3.21749E-05 9.87204E-19
3.46974E-05 8.49310E-19
3.73152E-05 7.34662E-19
4.00281E-05 6.38698E-19
4.28362E-05 5.57875E-19
4.57395E-05 4.89416E-19
4.87380E-05 4.31127E-19
5.18317E-05 3.81257E-19
5.50205E-05 3.38395E-19
5.83045E-05 3.01394E-19
6.16838E-05 2.69320E-19
6.51582E-05 2.41404E-19
6.87277E-05 2.17012E-19
7.23925E-05 1.95622E-19
7.61524E-05 1.76799E-19
9.21439E-05 1.20791E-19
1.09658E-04 8.53147E-20
1.28695E-04 6.19543E-20
1.49255E-04 4.60697E-20
1.71338E-04 3.49657E-20
1.94942E-04 2.70139E-20
2.20070E-04 2.12007E-20
2.46720E-04 1.68701E-20
2.74892E-04 1.35914E-20
3.04586E-04 1.10719E-20
3.35803E-04 9.11021E-21
3.68542E-04 7.56456E-21
4.02802E-04 6.33319E-21
4.38585E-04 5.34263E-21
4.75889E-04 4.53838E-21
5.14715E-04 3.87998E-21
5.55063E-04 3.33680E-21
5.96931E-04 2.88544E-21
6.40321E-04 2.50793E-21
6.85233E-04 2.19018E-21
7.31665E-04 1.92123E-21
7.79618E-04 1.69233E-21
8.29092E-04 1.49653E-21
8.80086E-04 1.32827E-21
9.32601E-04 1.18300E-21
9.86636E-04 1.05708E-21
1.04219E-03 9.47472E-22
1.09927E-03 8.51717E-22
1.15786E-03 7.67764E-22
1.21797E-03 6.93907E-22
1.27961E-03 6.28727E-22
1.34276E-03 5.71024E-22
1.40743E-03 5.19795E-22
1.47362E-03 4.74187E-22
1.54133E-03 4.33475E-22
1.61056E-03 3.97042E-22
1.68131E-03 3.64358E-22
1.75357E-03 3.34972E-22
1.82735E-03 3.08490E-22
1.90265E-03 2.84575E-22
1.97947E-03 2.62934E-22
2.05780E-03 2.43313E-22
2.13765E-03 2.25489E-22
2.21902E-03 2.09269E-22
2.30190E-03 1.94482E-22
2.38630E-03 1.80978E-22
2.47222E-03 1.68627E-22
2.55965E-03 1.57313E-22
2.64859E-03 1.46932E-22
2.73905E-03 1.37394E-22
2.83103E-03 1.28618E-22
2.92452E-03 1.20531E-22
3.01952E-03 1.13071E-22
3.11604E-03 1.06179E-22
3.21407E-03 9.98051E-23
3.31362E-03 9.39022E-23
3.41468E-03 8.84296E-23
3.51725E-03 8.33501E-23
3.62133E-03 7.86302E-23
3.72692E-03 7.42400E-23
3.83403E-03 7.01520E-23
3.94265E-03 6.63418E-23
4.05278E-03 6.27868E-23
4.16442E-03 5.94669E-23
4.27757E-03 5.63637E-23
4.39223E-03 5.34603E-23
4.50840E-03 5.07416E-23
4.62608E-03 4.81936E-23
4.74527E-03 4.58037E-23
4.86597E-03 4.35601E-23
4.98817E-03 4.14523E-23
5.11188E-03 3.94705E-23
5.23711E-03 3.76058E-23
5.36383E-03 3.58500E-23
5.49207E-03 3.41954E-23
5.62181E-03 3.26353E-23
5.75306E-03 3.11632E-23
5.88581E-03 2.97732E-23
6.02007E-03 2.84599E-23
6.15583E-03 2.72182E-23
6.29310E-03 2.60435E-23
6.43187E-03 2.49316E-23
6.57214E-03 2.38783E-23
6.71392E-03 2.28802E-23
6.85720E-03 2.19336E-23
7.00198E-03 2.10356E-23
7.14827E-03 2.01830E-23
7.29605E-03 1.93732E-23
7.44534E-03 1.86036E-23
7.59612E-03 1.78719E-23
7.97965E-03 1.61940E-23
8.37255E-03 1.47086E-23
8.77480E-03 1.33896E-23
9.18641E-03 1.22153E-23
9.60736E-03 1.11669E-23
1.00376E-02 1.02287E-23
1.04773E-02 9.38696E-24
1.09262E-02 8.63007E-24
1.13844E-02 7.94795E-24
1.18520E-02 7.33191E-24
1.23288E-02 6.77441E-24
1.28150E-02 6.26891E-24
1.33104E-02 5.80968E-24
1.38150E-02 5.39174E-24
1.43290E-02 5.01071E-24
1.48521E-02 4.66274E-24
1.53845E-02 4.34445E-24
1.59262E-02 4.05285E-24
1.64770E-02 3.78530E-24
1.70371E-02 3.53946E-24
1.76063E-02 3.31325E-24
1.81848E-02 3.10481E-24
1.87724E-02 2.91250E-24
1.93692E-02 2.73485E-24
1.99751E-02 2.57052E-24
2.05901E-02 2.41834E-24
2.12143E-02 2.27725E-24
2.18476E-02 2.14630E-24
2.24900E-02 2.02461E-24
2.31415E-02 1.91141E-24
2.38021E-02 1.80601E-24
2.44717E-02 1.70777E-24
2.51504E-02 1.61611E-24
2.58382E-02 1.53050E-24
2.65349E-02 1.45049E-24
2.72407E-02 1.37562E-24
2.79555E-02 1.30552E-24
2.86793E-02 1.23982E-24
2.94120E-02 1.17819E-24
3.01537E-02 1.12034E-24
3.09043E-02 1.06599E-24
3.16639E-02 1.01489E-24
3.24324E-02 9.66809E-25
3.32098E-02 9.21535E-25
3.39961E-02 8.78875E-25
3.47912E-02 8.38648E-25
3.55952E-02 8.00692E-25
3.64081E-02 7.64853E-25
3.72297E-02 7.30992E-25
3.80602E-02 6.98979E-25
3.88995E-02 6.68694E-25
3.97476E-02 6.40028E-25
4.06044E-02 6.12876E-25
4.14700E-02 5.87144E-25
4.23443E-02 5.62744E-25
4.32273E-02 5.39595E-25
4.41190E-02 5.17619E-25
4.50194E-02 4.96747E-25
4.59284E-02 4.76912E-25
4.68461E-02 4.58054E-25
4.87074E-02 4.23042E-25
5.06030E-02 3.91299E-25
5.25328E-02 3.62465E-25
5.44967E-02 3.36228E-25
5.64946E-02 3.12310E-25
5.85262E-02 2.90472E-25
6.05914E-02 2.70499E-25
6.26901E-02 2.52205E-25
6.48222E-02 2.35422E-25
6.69873E-02 2.20004E-25
6.91854E-02 2.05819E-25
7.14163E-02 1.92752E-25
7.36799E-02 1.80698E-25
7.59760E-02 1.69566E-25
7.83043E-02 1.59270E-25
8.06647E-02 1.49739E-25
8.30571E-02 1.40903E-25
8.54812E-02 1.32705E-25
8.79369E-02 1.25089E-25
9.04240E-02 1.18006E-25
9.29422E-02 1.11412E-25
9.54915E-02 1.05269E-25
9.80716E-02 9.95381E-26
1.00682E-01 9.41880E-26
1.03323E-01 8.91885E-26
1.05995E-01 8.45125E-26
1.08696E-01 8.01353E-26
1.11427E-01 7.60344E-26
1.14188E-01 7.21890E-26
1.16978E-01 6.85805E-26
1.19797E-01 6.51916E-26
1.22645E-01 6.20064E-26
1.25522E-01 5.90106E-26
1.28428E-01 5.61908E-26
1.31361E-01 5.35348E-26
1.34323E-01 5.10314E-26
1.37313E-01 4.86702E-26
1.40330E-01 4.64417E-26
1.43375E-01 4.43371E-26
1.46447E-01 4.23481E-26
1.49545E-01 4.04674E-26
1.52671E-01 3.86880E-26
1.55823E-01 3.70034E-26
1.59001E-01 3.54076E-26
1.62205E-01 3.38952E-26
1.65435E-01 3.24610E-26
1.68690E-01 3.11001E-26
1.71970E-01 2.98082E-26
1.75276E-01 2.85812E-26
1.78606E-01 2.74152E-26
1.81961E-01 2.63066E-26
1.85340E-01 2.52521E-26
1.88743E-01 2.42486E-26
1.92169E-01 2.32931E-26
1.95619E-01 2.23830E-26
1.99092E-01 2.15157E-26
2.02589E-01 2.06888E-26
2.06107E-01 1.99001E-26
2.09649E-01 1.91476E-26
2.13212E-01 1.84292E-26
2.16797E-01 1.77432E-26
2.20404E-01 1.70878E-26
2.24032E-01 1.64614E-26
2.27680E-01 1.58625E-26
2.31350E-01 1.52897E-26
2.35040E-01 1.47416E-26
2.38751E-01 1.42170E-26
2.42481E-01 1.37147E-26
2.46231E-01 1.32336E-26
2.50000E-01 1.27726E-26
2.53788E-01 1.23307E-26
2.57595E-01 1.19070E-26
2.61421E-01 1.15007E-26
2.65264E-01 1.11108E-26
2.69126E-01 1.07367E-26
2.73005E-01 1.03775E-26
2.76901E-01 1.00325E-26
2.80814E-01 9.70112E-27
2.84744E-01 9.38270E-27
2.88691E-01 9.07664E-27
2.92653E-01 8.78238E-27
2.96632E-01 8.49938E-27
3.00625E-01 8.22713E-27
3.04634E-01 7.96516E-27
3.08658E-01 7.71301E-27
3.12697E-01 7.47024E-27
3.16749E-01 7.23645E-27
3.20816E-01 7.01125E-27
3.24896E-01 6.79426E-27
3.28990E-01 6.58514E-27
3.33097E-01 6.38355E-27
3.37216E-01 6.18917E-27
3.41348E-01 6.00170E-27
3.45492E-01 5.82085E-27
3.49647E-01 5.64635E-27
3.53814E-01 5.47794E-27
3.57992E-01 5.31536E-27
3.62181E-01 5.15839E-27
3.66381E-01 5.00679E-27
3.70590E-01 4.86035E-27
3.74810E-01 4.71886E-27
3.79039E-01 4.58213E-27
3.83277E-01 4.44997E-27
3.87524E-01 4.32220E-27
3.91780E-01 4.19866E-27
3.96044E-01 4.07917E-27
4.00316E-01 3.96359E-27
4.04596E-01 3.85175E-27
4.08882E-01 3.74353E-27
4.13176E-01 3.63879E-27
4.17476E-01 3.53739E-27
4.21783E-01 3.43921E-27
4.26095E-01 3.34413E-27
4.30413E-01 3.25203E-27
4.34737E-01 3.16282E-27
4.39065E-01 3.07637E-27
4.43398E-01 2.99260E-27
4.47736E-01 2.91141E-27
4.52077E-01 2.83270E-27
4.56422E-01 2.75638E-27
4.60770E-01 2.68238E-27
4.65122E-01 2.61060E-27
4.69476E-01 2.54098E-27
4.73832E-01 2.47343E-27
4.78190E-01 2.40788E-27
4.82550E-01 2.34428E-27
4.86912E-01 2.28254E-27
4.91274E-01 2.22260E-27
4.95637E-01 2.16441E-27
5.00000E-01 2.10790E-27
5.04363E-01 2.05303E-27
5.08726E-01 1.99972E-27
5.13088E-01 1.94794E-27
5.17450E-01 1.89764E-27
5.21810E-01 1.84875E-27
5.26168E-01 1.80124E-27
5.30524E-01 1.75506E-27
5.34878E-01 1.71017E-27
5.39230E-01 1.66653E-27
5.43578E-01 1.62410E-27
5.47923E-01 1.58283E-27
5.52264E-01 1.54270E-27
5.56602E-01 1.50366E-27
5.60935E-01 1.46569E-27
5.65263E-01 1.42874E-27
5.69587E-01 1.39279E-27
5.73905E-01 1.35780E-27
5.78217E-01 1.32375E-27
5.82524E-01 1.29060E-27
5.86824E-01 1.25834E-27
5.91118E-01 1.22693E-27
5.95404E-01 1.19634E-27
5.99684E-01 1.16655E-27
6.03956E-01 1.13755E-27
6.08220E-01 1.10929E-27
6.12476E-01 1.08177E-27
6.16723E-01 1.05496E-27
6.20961E-01 1.02884E-27
6.25190E-01 1.00339E-27
6.29410E-01 9.78582E-28
6.33619E-01 9.54409E-28
6.37819E-01 9.30849E-28
6.42008E-01 9.07883E-28
6.46186E-01 8.85496E-28
6.50353E-01 8.63669E-28
6.54508E-01 8.42387E-28
6.58652E-01 8.21636E-28
6.62784E-01 8.01399E-28
6.66903E-01 7.81662E-28
6.71010E-01 7.62412E-28
6.75104E-01 7.43635E-28
6.79184E-01 7.25317E-28
6.83251E-01 7.07447E-28
6.87303E-01 6.90012E-28
6.91342E-01 6.72999E-28
6.95366E-01 6.56398E-28
6.99375E-01 6.40197E-28
7.03368E-01 6.24385E-28
7.07347E-01 6.08953E-28
7.11309E-01 5.93889E-28
7.15256E-01 5.79184E-28
7.19186E-01 5.64829E-28
7.23099E-01 5.50813E-28
7.26995E-01 5.37129E-28
7.30874E-01 5.23768E-28
7.34736E-01 5.10721E-28
7.38579E-01 4.97979E-28
7.42405E-01 4.85536E-28
7.46212E-01 4.73383E-28
7.50000E-01 4.61513E-28
7.53769E-01 4.49918E-28
7.57519E-01 4.38592E-28
7.61249E-01 4.27528E-28
7.64960E-01 4.16719E-28
7.68650E-01 4.06159E-28
7.72320E-01 3.95842E-28
7.75968E-01 3.85761E-28
7.79596E-01 3.75911E-28
7.83203E-01 3.66285E-28
7.86788E-01 3.56879E-28
7.90351E-01 3.47687E-28
7.93893E-01 3.38704E-28
7.97411E-01 3.29925E-28
8.00908E-01 3.21344E-28
8.04381E-01 3.12958E-28
8.07831E-01 3.04760E-28
8.11257E-01 2.96748E-28
8.14660E-01 2.88916E-28
8.18039E-01 2.81260E-28
8.21394E-01 2.73777E-28
8.24724E-01 2.66461E-28
8.28030E-01 2.59310E-28
8.31310E-01 2.52318E-28
8.34565E-01 2.45484E-28
8.37795E-01 2.38802E-28
8.40999E-01 2.32270E-28
8.44177E-01 2.25883E-28
8.47329E-01 2.19640E-28
8.50455E-01 2.13536E-28
8.53553E-01 2.07569E-28
8.56625E-01 2.01734E-28
8.59670E-01 1.96031E-28
8.62687E-01 1.90454E-28
8.65677E-01 1.85003E-28
8.68639E-01 1.79673E-28
8.71572E-01 1.74463E-28
8.74478E-01 1.69370E-28
8.77355E-01 1.64391E-28
8.80203E-01 1.59523E-28
8.83022E-01 1.54765E-28
8.85812E-01 1.50114E-28
8.88573E-01 1.45569E-28
8.91304E-01 1.41125E-28
8.94005E-01 1.36783E-28
8.96677E-01 1.32538E-28
8.99318E-01 1.28391E-28
9.01928E-01 1.24337E-28
9.04508E-01 1.20377E-28
9.07058E-01 1.16507E-28
9.09576E-01 1.12726E-28
9.12063E-01 1.09032E-28
9.14519E-01 1.05424E-28
9.16943E-01 1.01899E-28
9.19335E-01 9.84570E-29
9.21696E-01 9.50954E-29
9.24024E-01 9.18128E-29
9.26320E-01 8.86078E-29
9.28584E-01 8.54790E-29
9.30815E-01 8.24249E-29
9.33013E-01 7.94442E-29
9.35178E-01 7.65355E-29
9.37310E-01 7.36976E-29
9.39409E-01 7.09291E-29
9.41474E-01 6.82290E-29
9.43505E-01 6.55959E-29
9.45503E-01 6.30287E-29
9.47467E-01 6.05263E-29
9.49397E-01 5.80877E-29
9.51293E-01 5.57117E-29
9.53154E-01 5.33972E-29
9.54981E-01 5.11434E-29
9.56773E-01 4.89493E-29
9.58530E-01 4.68138E-29
9.60252E-01 4.47362E-29
9.61940E-01 4.27154E-29
9.63592E-01 4.07507E-29
9.65209E-01 3.88412E-29
9.66790E-01 3.69861E-29
9.68336E-01 3.51846E-29
9.69846E-01 3.34359E-29
9.71321E-01 3.17394E-29
9.72759E-01 3.00943E-29
9.74162E-01 2.84999E-29
9.75528E-01 2.69556E-29
9.76858E-01 2.54607E-29
9.78152E-01 2.40145E-29
9.79410E-01 2.26166E-29
9.80631E-01 2.12663E-29
9.81815E-01 1.99631E-29
9.82963E-01 1.87064E-29
9.84074E-01 1.74957E-29
9.85148E-01 1.63305E-29
9.86185E-01 1.52104E-29
9.87185E-01 1.41348E-29
9.88148E-01 1.31034E-29
9.89074E-01 1.21157E-29
9.89962E-01 1.11713E-29
9.90814E-01 1.02699E-29
9.91627E-01 9.41098E-30
9.92404E-01 8.59434E-30
9.93143E-01 7.81959E-30
9.93844E-01 7.08640E-30
9.94508E-01 6.39452E-30
9.95134E-01 5.74363E-30
9.95722E-01 5.13348E-30
9.96273E-01 4.56383E-30
9.96786E-01 4.03447E-30
9.97261E-01 3.54515E-30
9.97698E-01 3.09570E-30
9.98097E-01 2.68593E-30
9.98459E-01 2.31567E-30
9.98782E-01 1.98480E-30
9.99067E-01 1.69315E-30
9.99315E-01 1.44062E-30
9.99524E-01 1.22711E-30
9.99695E-01 1.05254E-30
9.99829E-01 9.16842E-31
9.99924E-01 8.19947E-31
9.99981E-01 7.61832E-31
1.00000E+00 7.42446E-31
