 #
 # Subroutine ELSEPA. Elastic scattering of electrons and positrons
 #                    by neutral atoms and positive ions
 #
 # Projectile: electron
 # Kinetic energy = 1.00000E+08 eV = 3.67493E+06 a.u.
 #
 # WARNING: High-energy factorization with free-atom DF screening.
 #          Absorption, polarization and exchange corrections are
 #          switched off.
 #          Phase shifts are calculated for the bare nucleus.
 #          Scattering amplitudes are not evaluated.
 #
 # Element:  O,  Z =   8,  atomic weight = 1.59994E+01 g/mol
 #
 # Nuclear model: Fermi distribution
 #                Average radius = 2.69620E-13 cm
 #                Skin thickness = 5.46000E-14 cm
 #
 # Number of electrons =  8
 #
 # Total elastic cross section = 2.74227E-19 cm**2 = 9.79281E-03 a0**2
 # 1st transport cross section = 1.40315E-26 cm**2 = 5.01075E-10 a0**2
 # 2nd transport cross section = 4.15265E-26 cm**2 = 1.48294E-09 a0**2
 #
 #
 # Differential cross section:                       MU=(1-COS(THETA))/2
 #
 #  THETA        MU          DCS          DCS        Sherman      error
 #  (deg)                 (cm**2/sr)   (a0**2/sr)    function
 #----------------------------------------------------------------------
0.00000E+00 1.52423E-11
7.61557E-13 1.52273E-11
1.18994E-12 1.52189E-11
1.71346E-12 1.52087E-11
2.33225E-12 1.51966E-11
3.04617E-12 1.51827E-11
3.85530E-12 1.51670E-11
4.75964E-12 1.51495E-11
5.75917E-12 1.51301E-11
6.85391E-12 1.51090E-11
8.04379E-12 1.50860E-11
9.32893E-12 1.50613E-11
1.07092E-11 1.50349E-11
1.21847E-11 1.50066E-11
1.37554E-11 1.49767E-11
1.54213E-11 1.49450E-11
1.71823E-11 1.49117E-11
1.90386E-11 1.48766E-11
2.09900E-11 1.48399E-11
2.30367E-11 1.48015E-11
2.51785E-11 1.47616E-11
2.74156E-11 1.47200E-11
2.97478E-11 1.46768E-11
3.21752E-11 1.46320E-11
3.46979E-11 1.45858E-11
3.73157E-11 1.45379E-11
4.00286E-11 1.44886E-11
4.28368E-11 1.44379E-11
4.57402E-11 1.43857E-11
4.87388E-11 1.43319E-11
5.18325E-11 1.42769E-11
5.50215E-11 1.42206E-11
5.83057E-11 1.41627E-11
6.16850E-11 1.41036E-11
6.51595E-11 1.40433E-11
6.87293E-11 1.39817E-11
7.23943E-11 1.39187E-11
7.61544E-11 1.38547E-11
1.18991E-10 1.31542E-11
1.71347E-10 1.23417E-11
2.33223E-10 1.15139E-11
3.04617E-10 1.06142E-11
3.85531E-10 9.73435E-12
4.75965E-10 8.89272E-12
5.75917E-10 8.04939E-12
6.85389E-10 7.25620E-12
8.04380E-10 6.53046E-12
9.32891E-10 5.85509E-12
1.07092E-09 5.22438E-12
1.21847E-09 4.66182E-12
1.37554E-09 4.16004E-12
1.54213E-09 3.69544E-12
1.71823E-09 3.28558E-12
1.90386E-09 2.92417E-12
2.09900E-09 2.59981E-12
2.30367E-09 2.31115E-12
2.51785E-09 2.05790E-12
2.74156E-09 1.83451E-12
2.97478E-09 1.63444E-12
3.21752E-09 1.45907E-12
3.46978E-09 1.30486E-12
3.73156E-09 1.16743E-12
4.00286E-09 1.04619E-12
4.28368E-09 9.39427E-13
4.57402E-09 8.44839E-13
4.87388E-09 7.60680E-13
5.18326E-09 6.86288E-13
5.50215E-09 6.20348E-13
5.83057E-09 5.61406E-13
6.16850E-09 5.09024E-13
6.51596E-09 4.62396E-13
6.87293E-09 4.20698E-13
7.23942E-09 3.83380E-13
7.61544E-09 3.50012E-13
1.18991E-08 1.53774E-13
1.71347E-08 7.76289E-14
2.33223E-08 4.36372E-14
3.04617E-08 2.65913E-14
3.85531E-08 1.72195E-14
4.75965E-08 1.16809E-14
5.75917E-08 8.21996E-15
6.85389E-08 5.95812E-15
8.04380E-08 4.42510E-15
9.32891E-08 3.35393E-15
1.07092E-07 2.58742E-15
1.21847E-07 2.02707E-15
1.37554E-07 1.60975E-15
1.54213E-07 1.29374E-15
1.71823E-07 1.05112E-15
1.90386E-07 8.62448E-16
2.09900E-07 7.14006E-16
2.30367E-07 5.95949E-16
2.51785E-07 5.01156E-16
2.74156E-07 4.24376E-16
2.97478E-07 3.61673E-16
3.21752E-07 3.10072E-16
3.46978E-07 2.67302E-16
3.73156E-07 2.31626E-16
4.00286E-07 2.01682E-16
4.28368E-07 1.76406E-16
4.57402E-07 1.54950E-16
4.87388E-07 1.36649E-16
5.18325E-07 1.20962E-16
5.50215E-07 1.07457E-16
5.83057E-07 9.57786E-17
6.16850E-07 8.56403E-17
6.51596E-07 7.68054E-17
6.87293E-07 6.90784E-17
7.23942E-07 6.22970E-17
7.61543E-07 5.63258E-17
1.18991E-06 2.31420E-17
1.71347E-06 1.11744E-17
2.33223E-06 6.03534E-18
3.04617E-06 3.53899E-18
3.85531E-06 2.20983E-18
4.75964E-06 1.45004E-18
5.75916E-06 9.90460E-19
6.85388E-06 6.99372E-19
8.04378E-06 5.07790E-19
9.32888E-06 3.77544E-19
1.07092E-05 2.86508E-19
1.21846E-05 2.21331E-19
1.37553E-05 1.73679E-19
1.54212E-05 1.38189E-19
1.71822E-05 1.11319E-19
1.90385E-05 9.06933E-20
2.09899E-05 7.46150E-20
2.30365E-05 6.19425E-20
2.51783E-05 5.18483E-20
2.74153E-05 4.37299E-20
2.97475E-05 3.71420E-20
3.21749E-05 3.17512E-20
3.46974E-05 2.73050E-20
3.73152E-05 2.36110E-20
4.00281E-05 2.05208E-20
4.28362E-05 1.79195E-20
4.57395E-05 1.57171E-20
4.87380E-05 1.38426E-20
5.18317E-05 1.22394E-20
5.50205E-05 1.08618E-20
5.83045E-05 9.67297E-21
6.16838E-05 8.64264E-21
6.51582E-05 7.74605E-21
6.87277E-05 6.96279E-21
7.23925E-05 6.27603E-21
7.61524E-05 5.67055E-21
9.21439E-05 3.87319E-21
1.09658E-04 2.73514E-21
1.28695E-04 1.98593E-21
1.49255E-04 1.47660E-21
1.71338E-04 1.12061E-21
1.94942E-04 8.65690E-22
2.20070E-04 6.79342E-22
2.46720E-04 5.40526E-22
2.74892E-04 4.35434E-22
3.04586E-04 3.54684E-22
3.35803E-04 2.91812E-22
3.68542E-04 2.42278E-22
4.02802E-04 2.02818E-22
4.38585E-04 1.71077E-22
4.75889E-04 1.45307E-22
5.14715E-04 1.24212E-22
5.55063E-04 1.06810E-22
5.96931E-04 9.23500E-23
6.40321E-04 8.02569E-23
6.85233E-04 7.00790E-23
7.31665E-04 6.14646E-23
7.79618E-04 5.41337E-23
8.29092E-04 4.78634E-23
8.80086E-04 4.24753E-23
9.32601E-04 3.78239E-23
9.86636E-04 3.37921E-23
1.04219E-03 3.02832E-23
1.09927E-03 2.72179E-23
1.15786E-03 2.45307E-23
1.21797E-03 2.21669E-23
1.27961E-03 2.00809E-23
1.34276E-03 1.82344E-23
1.40743E-03 1.65953E-23
1.47362E-03 1.51361E-23
1.54133E-03 1.38337E-23
1.61056E-03 1.26684E-23
1.68131E-03 1.16230E-23
1.75357E-03 1.06832E-23
1.82735E-03 9.83643E-24
1.90265E-03 9.07181E-24
1.97947E-03 8.37998E-24
2.05780E-03 7.75277E-24
2.13765E-03 7.18310E-24
2.21902E-03 6.66473E-24
2.30190E-03 6.19223E-24
2.38630E-03 5.76080E-24
2.47222E-03 5.36624E-24
2.55965E-03 5.00485E-24
2.64859E-03 4.67331E-24
2.73905E-03 4.36873E-24
2.83103E-03 4.08852E-24
2.92452E-03 3.83038E-24
3.01952E-03 3.59225E-24
3.11604E-03 3.37231E-24
3.21407E-03 3.16891E-24
3.31362E-03 2.98057E-24
3.41468E-03 2.80600E-24
3.51725E-03 2.64399E-24
3.62133E-03 2.49347E-24
3.72692E-03 2.35349E-24
3.83403E-03 2.22317E-24
3.94265E-03 2.10172E-24
4.05278E-03 1.98842E-24
4.16442E-03 1.88264E-24
4.27757E-03 1.78378E-24
4.39223E-03 1.69130E-24
4.50840E-03 1.60472E-24
4.62608E-03 1.52358E-24
4.74527E-03 1.44750E-24
4.86597E-03 1.37609E-24
4.98817E-03 1.30901E-24
5.11188E-03 1.24595E-24
5.23711E-03 1.18663E-24
5.36383E-03 1.13079E-24
5.49207E-03 1.07818E-24
5.62181E-03 1.02858E-24
5.75306E-03 9.81785E-25
5.88581E-03 9.37610E-25
6.02007E-03 8.95882E-25
6.15583E-03 8.56438E-25
6.29310E-03 8.19130E-25
6.43187E-03 7.83822E-25
6.57214E-03 7.50386E-25
6.71392E-03 7.18705E-25
6.85720E-03 6.88669E-25
7.00198E-03 6.60178E-25
7.14827E-03 6.33136E-25
7.29605E-03 6.07457E-25
7.44534E-03 5.83059E-25
7.59612E-03 5.59867E-25
7.97965E-03 5.06706E-25
8.37255E-03 4.59670E-25
8.77480E-03 4.17933E-25
9.18641E-03 3.80796E-25
9.60736E-03 3.47664E-25
1.00376E-02 3.18032E-25
1.04773E-02 2.91466E-25
1.09262E-02 2.67594E-25
1.13844E-02 2.46096E-25
1.18520E-02 2.26695E-25
1.23288E-02 2.09150E-25
1.28150E-02 1.93254E-25
1.33104E-02 1.78824E-25
1.38150E-02 1.65702E-25
1.43290E-02 1.53748E-25
1.48521E-02 1.42841E-25
1.53845E-02 1.32872E-25
1.59262E-02 1.23747E-25
1.64770E-02 1.15382E-25
1.70371E-02 1.07702E-25
1.76063E-02 1.00642E-25
1.81848E-02 9.41428E-26
1.87724E-02 8.81519E-26
1.93692E-02 8.26227E-26
1.99751E-02 7.75134E-26
2.05901E-02 7.27865E-26
2.12143E-02 6.84083E-26
2.18476E-02 6.43486E-26
2.24900E-02 6.05802E-26
2.31415E-02 5.70785E-26
2.38021E-02 5.38213E-26
2.44717E-02 5.07886E-26
2.51504E-02 4.79622E-26
2.58382E-02 4.53256E-26
2.65349E-02 4.28638E-26
2.72407E-02 4.05631E-26
2.79555E-02 3.84113E-26
2.86793E-02 3.63970E-26
2.94120E-02 3.45098E-26
3.01537E-02 3.27404E-26
3.09043E-02 3.10801E-26
3.16639E-02 2.95210E-26
3.24324E-02 2.80559E-26
3.32098E-02 2.66781E-26
3.39961E-02 2.53816E-26
3.47912E-02 2.41606E-26
3.55952E-02 2.30100E-26
3.64081E-02 2.19251E-26
3.72297E-02 2.09015E-26
3.80602E-02 1.99350E-26
3.88995E-02 1.90221E-26
3.97476E-02 1.81591E-26
4.06044E-02 1.73429E-26
4.14700E-02 1.65705E-26
4.23443E-02 1.58391E-26
4.32273E-02 1.51463E-26
4.41190E-02 1.44896E-26
4.50194E-02 1.38668E-26
4.59284E-02 1.32759E-26
4.68461E-02 1.27149E-26
4.87074E-02 1.16759E-26
5.06030E-02 1.07369E-26
5.25328E-02 9.88674E-27
5.44967E-02 9.11575E-27
5.64946E-02 8.41534E-27
5.85262E-02 7.77805E-27
6.05914E-02 7.19729E-27
6.26901E-02 6.66726E-27
6.48222E-02 6.18284E-27
6.69873E-02 5.73949E-27
6.91854E-02 5.33320E-27
7.14163E-02 4.96038E-27
7.36799E-02 4.61785E-27
7.59760E-02 4.30279E-27
7.83043E-02 4.01264E-27
8.06647E-02 3.74515E-27
8.30571E-02 3.49827E-27
8.54812E-02 3.27019E-27
8.79369E-02 3.05925E-27
9.04240E-02 2.86398E-27
9.29422E-02 2.68304E-27
9.54915E-02 2.51523E-27
9.80716E-02 2.35945E-27
1.00682E-01 2.21472E-27
1.03323E-01 2.08014E-27
1.05995E-01 1.95490E-27
1.08696E-01 1.83826E-27
1.11427E-01 1.72954E-27
1.14188E-01 1.62814E-27
1.16978E-01 1.53348E-27
1.19797E-01 1.44506E-27
1.22645E-01 1.36242E-27
1.25522E-01 1.28512E-27
1.28428E-01 1.21277E-27
1.31361E-01 1.14502E-27
1.34323E-01 1.08152E-27
1.37313E-01 1.02199E-27
1.40330E-01 9.66134E-28
1.43375E-01 9.13702E-28
1.46447E-01 8.64457E-28
1.49545E-01 8.18180E-28
1.52671E-01 7.74669E-28
1.55823E-01 7.33739E-28
1.59001E-01 6.95218E-28
1.62205E-01 6.58946E-28
1.65435E-01 6.24776E-28
1.68690E-01 5.92572E-28
1.71970E-01 5.62207E-28
1.75276E-01 5.33564E-28
1.78606E-01 5.06533E-28
1.81961E-01 4.81014E-28
1.85340E-01 4.56911E-28
1.88743E-01 4.34139E-28
1.92169E-01 4.12614E-28
1.95619E-01 3.92261E-28
1.99092E-01 3.73010E-28
2.02589E-01 3.54793E-28
2.06107E-01 3.37550E-28
2.09649E-01 3.21223E-28
2.13212E-01 3.05758E-28
2.16797E-01 2.91104E-28
2.20404E-01 2.77216E-28
2.24032E-01 2.64048E-28
2.27680E-01 2.51560E-28
2.31350E-01 2.39714E-28
2.35040E-01 2.28472E-28
2.38751E-01 2.17801E-28
2.42481E-01 2.07669E-28
2.46231E-01 1.98046E-28
2.50000E-01 1.88905E-28
2.53788E-01 1.80219E-28
2.57595E-01 1.71964E-28
2.61421E-01 1.64115E-28
2.65264E-01 1.56652E-28
2.69126E-01 1.49553E-28
2.73005E-01 1.42799E-28
2.76901E-01 1.36373E-28
2.80814E-01 1.30256E-28
2.84744E-01 1.24432E-28
2.88691E-01 1.18888E-28
2.92653E-01 1.13607E-28
2.96632E-01 1.08576E-28
3.00625E-01 1.03783E-28
3.04634E-01 9.92151E-29
3.08658E-01 9.48614E-29
3.12697E-01 9.07108E-29
3.16749E-01 8.67533E-29
3.20816E-01 8.29791E-29
3.24896E-01 7.93790E-29
3.28990E-01 7.59446E-29
3.33097E-01 7.26675E-29
3.37216E-01 6.95401E-29
3.41348E-01 6.65551E-29
3.45492E-01 6.37054E-29
3.49647E-01 6.09846E-29
3.53814E-01 5.83865E-29
3.57992E-01 5.59050E-29
3.62181E-01 5.35347E-29
3.66381E-01 5.12702E-29
3.70590E-01 4.91065E-29
3.74810E-01 4.70389E-29
3.79039E-01 4.50627E-29
3.83277E-01 4.31737E-29
3.87524E-01 4.13678E-29
3.91780E-01 3.96412E-29
3.96044E-01 3.79901E-29
4.00316E-01 3.64110E-29
4.04596E-01 3.49006E-29
4.08882E-01 3.34558E-29
4.13176E-01 3.20736E-29
4.17476E-01 3.07510E-29
4.21783E-01 2.94854E-29
4.26095E-01 2.82741E-29
4.30413E-01 2.71148E-29
4.34737E-01 2.60050E-29
4.39065E-01 2.49426E-29
4.43398E-01 2.39254E-29
4.47736E-01 2.29514E-29
4.52077E-01 2.20186E-29
4.56422E-01 2.11253E-29
4.60770E-01 2.02696E-29
4.65122E-01 1.94500E-29
4.69476E-01 1.86647E-29
4.73832E-01 1.79124E-29
4.78190E-01 1.71915E-29
4.82550E-01 1.65007E-29
4.86912E-01 1.58387E-29
4.91274E-01 1.52042E-29
4.95637E-01 1.45960E-29
5.00000E-01 1.40130E-29
5.04363E-01 1.34541E-29
5.08726E-01 1.29182E-29
5.13088E-01 1.24044E-29
5.17450E-01 1.19117E-29
5.21810E-01 1.14392E-29
5.26168E-01 1.09861E-29
5.30524E-01 1.05515E-29
5.34878E-01 1.01346E-29
5.39230E-01 9.73469E-30
5.43578E-01 9.35104E-30
5.47923E-01 8.98297E-30
5.52264E-01 8.62982E-30
5.56602E-01 8.29095E-30
5.60935E-01 7.96577E-30
5.65263E-01 7.65371E-30
5.69587E-01 7.35421E-30
5.73905E-01 7.06675E-30
5.78217E-01 6.79083E-30
5.82524E-01 6.52596E-30
5.86824E-01 6.27170E-30
5.91118E-01 6.02760E-30
5.95404E-01 5.79323E-30
5.99684E-01 5.56821E-30
6.03956E-01 5.35213E-30
6.08220E-01 5.14464E-30
6.12476E-01 4.94538E-30
6.16723E-01 4.75401E-30
6.20961E-01 4.57022E-30
6.25190E-01 4.39368E-30
6.29410E-01 4.22411E-30
6.33619E-01 4.06122E-30
6.37819E-01 3.90474E-30
6.42008E-01 3.75441E-30
6.46186E-01 3.60997E-30
6.50353E-01 3.47120E-30
6.54508E-01 3.33786E-30
6.58652E-01 3.20973E-30
6.62784E-01 3.08660E-30
6.66903E-01 2.96828E-30
6.71010E-01 2.85456E-30
6.75104E-01 2.74527E-30
6.79184E-01 2.64022E-30
6.83251E-01 2.53925E-30
6.87303E-01 2.44219E-30
6.91342E-01 2.34889E-30
6.95366E-01 2.25920E-30
6.99375E-01 2.17297E-30
7.03368E-01 2.09007E-30
7.07347E-01 2.01036E-30
7.11309E-01 1.93372E-30
7.15256E-01 1.86002E-30
7.19186E-01 1.78916E-30
7.23099E-01 1.72101E-30
7.26995E-01 1.65548E-30
7.30874E-01 1.59245E-30
7.34736E-01 1.53184E-30
7.38579E-01 1.47354E-30
7.42405E-01 1.41746E-30
7.46212E-01 1.36352E-30
7.50000E-01 1.31163E-30
7.53769E-01 1.26172E-30
7.57519E-01 1.21370E-30
7.61249E-01 1.16751E-30
7.64960E-01 1.12307E-30
7.68650E-01 1.08031E-30
7.72320E-01 1.03917E-30
7.75968E-01 9.99579E-31
7.79596E-01 9.61488E-31
7.83203E-01 9.24834E-31
7.86788E-01 8.89562E-31
7.90351E-01 8.55618E-31
7.93893E-01 8.22951E-31
7.97411E-01 7.91511E-31
8.00908E-01 7.61252E-31
8.04381E-01 7.32129E-31
8.07831E-01 7.04097E-31
8.11257E-01 6.77114E-31
8.14660E-01 6.51142E-31
8.18039E-01 6.26140E-31
8.21394E-01 6.02072E-31
8.24724E-01 5.78902E-31
8.28030E-01 5.56597E-31
8.31310E-01 5.35122E-31
8.34565E-01 5.14447E-31
8.37795E-01 4.94541E-31
8.40999E-01 4.75374E-31
8.44177E-01 4.56920E-31
8.47329E-01 4.39150E-31
8.50455E-01 4.22040E-31
8.53553E-01 4.05563E-31
8.56625E-01 3.89697E-31
8.59670E-01 3.74417E-31
8.62687E-01 3.59703E-31
8.65677E-01 3.45533E-31
8.68639E-01 3.31886E-31
8.71572E-01 3.18743E-31
8.74478E-01 3.06085E-31
8.77355E-01 2.93894E-31
8.80203E-01 2.82152E-31
8.83022E-01 2.70842E-31
8.85812E-01 2.59950E-31
8.88573E-01 2.49458E-31
8.91304E-01 2.39352E-31
8.94005E-01 2.29618E-31
8.96677E-01 2.20242E-31
8.99318E-01 2.11211E-31
9.01928E-01 2.02512E-31
9.04508E-01 1.94133E-31
9.07058E-01 1.86062E-31
9.09576E-01 1.78287E-31
9.12063E-01 1.70799E-31
9.14519E-01 1.63586E-31
9.16943E-01 1.56638E-31
9.19335E-01 1.49945E-31
9.21696E-01 1.43499E-31
9.24024E-01 1.37291E-31
9.26320E-01 1.31311E-31
9.28584E-01 1.25552E-31
9.30815E-01 1.20005E-31
9.33013E-01 1.14663E-31
9.35178E-01 1.09519E-31
9.37310E-01 1.04566E-31
9.39409E-01 9.97955E-32
9.41474E-01 9.52029E-32
9.43505E-01 9.07808E-32
9.45503E-01 8.65238E-32
9.47467E-01 8.24257E-32
9.49397E-01 7.84812E-32
9.51293E-01 7.46848E-32
9.53154E-01 7.10312E-32
9.54981E-01 6.75157E-32
9.56773E-01 6.41334E-32
9.58530E-01 6.08798E-32
9.60252E-01 5.77504E-32
9.61940E-01 5.47412E-32
9.63592E-01 5.18478E-32
9.65209E-01 4.90667E-32
9.66790E-01 4.63940E-32
9.68336E-01 4.38260E-32
9.69846E-01 4.13593E-32
9.71321E-01 3.89908E-32
9.72759E-01 3.67172E-32
9.74162E-01 3.45354E-32
9.75528E-01 3.24426E-32
9.76858E-01 3.04360E-32
9.78152E-01 2.85129E-32
9.79410E-01 2.66707E-32
9.80631E-01 2.49071E-32
9.81815E-01 2.32196E-32
9.82963E-01 2.16062E-32
9.84074E-01 2.00646E-32
9.85148E-01 1.85927E-32
9.86185E-01 1.71887E-32
9.87185E-01 1.58506E-32
9.88148E-01 1.45768E-32
9.89074E-01 1.33656E-32
9.89962E-01 1.22153E-32
9.90814E-01 1.11246E-32
9.91627E-01 1.00917E-32
9.92404E-01 9.11565E-33
9.93143E-01 8.19497E-33
9.93844E-01 7.32841E-33
9.94508E-01 6.51496E-33
9.95134E-01 5.75350E-33
9.95722E-01 5.04301E-33
9.96273E-01 4.38255E-33
9.96786E-01 3.77140E-33
9.97261E-01 3.20861E-33
9.97698E-01 2.69350E-33
9.98097E-01 2.22539E-33
9.98459E-01 1.80368E-33
9.98782E-01 1.42785E-33
9.99067E-01 1.09736E-33
9.99315E-01 8.11795E-34
9.99524E-01 5.70774E-34
9.99695E-01 3.73984E-34
9.99829E-01 2.21243E-34
9.99924E-01 1.12250E-34
9.99981E-01 4.69314E-35
1.00000E+00 2.51461E-35
