 #
 # Subroutine ELSEPA. Elastic scattering of electrons and positrons
 #                    by neutral atoms and positive ions
 #
 # Projectile: electron
 # Kinetic energy = 4.00000E+06 eV = 1.46997E+05 a.u.
 #
 # WARNING: High-energy factorization with free-atom DF screening.
 #          Absorption, polarization and exchange corrections are
 #          switched off.
 #          Phase shifts are calculated for the bare nucleus.
 #          Scattering amplitudes are not evaluated.
 #
 # Element:  O,  Z =   8,  atomic weight = 1.59994E+01 g/mol
 #
 # Nuclear model: Fermi distribution
 #                Average radius = 2.69620E-13 cm
 #                Skin thickness = 5.46000E-14 cm
 #
 # Number of electrons =  8
 #
 # Total elastic cross section = 2.77476E-19 cm**2 = 9.90884E-03 a0**2
 # 1st transport cross section = 5.00313E-24 cm**2 = 1.78665E-07 a0**2
 # 2nd transport cross section = 1.43297E-23 cm**2 = 5.11724E-07 a0**2
 #
 #
 # Differential cross section:                       MU=(1-COS(THETA))/2
 #
 #  THETA        MU          DCS          DCS        Sherman      error
 #  (deg)                 (cm**2/sr)   (a0**2/sr)    function
 #----------------------------------------------------------------------
0.00000E+00 3.07021E-14
7.61557E-13 3.07020E-14
1.18994E-12 3.07020E-14
1.71346E-12 3.07019E-14
2.33225E-12 3.07019E-14
3.04617E-12 3.07018E-14
3.85530E-12 3.07018E-14
4.75964E-12 3.07017E-14
5.75917E-12 3.07016E-14
6.85391E-12 3.07015E-14
8.04379E-12 3.07014E-14
9.32893E-12 3.07013E-14
1.07092E-11 3.07012E-14
1.21847E-11 3.07011E-14
1.37554E-11 3.07010E-14
1.54213E-11 3.07008E-14
1.71823E-11 3.07007E-14
1.90386E-11 3.07006E-14
2.09900E-11 3.07004E-14
2.30367E-11 3.07002E-14
2.51785E-11 3.07001E-14
2.74156E-11 3.06999E-14
2.97478E-11 3.06997E-14
3.21752E-11 3.06995E-14
3.46979E-11 3.06993E-14
3.73157E-11 3.06991E-14
4.00286E-11 3.06989E-14
4.28368E-11 3.06987E-14
4.57402E-11 3.06984E-14
4.87388E-11 3.06982E-14
5.18325E-11 3.06980E-14
5.50215E-11 3.06977E-14
5.83057E-11 3.06974E-14
6.16850E-11 3.06972E-14
6.51595E-11 3.06969E-14
6.87293E-11 3.06966E-14
7.23943E-11 3.06963E-14
7.61544E-11 3.06960E-14
1.18991E-10 3.06927E-14
1.71347E-10 3.06886E-14
2.33223E-10 3.06837E-14
3.04617E-10 3.06781E-14
3.85531E-10 3.06718E-14
4.75965E-10 3.06647E-14
5.75917E-10 3.06569E-14
6.85389E-10 3.06483E-14
8.04380E-10 3.06390E-14
9.32891E-10 3.06290E-14
1.07092E-09 3.06182E-14
1.21847E-09 3.06067E-14
1.37554E-09 3.05945E-14
1.54213E-09 3.05815E-14
1.71823E-09 3.05678E-14
1.90386E-09 3.05534E-14
2.09900E-09 3.05382E-14
2.30367E-09 3.05224E-14
2.51785E-09 3.05057E-14
2.74156E-09 3.04884E-14
2.97478E-09 3.04704E-14
3.21752E-09 3.04516E-14
3.46978E-09 3.04321E-14
3.73156E-09 3.04119E-14
4.00286E-09 3.03910E-14
4.28368E-09 3.03693E-14
4.57402E-09 3.03470E-14
4.87388E-09 3.03240E-14
5.18326E-09 3.03002E-14
5.50215E-09 3.02758E-14
5.83057E-09 3.02507E-14
6.16850E-09 3.02248E-14
6.51596E-09 3.01982E-14
6.87293E-09 3.01711E-14
7.23942E-09 3.01431E-14
7.61544E-09 3.01145E-14
1.18991E-08 2.97914E-14
1.71347E-08 2.94035E-14
2.33223E-08 2.89545E-14
3.04617E-08 2.84486E-14
3.85531E-08 2.78907E-14
4.75965E-08 2.72859E-14
5.75917E-08 2.66395E-14
6.85389E-08 2.59570E-14
8.04380E-08 2.52200E-14
9.32891E-08 2.44396E-14
1.07092E-07 2.36928E-14
1.21847E-07 2.29592E-14
1.37554E-07 2.21217E-14
1.54213E-07 2.13359E-14
1.71823E-07 2.06009E-14
1.90386E-07 1.97576E-14
2.09900E-07 1.89700E-14
2.30367E-07 1.82405E-14
2.51785E-07 1.74483E-14
2.74156E-07 1.66887E-14
2.97478E-07 1.59892E-14
3.21752E-07 1.52664E-14
3.46978E-07 1.45563E-14
3.73156E-07 1.39042E-14
4.00286E-07 1.32583E-14
4.28368E-07 1.26107E-14
4.57402E-07 1.20165E-14
4.87388E-07 1.14481E-14
5.18325E-07 1.08689E-14
5.50215E-07 1.03375E-14
5.83057E-07 9.84278E-15
6.16850E-07 9.33282E-15
6.51596E-07 8.86450E-15
6.87293E-07 8.43379E-15
7.23942E-07 7.99371E-15
7.61543E-07 7.58573E-15
1.18991E-06 4.49961E-15
1.71347E-06 2.70173E-15
2.33223E-06 1.66424E-15
3.04617E-06 1.05880E-15
3.85531E-06 6.96832E-16
4.75964E-06 4.74158E-16
5.75916E-06 3.32850E-16
6.85388E-06 2.40338E-16
8.04378E-06 1.77994E-16
9.32888E-06 1.34848E-16
1.07092E-05 1.04193E-16
1.21846E-05 8.19260E-17
1.37553E-05 6.54145E-17
1.54212E-05 5.29435E-17
1.71822E-05 4.33658E-17
1.90385E-05 3.58986E-17
2.09899E-05 2.99928E-17
2.30365E-05 2.52707E-17
2.51783E-05 2.14551E-17
2.74153E-05 1.83395E-17
2.97475E-05 1.57726E-17
3.21749E-05 1.36440E-17
3.46974E-05 1.18653E-17
3.73152E-05 1.03687E-17
4.00281E-05 9.09960E-18
4.28362E-05 8.01827E-18
4.57395E-05 7.09280E-18
4.87380E-05 6.29687E-18
5.18317E-05 5.60928E-18
5.50205E-05 5.01178E-18
5.83045E-05 4.49163E-18
6.16838E-05 4.03709E-18
6.51582E-05 3.63841E-18
6.87277E-05 3.28738E-18
7.23925E-05 2.97712E-18
7.61524E-05 2.70239E-18
9.21439E-05 1.87354E-18
1.09658E-04 1.33796E-18
1.28695E-04 9.79780E-19
1.49255E-04 7.33251E-19
1.71338E-04 5.59282E-19
1.94942E-04 4.33764E-19
2.20070E-04 3.41455E-19
2.46720E-04 2.72361E-19
2.74892E-04 2.19849E-19
3.04586E-04 1.79373E-19
3.35803E-04 1.47777E-19
3.68542E-04 1.22831E-19
4.02802E-04 1.02924E-19
4.38585E-04 8.68866E-20
4.75889E-04 7.38506E-20
5.14715E-04 6.31679E-20
5.55063E-04 5.43474E-20
5.96931E-04 4.70125E-20
6.40321E-04 4.08741E-20
6.85233E-04 3.57047E-20
7.31665E-04 3.13272E-20
7.79618E-04 2.76002E-20
8.29092E-04 2.44111E-20
8.80086E-04 2.16697E-20
9.32601E-04 1.93023E-20
9.86636E-04 1.72496E-20
1.04219E-03 1.54626E-20
1.09927E-03 1.39012E-20
1.15786E-03 1.25320E-20
1.21797E-03 1.13273E-20
1.27961E-03 1.02640E-20
1.34276E-03 9.32252E-21
1.40743E-03 8.48663E-21
1.47362E-03 7.74237E-21
1.54133E-03 7.07796E-21
1.61056E-03 6.48334E-21
1.68131E-03 5.94988E-21
1.75357E-03 5.47020E-21
1.82735E-03 5.03791E-21
1.90265E-03 4.64751E-21
1.97947E-03 4.29422E-21
2.05780E-03 3.97387E-21
2.13765E-03 3.68287E-21
2.21902E-03 3.41802E-21
2.30190E-03 3.17655E-21
2.38630E-03 2.95603E-21
2.47222E-03 2.75434E-21
2.55965E-03 2.56956E-21
2.64859E-03 2.40003E-21
2.73905E-03 2.24426E-21
2.83103E-03 2.10093E-21
2.92452E-03 1.96887E-21
3.01952E-03 1.84704E-21
3.11604E-03 1.73448E-21
3.21407E-03 1.63038E-21
3.31362E-03 1.53397E-21
3.41468E-03 1.44459E-21
3.51725E-03 1.36163E-21
3.62133E-03 1.28454E-21
3.72692E-03 1.21284E-21
3.83403E-03 1.14607E-21
3.94265E-03 1.08384E-21
4.05278E-03 1.02577E-21
4.16442E-03 9.71547E-22
4.27757E-03 9.20861E-22
4.39223E-03 8.73439E-22
4.50840E-03 8.29033E-22
4.62608E-03 7.87414E-22
4.74527E-03 7.48376E-22
4.86597E-03 7.11730E-22
4.98817E-03 6.77300E-22
5.11188E-03 6.44929E-22
5.23711E-03 6.14469E-22
5.36383E-03 5.85788E-22
5.49207E-03 5.58762E-22
5.62181E-03 5.33277E-22
5.75306E-03 5.09230E-22
5.88581E-03 4.86524E-22
6.02007E-03 4.65070E-22
6.15583E-03 4.44786E-22
6.29310E-03 4.25597E-22
6.43187E-03 4.07432E-22
6.57214E-03 3.90227E-22
6.71392E-03 3.73921E-22
6.85720E-03 3.58458E-22
7.00198E-03 3.43787E-22
7.14827E-03 3.29859E-22
7.29605E-03 3.16629E-22
7.44534E-03 3.04057E-22
7.59612E-03 2.92103E-22
7.97965E-03 2.64691E-22
8.37255E-03 2.40421E-22
8.77480E-03 2.18872E-22
9.18641E-03 1.99686E-22
9.60736E-03 1.82557E-22
1.00376E-02 1.67226E-22
1.04773E-02 1.53473E-22
1.09262E-02 1.41105E-22
1.13844E-02 1.29959E-22
1.18520E-02 1.19892E-22
1.23288E-02 1.10782E-22
1.28150E-02 1.02521E-22
1.33104E-02 9.50161E-23
1.38150E-02 8.81857E-23
1.43290E-02 8.19584E-23
1.48521E-02 7.62713E-23
1.53845E-02 7.10690E-23
1.59262E-02 6.63029E-23
1.64770E-02 6.19298E-23
1.70371E-02 5.79114E-23
1.76063E-02 5.42136E-23
1.81848E-02 5.08064E-23
1.87724E-02 4.76626E-23
1.93692E-02 4.47583E-23
1.99751E-02 4.20718E-23
2.05901E-02 3.95838E-23
2.12143E-02 3.72771E-23
2.18476E-02 3.51359E-23
2.24900E-02 3.31462E-23
2.31415E-02 3.12953E-23
2.38021E-02 2.95718E-23
2.44717E-02 2.79652E-23
2.51504E-02 2.64662E-23
2.58382E-02 2.50663E-23
2.65349E-02 2.37577E-23
2.72407E-02 2.25333E-23
2.79555E-02 2.13867E-23
2.86793E-02 2.03120E-23
2.94120E-02 1.93040E-23
3.01537E-02 1.83577E-23
3.09043E-02 1.74686E-23
3.16639E-02 1.66326E-23
3.24324E-02 1.58460E-23
3.32098E-02 1.51053E-23
3.39961E-02 1.44073E-23
3.47912E-02 1.37491E-23
3.55952E-02 1.31280E-23
3.64081E-02 1.25416E-23
3.72297E-02 1.19874E-23
3.80602E-02 1.14635E-23
3.88995E-02 1.09679E-23
3.97476E-02 1.04987E-23
4.06044E-02 1.00543E-23
4.14700E-02 9.63310E-24
4.23443E-02 9.23370E-24
4.32273E-02 8.85473E-24
4.41190E-02 8.49497E-24
4.50194E-02 8.15325E-24
4.59284E-02 7.82851E-24
4.68461E-02 7.51973E-24
4.87074E-02 6.94641E-24
5.06030E-02 6.42656E-24
5.25328E-02 5.95432E-24
5.44967E-02 5.52453E-24
5.64946E-02 5.13271E-24
5.85262E-02 4.77490E-24
6.05914E-02 4.44763E-24
6.26901E-02 4.14781E-24
6.48222E-02 3.87274E-24
6.69873E-02 3.61999E-24
6.91854E-02 3.38745E-24
7.14163E-02 3.17319E-24
7.36799E-02 2.97552E-24
7.59760E-02 2.79293E-24
7.83043E-02 2.62405E-24
8.06647E-02 2.46768E-24
8.30571E-02 2.32271E-24
8.54812E-02 2.18816E-24
8.79369E-02 2.06316E-24
9.04240E-02 1.94689E-24
9.29422E-02 1.83864E-24
9.54915E-02 1.73776E-24
9.80716E-02 1.64364E-24
1.00682E-01 1.55576E-24
1.03323E-01 1.47363E-24
1.05995E-01 1.39680E-24
1.08696E-01 1.32486E-24
1.11427E-01 1.25746E-24
1.14188E-01 1.19424E-24
1.16978E-01 1.13491E-24
1.19797E-01 1.07918E-24
1.22645E-01 1.02679E-24
1.25522E-01 9.77500E-25
1.28428E-01 9.31102E-25
1.31361E-01 8.87392E-25
1.34323E-01 8.46185E-25
1.37313E-01 8.07311E-25
1.40330E-01 7.70614E-25
1.43375E-01 7.35951E-25
1.46447E-01 7.03186E-25
1.49545E-01 6.72199E-25
1.52671E-01 6.42874E-25
1.55823E-01 6.15106E-25
1.59001E-01 5.88797E-25
1.62205E-01 5.63856E-25
1.65435E-01 5.40200E-25
1.68690E-01 5.17750E-25
1.71970E-01 4.96433E-25
1.75276E-01 4.76181E-25
1.78606E-01 4.56933E-25
1.81961E-01 4.38628E-25
1.85340E-01 4.21212E-25
1.88743E-01 4.04634E-25
1.92169E-01 3.88846E-25
1.95619E-01 3.73804E-25
1.99092E-01 3.59466E-25
2.02589E-01 3.45794E-25
2.06107E-01 3.32749E-25
2.09649E-01 3.20300E-25
2.13212E-01 3.08413E-25
2.16797E-01 2.97058E-25
2.20404E-01 2.86207E-25
2.24032E-01 2.75834E-25
2.27680E-01 2.65914E-25
2.31350E-01 2.56423E-25
2.35040E-01 2.47340E-25
2.38751E-01 2.38643E-25
2.42481E-01 2.30314E-25
2.46231E-01 2.22334E-25
2.50000E-01 2.14686E-25
2.53788E-01 2.07353E-25
2.57595E-01 2.00320E-25
2.61421E-01 1.93573E-25
2.65264E-01 1.87098E-25
2.69126E-01 1.80881E-25
2.73005E-01 1.74911E-25
2.76901E-01 1.69177E-25
2.80814E-01 1.63667E-25
2.84744E-01 1.58370E-25
2.88691E-01 1.53278E-25
2.92653E-01 1.48380E-25
2.96632E-01 1.43668E-25
3.00625E-01 1.39134E-25
3.04634E-01 1.34770E-25
3.08658E-01 1.30568E-25
3.12697E-01 1.26522E-25
3.16749E-01 1.22623E-25
3.20816E-01 1.18867E-25
3.24896E-01 1.15246E-25
3.28990E-01 1.11756E-25
3.33097E-01 1.08390E-25
3.37216E-01 1.05144E-25
3.41348E-01 1.02011E-25
3.45492E-01 9.89889E-26
3.49647E-01 9.60715E-26
3.53814E-01 9.32549E-26
3.57992E-01 9.05349E-26
3.62181E-01 8.79078E-26
3.66381E-01 8.53698E-26
3.70590E-01 8.29172E-26
3.74810E-01 8.05468E-26
3.79039E-01 7.82553E-26
3.83277E-01 7.60395E-26
3.87524E-01 7.38967E-26
3.91780E-01 7.18238E-26
3.96044E-01 6.98184E-26
4.00316E-01 6.78777E-26
4.04596E-01 6.59993E-26
4.08882E-01 6.41809E-26
4.13176E-01 6.24202E-26
4.17476E-01 6.07151E-26
4.21783E-01 5.90635E-26
4.26095E-01 5.74635E-26
4.30413E-01 5.59131E-26
4.34737E-01 5.44106E-26
4.39065E-01 5.29542E-26
4.43398E-01 5.15423E-26
4.47736E-01 5.01732E-26
4.52077E-01 4.88455E-26
4.56422E-01 4.75577E-26
4.60770E-01 4.63083E-26
4.65122E-01 4.50961E-26
4.69476E-01 4.39198E-26
4.73832E-01 4.27780E-26
4.78190E-01 4.16697E-26
4.82550E-01 4.05936E-26
4.86912E-01 3.95488E-26
4.91274E-01 3.85340E-26
4.95637E-01 3.75484E-26
5.00000E-01 3.65908E-26
5.04363E-01 3.56605E-26
5.08726E-01 3.47565E-26
5.13088E-01 3.38779E-26
5.17450E-01 3.30239E-26
5.21810E-01 3.21937E-26
5.26168E-01 3.13866E-26
5.30524E-01 3.06017E-26
5.34878E-01 2.98383E-26
5.39230E-01 2.90959E-26
5.43578E-01 2.83736E-26
5.47923E-01 2.76710E-26
5.52264E-01 2.69873E-26
5.56602E-01 2.63219E-26
5.60935E-01 2.56744E-26
5.65263E-01 2.50440E-26
5.69587E-01 2.44304E-26
5.73905E-01 2.38330E-26
5.78217E-01 2.32513E-26
5.82524E-01 2.26848E-26
5.86824E-01 2.21331E-26
5.91118E-01 2.15957E-26
5.95404E-01 2.10722E-26
5.99684E-01 2.05621E-26
6.03956E-01 2.00652E-26
6.08220E-01 1.95809E-26
6.12476E-01 1.91089E-26
6.16723E-01 1.86489E-26
6.20961E-01 1.82005E-26
6.25190E-01 1.77634E-26
6.29410E-01 1.73372E-26
6.33619E-01 1.69216E-26
6.37819E-01 1.65164E-26
6.42008E-01 1.61212E-26
6.46186E-01 1.57357E-26
6.50353E-01 1.53598E-26
6.54508E-01 1.49930E-26
6.58652E-01 1.46352E-26
6.62784E-01 1.42861E-26
6.66903E-01 1.39454E-26
6.71010E-01 1.36130E-26
6.75104E-01 1.32885E-26
6.79184E-01 1.29719E-26
6.83251E-01 1.26628E-26
6.87303E-01 1.23611E-26
6.91342E-01 1.20665E-26
6.95366E-01 1.17789E-26
6.99375E-01 1.14982E-26
7.03368E-01 1.12240E-26
7.07347E-01 1.09562E-26
7.11309E-01 1.06947E-26
7.15256E-01 1.04393E-26
7.19186E-01 1.01899E-26
7.23099E-01 9.94621E-27
7.26995E-01 9.70817E-27
7.30874E-01 9.47562E-27
7.34736E-01 9.24842E-27
7.38579E-01 9.02643E-27
7.42405E-01 8.80951E-27
7.46212E-01 8.59755E-27
7.50000E-01 8.39041E-27
7.53769E-01 8.18797E-27
7.57519E-01 7.99011E-27
7.61249E-01 7.79673E-27
7.64960E-01 7.60771E-27
7.68650E-01 7.42294E-27
7.72320E-01 7.24232E-27
7.75968E-01 7.06574E-27
7.79596E-01 6.89311E-27
7.83203E-01 6.72434E-27
7.86788E-01 6.55932E-27
7.90351E-01 6.39797E-27
7.93893E-01 6.24021E-27
7.97411E-01 6.08594E-27
8.00908E-01 5.93508E-27
8.04381E-01 5.78756E-27
8.07831E-01 5.64329E-27
8.11257E-01 5.50219E-27
8.14660E-01 5.36421E-27
8.18039E-01 5.22926E-27
8.21394E-01 5.09726E-27
8.24724E-01 4.96817E-27
8.28030E-01 4.84190E-27
8.31310E-01 4.71840E-27
8.34565E-01 4.59760E-27
8.37795E-01 4.47945E-27
8.40999E-01 4.36387E-27
8.44177E-01 4.25082E-27
8.47329E-01 4.14025E-27
8.50455E-01 4.03208E-27
8.53553E-01 3.92628E-27
8.56625E-01 3.82279E-27
8.59670E-01 3.72156E-27
8.62687E-01 3.62255E-27
8.65677E-01 3.52570E-27
8.68639E-01 3.43097E-27
8.71572E-01 3.33831E-27
8.74478E-01 3.24769E-27
8.77355E-01 3.15905E-27
8.80203E-01 3.07236E-27
8.83022E-01 2.98758E-27
8.85812E-01 2.90466E-27
8.88573E-01 2.82358E-27
8.91304E-01 2.74429E-27
8.94005E-01 2.66675E-27
8.96677E-01 2.59094E-27
8.99318E-01 2.51682E-27
9.01928E-01 2.44435E-27
9.04508E-01 2.37350E-27
9.07058E-01 2.30424E-27
9.09576E-01 2.23655E-27
9.12063E-01 2.17038E-27
9.14519E-01 2.10572E-27
9.16943E-01 2.04252E-27
9.19335E-01 1.98078E-27
9.21696E-01 1.92045E-27
9.24024E-01 1.86152E-27
9.26320E-01 1.80396E-27
9.28584E-01 1.74774E-27
9.30815E-01 1.69283E-27
9.33013E-01 1.63923E-27
9.35178E-01 1.58690E-27
9.37310E-01 1.53582E-27
9.39409E-01 1.48597E-27
9.41474E-01 1.43733E-27
9.43505E-01 1.38988E-27
9.45503E-01 1.34360E-27
9.47467E-01 1.29847E-27
9.49397E-01 1.25447E-27
9.51293E-01 1.21158E-27
9.53154E-01 1.16980E-27
9.54981E-01 1.12909E-27
9.56773E-01 1.08944E-27
9.58530E-01 1.05084E-27
9.60252E-01 1.01328E-27
9.61940E-01 9.76726E-28
9.63592E-01 9.41177E-28
9.65209E-01 9.06615E-28
9.66790E-01 8.73027E-28
9.68336E-01 8.40399E-28
9.69846E-01 8.08718E-28
9.71321E-01 7.77972E-28
9.72759E-01 7.48150E-28
9.74162E-01 7.19237E-28
9.75528E-01 6.91225E-28
9.76858E-01 6.64102E-28
9.78152E-01 6.37857E-28
9.79410E-01 6.12479E-28
9.80631E-01 5.87960E-28
9.81815E-01 5.64289E-28
9.82963E-01 5.41458E-28
9.84074E-01 5.19458E-28
9.85148E-01 4.98279E-28
9.86185E-01 4.77915E-28
9.87185E-01 4.58357E-28
9.88148E-01 4.39598E-28
9.89074E-01 4.21630E-28
9.89962E-01 4.04447E-28
9.90814E-01 3.88042E-28
9.91627E-01 3.72409E-28
9.92404E-01 3.57542E-28
9.93143E-01 3.43436E-28
9.93844E-01 3.30084E-28
9.94508E-01 3.17482E-28
9.95134E-01 3.05626E-28
9.95722E-01 2.94510E-28
9.96273E-01 2.84131E-28
9.96786E-01 2.74484E-28
9.97261E-01 2.65567E-28
9.97698E-01 2.57375E-28
9.98097E-01 2.49906E-28
9.98459E-01 2.43156E-28
9.98782E-01 2.37124E-28
9.99067E-01 2.31807E-28
9.99315E-01 2.27202E-28
9.99524E-01 2.23309E-28
9.99695E-01 2.20126E-28
9.99829E-01 2.17651E-28
9.99924E-01 2.15884E-28
9.99981E-01 2.14825E-28
1.00000E+00 2.14470E-28
