 #
 # Subroutine ELSEPA. Elastic scattering of electrons and positrons
 #                    by neutral atoms and positive ions
 #
 # Projectile: electron
 # Kinetic energy = 1.50000E+07 eV = 5.51240E+05 a.u.
 #
 # WARNING: High-energy factorization with free-atom DF screening.
 #          Absorption, polarization and exchange corrections are
 #          switched off.
 #          Phase shifts are calculated for the bare nucleus.
 #          Scattering amplitudes are not evaluated.
 #
 # Element:  O,  Z =   8,  atomic weight = 1.59994E+01 g/mol
 #
 # Nuclear model: Fermi distribution
 #                Average radius = 2.69620E-13 cm
 #                Skin thickness = 5.46000E-14 cm
 #
 # Number of electrons =  8
 #
 # Total elastic cross section = 2.74361E-19 cm**2 = 9.79759E-03 a0**2
 # 1st transport cross section = 4.97880E-25 cm**2 = 1.77796E-08 a0**2
 # 2nd transport cross section = 1.43944E-24 cm**2 = 5.14033E-08 a0**2
 #
 #
 # Differential cross section:                       MU=(1-COS(THETA))/2
 #
 #  THETA        MU          DCS          DCS        Sherman      error
 #  (deg)                 (cm**2/sr)   (a0**2/sr)    function
 #----------------------------------------------------------------------
0.00000E+00 3.62996E-13
7.61557E-13 3.62987E-13
1.18994E-12 3.62982E-13
1.71346E-12 3.62976E-13
2.33225E-12 3.62969E-13
3.04617E-12 3.62961E-13
3.85530E-12 3.62952E-13
4.75964E-12 3.62942E-13
5.75917E-12 3.62931E-13
6.85391E-12 3.62919E-13
8.04379E-12 3.62906E-13
9.32893E-12 3.62891E-13
1.07092E-11 3.62876E-13
1.21847E-11 3.62859E-13
1.37554E-11 3.62842E-13
1.54213E-11 3.62823E-13
1.71823E-11 3.62804E-13
1.90386E-11 3.62783E-13
2.09900E-11 3.62762E-13
2.30367E-11 3.62739E-13
2.51785E-11 3.62715E-13
2.74156E-11 3.62690E-13
2.97478E-11 3.62664E-13
3.21752E-11 3.62637E-13
3.46979E-11 3.62609E-13
3.73157E-11 3.62580E-13
4.00286E-11 3.62550E-13
4.28368E-11 3.62519E-13
4.57402E-11 3.62487E-13
4.87388E-11 3.62454E-13
5.18325E-11 3.62420E-13
5.50215E-11 3.62384E-13
5.83057E-11 3.62348E-13
6.16850E-11 3.62311E-13
6.51595E-11 3.62272E-13
6.87293E-11 3.62233E-13
7.23943E-11 3.62192E-13
7.61544E-11 3.62151E-13
1.18991E-10 3.61678E-13
1.71347E-10 3.61102E-13
2.33223E-10 3.60423E-13
3.04617E-10 3.59642E-13
3.85531E-10 3.58760E-13
4.75965E-10 3.57779E-13
5.75917E-10 3.56699E-13
6.85389E-10 3.55520E-13
8.04380E-10 3.54246E-13
9.32891E-10 3.52878E-13
1.07092E-09 3.51417E-13
1.21847E-09 3.49865E-13
1.37554E-09 3.48224E-13
1.54213E-09 3.46497E-13
1.71823E-09 3.44684E-13
1.90386E-09 3.42789E-13
2.09900E-09 3.40813E-13
2.30367E-09 3.38759E-13
2.51785E-09 3.36627E-13
2.74156E-09 3.34420E-13
2.97478E-09 3.32143E-13
3.21752E-09 3.29796E-13
3.46978E-09 3.27383E-13
3.73156E-09 3.24907E-13
4.00286E-09 3.22369E-13
4.28368E-09 3.19774E-13
4.57402E-09 3.17122E-13
4.87388E-09 3.14418E-13
5.18326E-09 3.11664E-13
5.50215E-09 3.08858E-13
5.83057E-09 3.06006E-13
6.16850E-09 3.03111E-13
6.51596E-09 3.00078E-13
6.87293E-09 2.96820E-13
7.23942E-09 2.93605E-13
7.61544E-09 2.90434E-13
1.18991E-08 2.58738E-13
1.71347E-08 2.26504E-13
2.33223E-08 1.95489E-13
3.04617E-08 1.66843E-13
3.85531E-08 1.41192E-13
4.75965E-08 1.18753E-13
5.75917E-08 9.94710E-14
6.85389E-08 8.30061E-14
8.04380E-08 6.92131E-14
9.32891E-08 5.77401E-14
1.07092E-07 4.82354E-14
1.21847E-07 4.03798E-14
1.37554E-07 3.38936E-14
1.54213E-07 2.85352E-14
1.71823E-07 2.41074E-14
1.90386E-07 2.04436E-14
2.09900E-07 1.74041E-14
2.30367E-07 1.48753E-14
2.51785E-07 1.27626E-14
2.74156E-07 1.09944E-14
2.97478E-07 9.51005E-15
3.21752E-07 8.25960E-15
3.46978E-07 7.20244E-15
3.73156E-07 6.30540E-15
4.00286E-07 5.54134E-15
4.28368E-07 4.88803E-15
4.57402E-07 4.32728E-15
4.87388E-07 3.84417E-15
5.18325E-07 3.42644E-15
5.50215E-07 3.06394E-15
5.83057E-07 2.74837E-15
6.16850E-07 2.47273E-15
6.51596E-07 2.23113E-15
6.87293E-07 2.01866E-15
7.23942E-07 1.83137E-15
7.61543E-07 1.66576E-15
1.18991E-06 7.25390E-16
1.71347E-06 3.70106E-16
2.33223E-06 2.09786E-16
3.04617E-06 1.27984E-16
3.85531E-06 8.24806E-17
4.75964E-06 5.54843E-17
5.75916E-06 3.86417E-17
6.85388E-06 2.76966E-17
8.04378E-06 2.03463E-17
9.32888E-06 1.52672E-17
1.07092E-05 1.16698E-17
1.21846E-05 9.06661E-18
1.37553E-05 7.14711E-18
1.54212E-05 5.70756E-18
1.71822E-05 4.61137E-18
1.90385E-05 3.76599E-18
2.09899E-05 3.10448E-18
2.30365E-05 2.58144E-18
2.51783E-05 2.16369E-18
2.74153E-05 1.82696E-18
2.97475E-05 1.55321E-18
3.21749E-05 1.32883E-18
3.46974E-05 1.14352E-18
3.73152E-05 9.89386E-19
4.00281E-05 8.60319E-19
4.28362E-05 7.51580E-19
4.57395E-05 6.59449E-19
4.87380E-05 5.80985E-19
5.18317E-05 5.13839E-19
5.50205E-05 4.56116E-19
5.83045E-05 4.06279E-19
6.16838E-05 3.63071E-19
6.51582E-05 3.25458E-19
6.87277E-05 2.92591E-19
7.23925E-05 2.63766E-19
7.61524E-05 2.38397E-19
9.21439E-05 1.62899E-19
1.09658E-04 1.15067E-19
1.28695E-04 8.35655E-20
1.49255E-04 6.21442E-20
1.71338E-04 4.71688E-20
1.94942E-04 3.64429E-20
2.20070E-04 2.86008E-20
2.46720E-04 2.27587E-20
2.74892E-04 1.83355E-20
3.04586E-04 1.49367E-20
3.35803E-04 1.22903E-20
3.68542E-04 1.02051E-20
4.02802E-04 8.54395E-21
4.38585E-04 7.20763E-21
4.75889E-04 6.12265E-21
5.14715E-04 5.23442E-21
5.55063E-04 4.50164E-21
5.96931E-04 3.89272E-21
6.40321E-04 3.38343E-21
6.85233E-04 2.95477E-21
7.31665E-04 2.59192E-21
7.79618E-04 2.28312E-21
8.29092E-04 2.01898E-21
8.80086E-04 1.79198E-21
9.32601E-04 1.59600E-21
9.86636E-04 1.42611E-21
1.04219E-03 1.27825E-21
1.09927E-03 1.14906E-21
1.15786E-03 1.03581E-21
1.21797E-03 9.36165E-22
1.27961E-03 8.48230E-22
1.34276E-03 7.70384E-22
1.40743E-03 7.01271E-22
1.47362E-03 6.39741E-22
1.54133E-03 5.84816E-22
1.61056E-03 5.35664E-22
1.68131E-03 4.91571E-22
1.75357E-03 4.51925E-22
1.82735E-03 4.16198E-22
1.90265E-03 3.83934E-22
1.97947E-03 3.54739E-22
2.05780E-03 3.28267E-22
2.13765E-03 3.04221E-22
2.21902E-03 2.82338E-22
2.30190E-03 2.62388E-22
2.38630E-03 2.44171E-22
2.47222E-03 2.27508E-22
2.55965E-03 2.12243E-22
2.64859E-03 1.98238E-22
2.73905E-03 1.85370E-22
2.83103E-03 1.73529E-22
2.92452E-03 1.62620E-22
3.01952E-03 1.52555E-22
3.11604E-03 1.43257E-22
3.21407E-03 1.34657E-22
3.31362E-03 1.26693E-22
3.41468E-03 1.19310E-22
3.51725E-03 1.12457E-22
3.62133E-03 1.06089E-22
3.72692E-03 1.00166E-22
3.83403E-03 9.46509E-23
3.94265E-03 8.95103E-23
4.05278E-03 8.47141E-23
4.16442E-03 8.02350E-23
4.27757E-03 7.60483E-23
4.39223E-03 7.21312E-23
4.50840E-03 6.84632E-23
4.62608E-03 6.50256E-23
4.74527E-03 6.18011E-23
4.86597E-03 5.87741E-23
4.98817E-03 5.59303E-23
5.11188E-03 5.32565E-23
5.23711E-03 5.07407E-23
5.36383E-03 4.83718E-23
5.49207E-03 4.61395E-23
5.62181E-03 4.40346E-23
5.75306E-03 4.20485E-23
5.88581E-03 4.01731E-23
6.02007E-03 3.84012E-23
6.15583E-03 3.67259E-23
6.29310E-03 3.51410E-23
6.43187E-03 3.36408E-23
6.57214E-03 3.22198E-23
6.71392E-03 3.08730E-23
6.85720E-03 2.95959E-23
7.00198E-03 2.83843E-23
7.14827E-03 2.72340E-23
7.29605E-03 2.61414E-23
7.44534E-03 2.51031E-23
7.59612E-03 2.41158E-23
7.97965E-03 2.18520E-23
8.37255E-03 1.98477E-23
8.77480E-03 1.80681E-23
9.18641E-03 1.64837E-23
9.60736E-03 1.50692E-23
1.00376E-02 1.38032E-23
1.04773E-02 1.26675E-23
1.09262E-02 1.16462E-23
1.13844E-02 1.07259E-23
1.18520E-02 9.89464E-24
1.23288E-02 9.14240E-24
1.28150E-02 8.46032E-24
1.33104E-02 7.84067E-24
1.38150E-02 7.27672E-24
1.43290E-02 6.76258E-24
1.48521E-02 6.29304E-24
1.53845E-02 5.86355E-24
1.59262E-02 5.47008E-24
1.64770E-02 5.10905E-24
1.70371E-02 4.77731E-24
1.76063E-02 4.47206E-24
1.81848E-02 4.19079E-24
1.87724E-02 3.93128E-24
1.93692E-02 3.69154E-24
1.99751E-02 3.46979E-24
2.05901E-02 3.26444E-24
2.12143E-02 3.07404E-24
2.18476E-02 2.89731E-24
2.24900E-02 2.73309E-24
2.31415E-02 2.58033E-24
2.38021E-02 2.43809E-24
2.44717E-02 2.30551E-24
2.51504E-02 2.18180E-24
2.58382E-02 2.06628E-24
2.65349E-02 1.95829E-24
2.72407E-02 1.85725E-24
2.79555E-02 1.76264E-24
2.86793E-02 1.67397E-24
2.94120E-02 1.59080E-24
3.01537E-02 1.51272E-24
3.09043E-02 1.43936E-24
3.16639E-02 1.37039E-24
3.24324E-02 1.30550E-24
3.32098E-02 1.24439E-24
3.39961E-02 1.18681E-24
3.47912E-02 1.13252E-24
3.55952E-02 1.08128E-24
3.64081E-02 1.03291E-24
3.72297E-02 9.87204E-25
3.80602E-02 9.43992E-25
3.88995E-02 9.03113E-25
3.97476E-02 8.64418E-25
4.06044E-02 8.27767E-25
4.14700E-02 7.93032E-25
4.23443E-02 7.60095E-25
4.32273E-02 7.28845E-25
4.41190E-02 6.99180E-25
4.50194E-02 6.71003E-25
4.59284E-02 6.44227E-25
4.68461E-02 6.18769E-25
4.87074E-02 5.71502E-25
5.06030E-02 5.28648E-25
5.25328E-02 4.89720E-25
5.44967E-02 4.54296E-25
5.64946E-02 4.22004E-25
5.85262E-02 3.92517E-25
6.05914E-02 3.65549E-25
6.26901E-02 3.40847E-25
6.48222E-02 3.18184E-25
6.69873E-02 2.97364E-25
6.91854E-02 2.78209E-25
7.14163E-02 2.60562E-25
7.36799E-02 2.44284E-25
7.59760E-02 2.29248E-25
7.83043E-02 2.15343E-25
8.06647E-02 2.02469E-25
8.30571E-02 1.90536E-25
8.54812E-02 1.79461E-25
8.79369E-02 1.69173E-25
9.04240E-02 1.59606E-25
9.29422E-02 1.50699E-25
9.54915E-02 1.42398E-25
9.80716E-02 1.34656E-25
1.00682E-01 1.27428E-25
1.03323E-01 1.20673E-25
1.05995E-01 1.14355E-25
1.08696E-01 1.08441E-25
1.11427E-01 1.02899E-25
1.14188E-01 9.77025E-26
1.16978E-01 9.28259E-26
1.19797E-01 8.82458E-26
1.22645E-01 8.39410E-26
1.25522E-01 7.98919E-26
1.28428E-01 7.60805E-26
1.31361E-01 7.24903E-26
1.34323E-01 6.91063E-26
1.37313E-01 6.59143E-26
1.40330E-01 6.29015E-26
1.43375E-01 6.00561E-26
1.46447E-01 5.73669E-26
1.49545E-01 5.48240E-26
1.52671E-01 5.24179E-26
1.55823E-01 5.01399E-26
1.59001E-01 4.79819E-26
1.62205E-01 4.59364E-26
1.65435E-01 4.39967E-26
1.68690E-01 4.21561E-26
1.71970E-01 4.04087E-26
1.75276E-01 3.87489E-26
1.78606E-01 3.71715E-26
1.81961E-01 3.56718E-26
1.85340E-01 3.42451E-26
1.88743E-01 3.28873E-26
1.92169E-01 3.15945E-26
1.95619E-01 3.03629E-26
1.99092E-01 2.91892E-26
2.02589E-01 2.80702E-26
2.06107E-01 2.70028E-26
2.09649E-01 2.59842E-26
2.13212E-01 2.50118E-26
2.16797E-01 2.40832E-26
2.20404E-01 2.31959E-26
2.24032E-01 2.23479E-26
2.27680E-01 2.15370E-26
2.31350E-01 2.07614E-26
2.35040E-01 2.00193E-26
2.38751E-01 1.93089E-26
2.42481E-01 1.86286E-26
2.46231E-01 1.79770E-26
2.50000E-01 1.73526E-26
2.53788E-01 1.67541E-26
2.57595E-01 1.61802E-26
2.61421E-01 1.56297E-26
2.65264E-01 1.51015E-26
2.69126E-01 1.45945E-26
2.73005E-01 1.41077E-26
2.76901E-01 1.36403E-26
2.80814E-01 1.31912E-26
2.84744E-01 1.27596E-26
2.88691E-01 1.23447E-26
2.92653E-01 1.19459E-26
2.96632E-01 1.15622E-26
3.00625E-01 1.11931E-26
3.04634E-01 1.08379E-26
3.08658E-01 1.04960E-26
3.12697E-01 1.01668E-26
3.16749E-01 9.84971E-27
3.20816E-01 9.54427E-27
3.24896E-01 9.24995E-27
3.28990E-01 8.96627E-27
3.33097E-01 8.69279E-27
3.37216E-01 8.42906E-27
3.41348E-01 8.17470E-27
3.45492E-01 7.92929E-27
3.49647E-01 7.69248E-27
3.53814E-01 7.46391E-27
3.57992E-01 7.24324E-27
3.62181E-01 7.03016E-27
3.66381E-01 6.82435E-27
3.70590E-01 6.62553E-27
3.74810E-01 6.43342E-27
3.79039E-01 6.24775E-27
3.83277E-01 6.06828E-27
3.87524E-01 5.89475E-27
3.91780E-01 5.72694E-27
3.96044E-01 5.56462E-27
4.00316E-01 5.40760E-27
4.04596E-01 5.25565E-27
4.08882E-01 5.10860E-27
4.13176E-01 4.96626E-27
4.17476E-01 4.82845E-27
4.21783E-01 4.69501E-27
4.26095E-01 4.56577E-27
4.30413E-01 4.44057E-27
4.34737E-01 4.31927E-27
4.39065E-01 4.20174E-27
4.43398E-01 4.08782E-27
4.47736E-01 3.97740E-27
4.52077E-01 3.87034E-27
4.56422E-01 3.76653E-27
4.60770E-01 3.66586E-27
4.65122E-01 3.56820E-27
4.69476E-01 3.47347E-27
4.73832E-01 3.38154E-27
4.78190E-01 3.29234E-27
4.82550E-01 3.20576E-27
4.86912E-01 3.12172E-27
4.91274E-01 3.04013E-27
4.95637E-01 2.96090E-27
5.00000E-01 2.88395E-27
5.04363E-01 2.80922E-27
5.08726E-01 2.73662E-27
5.13088E-01 2.66609E-27
5.17450E-01 2.59756E-27
5.21810E-01 2.53096E-27
5.26168E-01 2.46622E-27
5.30524E-01 2.40329E-27
5.34878E-01 2.34212E-27
5.39230E-01 2.28263E-27
5.43578E-01 2.22479E-27
5.47923E-01 2.16853E-27
5.52264E-01 2.11381E-27
5.56602E-01 2.06057E-27
5.60935E-01 2.00878E-27
5.65263E-01 1.95838E-27
5.69587E-01 1.90934E-27
5.73905E-01 1.86161E-27
5.78217E-01 1.81515E-27
5.82524E-01 1.76992E-27
5.86824E-01 1.72588E-27
5.91118E-01 1.68301E-27
5.95404E-01 1.64125E-27
5.99684E-01 1.60059E-27
6.03956E-01 1.56098E-27
6.08220E-01 1.52240E-27
6.12476E-01 1.48481E-27
6.16723E-01 1.44819E-27
6.20961E-01 1.41250E-27
6.25190E-01 1.37773E-27
6.29410E-01 1.34384E-27
6.33619E-01 1.31080E-27
6.37819E-01 1.27860E-27
6.42008E-01 1.24721E-27
6.46186E-01 1.21660E-27
6.50353E-01 1.18676E-27
6.54508E-01 1.15766E-27
6.58652E-01 1.12928E-27
6.62784E-01 1.10160E-27
6.66903E-01 1.07460E-27
6.71010E-01 1.04826E-27
6.75104E-01 1.02257E-27
6.79184E-01 9.97501E-28
6.83251E-01 9.73042E-28
6.87303E-01 9.49176E-28
6.91342E-01 9.25885E-28
6.95366E-01 9.03155E-28
6.99375E-01 8.80969E-28
7.03368E-01 8.59314E-28
7.07347E-01 8.38176E-28
7.11309E-01 8.17540E-28
7.15256E-01 7.97393E-28
7.19186E-01 7.77722E-28
7.23099E-01 7.58515E-28
7.26995E-01 7.39759E-28
7.30874E-01 7.21443E-28
7.34736E-01 7.03555E-28
7.38579E-01 6.86084E-28
7.42405E-01 6.69020E-28
7.46212E-01 6.52352E-28
7.50000E-01 6.36069E-28
7.53769E-01 6.20163E-28
7.57519E-01 6.04623E-28
7.61249E-01 5.89440E-28
7.64960E-01 5.74605E-28
7.68650E-01 5.60110E-28
7.72320E-01 5.45946E-28
7.75968E-01 5.32105E-28
7.79596E-01 5.18579E-28
7.83203E-01 5.05360E-28
7.86788E-01 4.92440E-28
7.90351E-01 4.79813E-28
7.93893E-01 4.67471E-28
7.97411E-01 4.55407E-28
8.00908E-01 4.43615E-28
8.04381E-01 4.32088E-28
8.07831E-01 4.20820E-28
8.11257E-01 4.09804E-28
8.14660E-01 3.99035E-28
8.18039E-01 3.88507E-28
8.21394E-01 3.78214E-28
8.24724E-01 3.68151E-28
8.28030E-01 3.58313E-28
8.31310E-01 3.48693E-28
8.34565E-01 3.39288E-28
8.37795E-01 3.30092E-28
8.40999E-01 3.21101E-28
8.44177E-01 3.12309E-28
8.47329E-01 3.03713E-28
8.50455E-01 2.95308E-28
8.53553E-01 2.87090E-28
8.56625E-01 2.79054E-28
8.59670E-01 2.71197E-28
8.62687E-01 2.63515E-28
8.65677E-01 2.56004E-28
8.68639E-01 2.48659E-28
8.71572E-01 2.41479E-28
8.74478E-01 2.34458E-28
8.77355E-01 2.27594E-28
8.80203E-01 2.20883E-28
8.83022E-01 2.14322E-28
8.85812E-01 2.07908E-28
8.88573E-01 2.01638E-28
8.91304E-01 1.95509E-28
8.94005E-01 1.89518E-28
8.96677E-01 1.83662E-28
8.99318E-01 1.77939E-28
9.01928E-01 1.72345E-28
9.04508E-01 1.66878E-28
9.07058E-01 1.61537E-28
9.09576E-01 1.56317E-28
9.12063E-01 1.51217E-28
9.14519E-01 1.46234E-28
9.16943E-01 1.41367E-28
9.19335E-01 1.36612E-28
9.21696E-01 1.31969E-28
9.24024E-01 1.27434E-28
9.26320E-01 1.23006E-28
9.28584E-01 1.18682E-28
9.30815E-01 1.14462E-28
9.33013E-01 1.10342E-28
9.35178E-01 1.06322E-28
9.37310E-01 1.02399E-28
9.39409E-01 9.85712E-29
9.41474E-01 9.48378E-29
9.43505E-01 9.11967E-29
9.45503E-01 8.76465E-29
9.47467E-01 8.41856E-29
9.49397E-01 8.08124E-29
9.51293E-01 7.75256E-29
9.53154E-01 7.43237E-29
9.54981E-01 7.12054E-29
9.56773E-01 6.81693E-29
9.58530E-01 6.52142E-29
9.60252E-01 6.23388E-29
9.61940E-01 5.95419E-29
9.63592E-01 5.68223E-29
9.65209E-01 5.41790E-29
9.66790E-01 5.16107E-29
9.68336E-01 4.91165E-29
9.69846E-01 4.66952E-29
9.71321E-01 4.43460E-29
9.72759E-01 4.20677E-29
9.74162E-01 3.98596E-29
9.75528E-01 3.77206E-29
9.76858E-01 3.56499E-29
9.78152E-01 3.36467E-29
9.79410E-01 3.17101E-29
9.80631E-01 2.98394E-29
9.81815E-01 2.80337E-29
9.82963E-01 2.62924E-29
9.84074E-01 2.46148E-29
9.85148E-01 2.30001E-29
9.86185E-01 2.14477E-29
9.87185E-01 1.99571E-29
9.88148E-01 1.85276E-29
9.89074E-01 1.71585E-29
9.89962E-01 1.58495E-29
9.90814E-01 1.45999E-29
9.91627E-01 1.34093E-29
9.92404E-01 1.22772E-29
9.93143E-01 1.12031E-29
9.93844E-01 1.01866E-29
9.94508E-01 9.22726E-30
9.95134E-01 8.32479E-30
9.95722E-01 7.47877E-30
9.96273E-01 6.68889E-30
9.96786E-01 5.95484E-30
9.97261E-01 5.27631E-30
9.97698E-01 4.65304E-30
9.98097E-01 4.08478E-30
9.98459E-01 3.57132E-30
9.98782E-01 3.11245E-30
9.99067E-01 2.70798E-30
9.99315E-01 2.35776E-30
9.99524E-01 2.06165E-30
9.99695E-01 1.81953E-30
9.99829E-01 1.63134E-30
9.99924E-01 1.49695E-30
9.99981E-01 1.41635E-30
1.00000E+00 1.38946E-30
