 #
 # Subroutine ELSEPA. Elastic scattering of electrons and positrons
 #                    by neutral atoms and positive ions
 #
 # Projectile: electron
 # Kinetic energy = 2.00000E+06 eV = 7.34987E+04 a.u.
 #
 # WARNING: High-energy factorization with free-atom DF screening.
 #          Absorption, polarization and exchange corrections are
 #          switched off.
 #          Phase shifts are calculated for the bare nucleus.
 #          Scattering amplitudes are not evaluated.
 #
 # Element:  O,  Z =   8,  atomic weight = 1.59994E+01 g/mol
 #
 # Nuclear model: Fermi distribution
 #                Average radius = 2.69620E-13 cm
 #                Skin thickness = 5.46000E-14 cm
 #
 # Number of electrons =  8
 #
 # Total elastic cross section = 2.85760E-19 cm**2 = 1.02047E-02 a0**2
 # 1st transport cross section = 1.54380E-23 cm**2 = 5.51300E-07 a0**2
 # 2nd transport cross section = 4.39242E-23 cm**2 = 1.56856E-06 a0**2
 #
 #
 # Differential cross section:                       MU=(1-COS(THETA))/2
 #
 #  THETA        MU          DCS          DCS        Sherman      error
 #  (deg)                 (cm**2/sr)   (a0**2/sr)    function
 #----------------------------------------------------------------------
0.00000E+00 9.51296E-15
7.61557E-13 9.51295E-15
1.18994E-12 9.51295E-15
1.71346E-12 9.51294E-15
2.33225E-12 9.51294E-15
3.04617E-12 9.51293E-15
3.85530E-12 9.51293E-15
4.75964E-12 9.51292E-15
5.75917E-12 9.51291E-15
6.85391E-12 9.51290E-15
8.04379E-12 9.51289E-15
9.32893E-12 9.51288E-15
1.07092E-11 9.51287E-15
1.21847E-11 9.51286E-15
1.37554E-11 9.51285E-15
1.54213E-11 9.51284E-15
1.71823E-11 9.51283E-15
1.90386E-11 9.51281E-15
2.09900E-11 9.51280E-15
2.30367E-11 9.51278E-15
2.51785E-11 9.51277E-15
2.74156E-11 9.51275E-15
2.97478E-11 9.51273E-15
3.21752E-11 9.51272E-15
3.46979E-11 9.51270E-15
3.73157E-11 9.51268E-15
4.00286E-11 9.51266E-15
4.28368E-11 9.51264E-15
4.57402E-11 9.51262E-15
4.87388E-11 9.51259E-15
5.18325E-11 9.51257E-15
5.50215E-11 9.51255E-15
5.83057E-11 9.51252E-15
6.16850E-11 9.51250E-15
6.51595E-11 9.51247E-15
6.87293E-11 9.51245E-15
7.23943E-11 9.51242E-15
7.61544E-11 9.51239E-15
1.18991E-10 9.51208E-15
1.71347E-10 9.51169E-15
2.33223E-10 9.51124E-15
3.04617E-10 9.51072E-15
3.85531E-10 9.51013E-15
4.75965E-10 9.50947E-15
5.75917E-10 9.50874E-15
6.85389E-10 9.50794E-15
8.04380E-10 9.50707E-15
9.32891E-10 9.50613E-15
1.07092E-09 9.50513E-15
1.21847E-09 9.50405E-15
1.37554E-09 9.50290E-15
1.54213E-09 9.50169E-15
1.71823E-09 9.50041E-15
1.90386E-09 9.49906E-15
2.09900E-09 9.49764E-15
2.30367E-09 9.49615E-15
2.51785E-09 9.49459E-15
2.74156E-09 9.49296E-15
2.97478E-09 9.49126E-15
3.21752E-09 9.48950E-15
3.46978E-09 9.48767E-15
3.73156E-09 9.48577E-15
4.00286E-09 9.48380E-15
4.28368E-09 9.48176E-15
4.57402E-09 9.47965E-15
4.87388E-09 9.47747E-15
5.18326E-09 9.47523E-15
5.50215E-09 9.47292E-15
5.83057E-09 9.47055E-15
6.16850E-09 9.46810E-15
6.51596E-09 9.46558E-15
6.87293E-09 9.46299E-15
7.23942E-09 9.46035E-15
7.61544E-09 9.45763E-15
1.18991E-08 9.42674E-15
1.71347E-08 9.38919E-15
2.33223E-08 9.34512E-15
3.04617E-08 9.29462E-15
3.85531E-08 9.23786E-15
4.75965E-08 9.17505E-15
5.75917E-08 9.10640E-15
6.85389E-08 9.03196E-15
8.04380E-08 8.95208E-15
9.32891E-08 8.86702E-15
1.07092E-07 8.77698E-15
1.21847E-07 8.68207E-15
1.37554E-07 8.58274E-15
1.54213E-07 8.47928E-15
1.71823E-07 8.37179E-15
1.90386E-07 8.26055E-15
2.09900E-07 8.14601E-15
2.30367E-07 8.02846E-15
2.51785E-07 7.90783E-15
2.74156E-07 7.77422E-15
2.97478E-07 7.64124E-15
3.21752E-07 7.51129E-15
3.46978E-07 7.38459E-15
3.73156E-07 7.26128E-15
4.00286E-07 7.13912E-15
4.28368E-07 6.99398E-15
4.57402E-07 6.85367E-15
4.87388E-07 6.71818E-15
5.18325E-07 6.58747E-15
5.50215E-07 6.46150E-15
5.83057E-07 6.33166E-15
6.16850E-07 6.18702E-15
6.51596E-07 6.04822E-15
6.87293E-07 5.91508E-15
7.23942E-07 5.78741E-15
7.61543E-07 5.66503E-15
1.18991E-06 4.42241E-15
1.71347E-06 3.38336E-15
2.33223E-06 2.55869E-15
3.04617E-06 1.92027E-15
3.85531E-06 1.44059E-15
4.75964E-06 1.08560E-15
5.75916E-06 8.23498E-16
6.85388E-06 6.28891E-16
8.04378E-06 4.85068E-16
9.32888E-06 3.77954E-16
1.07092E-05 2.97465E-16
1.21846E-05 2.36456E-16
1.37553E-05 1.89902E-16
1.54212E-05 1.54037E-16
1.71822E-05 1.26129E-16
1.90385E-05 1.04227E-16
2.09899E-05 8.68509E-17
2.30365E-05 7.29524E-17
2.51783E-05 6.17430E-17
2.74153E-05 5.26267E-17
2.97475E-05 4.51627E-17
3.21749E-05 3.89981E-17
3.46974E-05 3.38697E-17
3.73152E-05 2.95758E-17
4.00281E-05 2.59539E-17
4.28362E-05 2.28843E-17
4.57395E-05 2.02615E-17
4.87380E-05 1.80145E-17
5.18317E-05 1.60760E-17
5.50205E-05 1.43974E-17
5.83045E-05 1.29381E-17
6.16838E-05 1.16614E-17
6.51582E-05 1.05443E-17
6.87277E-05 9.55665E-18
7.23925E-05 8.68626E-18
7.61524E-05 7.91290E-18
9.21439E-05 5.57087E-18
1.09658E-04 4.03918E-18
1.28695E-04 3.00115E-18
1.49255E-04 2.27645E-18
1.71338E-04 1.75745E-18
1.94942E-04 1.37750E-18
2.20070E-04 1.09451E-18
2.46720E-04 8.80197E-19
2.74892E-04 7.15516E-19
3.04586E-04 5.87349E-19
3.35803E-04 4.86465E-19
3.68542E-04 4.06217E-19
4.02802E-04 3.41730E-19
4.38585E-04 2.89479E-19
4.75889E-04 2.46789E-19
5.14715E-04 2.11646E-19
5.55063E-04 1.82506E-19
5.96931E-04 1.58190E-19
6.40321E-04 1.37777E-19
6.85233E-04 1.20538E-19
7.31665E-04 1.05903E-19
7.79618E-04 9.34151E-20
8.29092E-04 8.27094E-20
8.80086E-04 7.34895E-20
9.32601E-04 6.55154E-20
9.86636E-04 5.85919E-20
1.04219E-03 5.25570E-20
1.09927E-03 4.72776E-20
1.15786E-03 4.26437E-20
1.21797E-03 3.85628E-20
1.27961E-03 3.49578E-20
1.34276E-03 3.17637E-20
1.40743E-03 2.89258E-20
1.47362E-03 2.63975E-20
1.54133E-03 2.41391E-20
1.61056E-03 2.21169E-20
1.68131E-03 2.03019E-20
1.75357E-03 1.86692E-20
1.82735E-03 1.71973E-20
1.90265E-03 1.58675E-20
1.97947E-03 1.46637E-20
2.05780E-03 1.35719E-20
2.13765E-03 1.25798E-20
2.21902E-03 1.16766E-20
2.30190E-03 1.08531E-20
2.38630E-03 1.01009E-20
2.47222E-03 9.41267E-21
2.55965E-03 8.78210E-21
2.64859E-03 8.20345E-21
2.73905E-03 7.67169E-21
2.83103E-03 7.18232E-21
2.92452E-03 6.73136E-21
3.01952E-03 6.31524E-21
3.11604E-03 5.93078E-21
3.21407E-03 5.57515E-21
3.31362E-03 5.24577E-21
3.41468E-03 4.94038E-21
3.51725E-03 4.65689E-21
3.62133E-03 4.39344E-21
3.72692E-03 4.14837E-21
3.83403E-03 3.92016E-21
3.94265E-03 3.70743E-21
4.05278E-03 3.50894E-21
4.16442E-03 3.32356E-21
4.27757E-03 3.15027E-21
4.39223E-03 2.98813E-21
4.50840E-03 2.83629E-21
4.62608E-03 2.69397E-21
4.74527E-03 2.56048E-21
4.86597E-03 2.43516E-21
4.98817E-03 2.31741E-21
5.11188E-03 2.20670E-21
5.23711E-03 2.10252E-21
5.36383E-03 2.00442E-21
5.49207E-03 1.91198E-21
5.62181E-03 1.82481E-21
5.75306E-03 1.74255E-21
5.88581E-03 1.66488E-21
6.02007E-03 1.59149E-21
6.15583E-03 1.52210E-21
6.29310E-03 1.45646E-21
6.43187E-03 1.39432E-21
6.57214E-03 1.33545E-21
6.71392E-03 1.27967E-21
6.85720E-03 1.22676E-21
7.00198E-03 1.17657E-21
7.14827E-03 1.12891E-21
7.29605E-03 1.08365E-21
7.44534E-03 1.04063E-21
7.59612E-03 9.99720E-22
7.97965E-03 9.05914E-22
8.37255E-03 8.22863E-22
8.77480E-03 7.49119E-22
9.18641E-03 6.83459E-22
9.60736E-03 6.24840E-22
1.00376E-02 5.72377E-22
1.04773E-02 5.25308E-22
1.09262E-02 4.82982E-22
1.13844E-02 4.44836E-22
1.18520E-02 4.10385E-22
1.23288E-02 3.79206E-22
1.28150E-02 3.50934E-22
1.33104E-02 3.25249E-22
1.38150E-02 3.01872E-22
1.43290E-02 2.80560E-22
1.48521E-02 2.61095E-22
1.53845E-02 2.43290E-22
1.59262E-02 2.26978E-22
1.64770E-02 2.12011E-22
1.70371E-02 1.98257E-22
1.76063E-02 1.85601E-22
1.81848E-02 1.73939E-22
1.87724E-02 1.63179E-22
1.93692E-02 1.53238E-22
1.99751E-02 1.44043E-22
2.05901E-02 1.35527E-22
2.12143E-02 1.27632E-22
2.18476E-02 1.20303E-22
2.24900E-02 1.13492E-22
2.31415E-02 1.07157E-22
2.38021E-02 1.01257E-22
2.44717E-02 9.57581E-23
2.51504E-02 9.06271E-23
2.58382E-02 8.58351E-23
2.65349E-02 8.13556E-23
2.72407E-02 7.71643E-23
2.79555E-02 7.32394E-23
2.86793E-02 6.95608E-23
2.94120E-02 6.61101E-23
3.01537E-02 6.28705E-23
3.09043E-02 5.98269E-23
3.16639E-02 5.69651E-23
3.24324E-02 5.42723E-23
3.32098E-02 5.17365E-23
3.39961E-02 4.93470E-23
3.47912E-02 4.70937E-23
3.55952E-02 4.49675E-23
3.64081E-02 4.29597E-23
3.72297E-02 4.10627E-23
3.80602E-02 3.92690E-23
3.88995E-02 3.75722E-23
3.97476E-02 3.59658E-23
4.06044E-02 3.44443E-23
4.14700E-02 3.30022E-23
4.23443E-02 3.16347E-23
4.32273E-02 3.03372E-23
4.41190E-02 2.91054E-23
4.50194E-02 2.79354E-23
4.59284E-02 2.68235E-23
4.68461E-02 2.57662E-23
4.87074E-02 2.38032E-23
5.06030E-02 2.20231E-23
5.25328E-02 2.04060E-23
5.44967E-02 1.89343E-23
5.64946E-02 1.75925E-23
5.85262E-02 1.63672E-23
6.05914E-02 1.52464E-23
6.26901E-02 1.42196E-23
6.48222E-02 1.32775E-23
6.69873E-02 1.24119E-23
6.91854E-02 1.16154E-23
7.14163E-02 1.08815E-23
7.36799E-02 1.02044E-23
7.59760E-02 9.57896E-24
7.83043E-02 9.00047E-24
8.06647E-02 8.46478E-24
8.30571E-02 7.96815E-24
8.54812E-02 7.50722E-24
8.79369E-02 7.07894E-24
9.04240E-02 6.68059E-24
9.29422E-02 6.30970E-24
9.54915E-02 5.96402E-24
9.80716E-02 5.64153E-24
1.00682E-01 5.34040E-24
1.03323E-01 5.05894E-24
1.05995E-01 4.79564E-24
1.08696E-01 4.54911E-24
1.11427E-01 4.31809E-24
1.14188E-01 4.10142E-24
1.16978E-01 3.89805E-24
1.19797E-01 3.70702E-24
1.22645E-01 3.52743E-24
1.25522E-01 3.35848E-24
1.28428E-01 3.19942E-24
1.31361E-01 3.04956E-24
1.34323E-01 2.90828E-24
1.37313E-01 2.77499E-24
1.40330E-01 2.64916E-24
1.43375E-01 2.53030E-24
1.46447E-01 2.41794E-24
1.49545E-01 2.31168E-24
1.52671E-01 2.21110E-24
1.55823E-01 2.11586E-24
1.59001E-01 2.02563E-24
1.62205E-01 1.94008E-24
1.65435E-01 1.85893E-24
1.68690E-01 1.78191E-24
1.71970E-01 1.70878E-24
1.75276E-01 1.63930E-24
1.78606E-01 1.57325E-24
1.81961E-01 1.51044E-24
1.85340E-01 1.45068E-24
1.88743E-01 1.39379E-24
1.92169E-01 1.33961E-24
1.95619E-01 1.28798E-24
1.99092E-01 1.23877E-24
2.02589E-01 1.19184E-24
2.06107E-01 1.14706E-24
2.09649E-01 1.10432E-24
2.13212E-01 1.06351E-24
2.16797E-01 1.02452E-24
2.20404E-01 9.87261E-25
2.24032E-01 9.51641E-25
2.27680E-01 9.17574E-25
2.31350E-01 8.84979E-25
2.35040E-01 8.53781E-25
2.38751E-01 8.23910E-25
2.42481E-01 7.95299E-25
2.46231E-01 7.67885E-25
2.50000E-01 7.41609E-25
2.53788E-01 7.16414E-25
2.57595E-01 6.92249E-25
2.61421E-01 6.69063E-25
2.65264E-01 6.46810E-25
2.69126E-01 6.25445E-25
2.73005E-01 6.04926E-25
2.76901E-01 5.85214E-25
2.80814E-01 5.66271E-25
2.84744E-01 5.48062E-25
2.88691E-01 5.30554E-25
2.92653E-01 5.13713E-25
2.96632E-01 4.97511E-25
3.00625E-01 4.81919E-25
3.04634E-01 4.66909E-25
3.08658E-01 4.52456E-25
3.12697E-01 4.38536E-25
3.16749E-01 4.25124E-25
3.20816E-01 4.12201E-25
3.24896E-01 3.99743E-25
3.28990E-01 3.87733E-25
3.33097E-01 3.76150E-25
3.37216E-01 3.64976E-25
3.41348E-01 3.54196E-25
3.45492E-01 3.43792E-25
3.49647E-01 3.33748E-25
3.53814E-01 3.24051E-25
3.57992E-01 3.14686E-25
3.62181E-01 3.05639E-25
3.66381E-01 2.96899E-25
3.70590E-01 2.88452E-25
3.74810E-01 2.80287E-25
3.79039E-01 2.72393E-25
3.83277E-01 2.64759E-25
3.87524E-01 2.57376E-25
3.91780E-01 2.50234E-25
3.96044E-01 2.43323E-25
4.00316E-01 2.36634E-25
4.04596E-01 2.30160E-25
4.08882E-01 2.23891E-25
4.13176E-01 2.17822E-25
4.17476E-01 2.11943E-25
4.21783E-01 2.06248E-25
4.26095E-01 2.00730E-25
4.30413E-01 1.95383E-25
4.34737E-01 1.90200E-25
4.39065E-01 1.85176E-25
4.43398E-01 1.80305E-25
4.47736E-01 1.75581E-25
4.52077E-01 1.71000E-25
4.56422E-01 1.66555E-25
4.60770E-01 1.62243E-25
4.65122E-01 1.58059E-25
4.69476E-01 1.53998E-25
4.73832E-01 1.50056E-25
4.78190E-01 1.46229E-25
4.82550E-01 1.42513E-25
4.86912E-01 1.38904E-25
4.91274E-01 1.35399E-25
4.95637E-01 1.31994E-25
5.00000E-01 1.28686E-25
5.04363E-01 1.25472E-25
5.08726E-01 1.22348E-25
5.13088E-01 1.19311E-25
5.17450E-01 1.16359E-25
5.21810E-01 1.13489E-25
5.26168E-01 1.10699E-25
5.30524E-01 1.07985E-25
5.34878E-01 1.05345E-25
5.39230E-01 1.02777E-25
5.43578E-01 1.00279E-25
5.47923E-01 9.78482E-26
5.52264E-01 9.54827E-26
5.56602E-01 9.31805E-26
5.60935E-01 9.09395E-26
5.65263E-01 8.87579E-26
5.69587E-01 8.66339E-26
5.73905E-01 8.45657E-26
5.78217E-01 8.25516E-26
5.82524E-01 8.05900E-26
5.86824E-01 7.86792E-26
5.91118E-01 7.68178E-26
5.95404E-01 7.50043E-26
5.99684E-01 7.32372E-26
6.03956E-01 7.15152E-26
6.08220E-01 6.98370E-26
6.12476E-01 6.82012E-26
6.16723E-01 6.66066E-26
6.20961E-01 6.50521E-26
6.25190E-01 6.35364E-26
6.29410E-01 6.20585E-26
6.33619E-01 6.06173E-26
6.37819E-01 5.92117E-26
6.42008E-01 5.78407E-26
6.46186E-01 5.65034E-26
6.50353E-01 5.51987E-26
6.54508E-01 5.39259E-26
6.58652E-01 5.26839E-26
6.62784E-01 5.14720E-26
6.66903E-01 5.02892E-26
6.71010E-01 4.91349E-26
6.75104E-01 4.80082E-26
6.79184E-01 4.69084E-26
6.83251E-01 4.58347E-26
6.87303E-01 4.47864E-26
6.91342E-01 4.37629E-26
6.95366E-01 4.27635E-26
6.99375E-01 4.17876E-26
7.03368E-01 4.08345E-26
7.07347E-01 3.99036E-26
7.11309E-01 3.89944E-26
7.15256E-01 3.81062E-26
7.19186E-01 3.72386E-26
7.23099E-01 3.63909E-26
7.26995E-01 3.55628E-26
7.30874E-01 3.47536E-26
7.34736E-01 3.39629E-26
7.38579E-01 3.31903E-26
7.42405E-01 3.24352E-26
7.46212E-01 3.16972E-26
7.50000E-01 3.09760E-26
7.53769E-01 3.02710E-26
7.57519E-01 2.95818E-26
7.61249E-01 2.89082E-26
7.64960E-01 2.82497E-26
7.68650E-01 2.76058E-26
7.72320E-01 2.69764E-26
7.75968E-01 2.63609E-26
7.79596E-01 2.57591E-26
7.83203E-01 2.51707E-26
7.86788E-01 2.45953E-26
7.90351E-01 2.40326E-26
7.93893E-01 2.34823E-26
7.97411E-01 2.29442E-26
8.00908E-01 2.24179E-26
8.04381E-01 2.19031E-26
8.07831E-01 2.13996E-26
8.11257E-01 2.09072E-26
8.14660E-01 2.04255E-26
8.18039E-01 1.99543E-26
8.21394E-01 1.94934E-26
8.24724E-01 1.90426E-26
8.28030E-01 1.86015E-26
8.31310E-01 1.81701E-26
8.34565E-01 1.77481E-26
8.37795E-01 1.73352E-26
8.40999E-01 1.69313E-26
8.44177E-01 1.65362E-26
8.47329E-01 1.61496E-26
8.50455E-01 1.57714E-26
8.53553E-01 1.54015E-26
8.56625E-01 1.50396E-26
8.59670E-01 1.46855E-26
8.62687E-01 1.43392E-26
8.65677E-01 1.40003E-26
8.68639E-01 1.36689E-26
8.71572E-01 1.33446E-26
8.74478E-01 1.30274E-26
8.77355E-01 1.27172E-26
8.80203E-01 1.24137E-26
8.83022E-01 1.21168E-26
8.85812E-01 1.18265E-26
8.88573E-01 1.15425E-26
8.91304E-01 1.12648E-26
8.94005E-01 1.09932E-26
8.96677E-01 1.07275E-26
8.99318E-01 1.04678E-26
9.01928E-01 1.02138E-26
9.04508E-01 9.96553E-27
9.07058E-01 9.72277E-27
9.09576E-01 9.48544E-27
9.12063E-01 9.25345E-27
9.14519E-01 9.02670E-27
9.16943E-01 8.80509E-27
9.19335E-01 8.58852E-27
9.21696E-01 8.37691E-27
9.24024E-01 8.17016E-27
9.26320E-01 7.96819E-27
9.28584E-01 7.77091E-27
9.30815E-01 7.57824E-27
9.33013E-01 7.39010E-27
9.35178E-01 7.20640E-27
9.37310E-01 7.02708E-27
9.39409E-01 6.85206E-27
9.41474E-01 6.68127E-27
9.43505E-01 6.51464E-27
9.45503E-01 6.35210E-27
9.47467E-01 6.19358E-27
9.49397E-01 6.03903E-27
9.51293E-01 5.88837E-27
9.53154E-01 5.74155E-27
9.54981E-01 5.59851E-27
9.56773E-01 5.45919E-27
9.58530E-01 5.32353E-27
9.60252E-01 5.19149E-27
9.61940E-01 5.06301E-27
9.63592E-01 4.93804E-27
9.65209E-01 4.81653E-27
9.66790E-01 4.69844E-27
9.68336E-01 4.58371E-27
9.69846E-01 4.47230E-27
9.71321E-01 4.36417E-27
9.72759E-01 4.25928E-27
9.74162E-01 4.15758E-27
9.75528E-01 4.05904E-27
9.76858E-01 3.96363E-27
9.78152E-01 3.87129E-27
9.79410E-01 3.78200E-27
9.80631E-01 3.69572E-27
9.81815E-01 3.61243E-27
9.82963E-01 3.53208E-27
9.84074E-01 3.45466E-27
9.85148E-01 3.38012E-27
9.86185E-01 3.30844E-27
9.87185E-01 3.23959E-27
9.88148E-01 3.17356E-27
9.89074E-01 3.11030E-27
9.89962E-01 3.04981E-27
9.90814E-01 2.99205E-27
9.91627E-01 2.93701E-27
9.92404E-01 2.88467E-27
9.93143E-01 2.83499E-27
9.93844E-01 2.78798E-27
9.94508E-01 2.74360E-27
9.95134E-01 2.70185E-27
9.95722E-01 2.66270E-27
9.96273E-01 2.62615E-27
9.96786E-01 2.59217E-27
9.97261E-01 2.56077E-27
9.97698E-01 2.53191E-27
9.98097E-01 2.50561E-27
9.98459E-01 2.48183E-27
9.98782E-01 2.46059E-27
9.99067E-01 2.44186E-27
9.99315E-01 2.42564E-27
9.99524E-01 2.41192E-27
9.99695E-01 2.40071E-27
9.99829E-01 2.39199E-27
9.99924E-01 2.38577E-27
9.99981E-01 2.38204E-27
1.00000E+00 2.38079E-27
