 #
 # Subroutine ELSEPA. Elastic scattering of electrons and positrons
 #                    by neutral atoms and positive ions
 #
 # Projectile: electron
 # Kinetic energy = 5.00000E+07 eV = 1.83747E+06 a.u.
 #
 # WARNING: High-energy factorization with free-atom DF screening.
 #          Absorption, polarization and exchange corrections are
 #          switched off.
 #          Phase shifts are calculated for the bare nucleus.
 #          Scattering amplitudes are not evaluated.
 #
 # Element:  O,  Z =   8,  atomic weight = 1.59994E+01 g/mol
 #
 # Nuclear model: Fermi distribution
 #                Average radius = 2.69620E-13 cm
 #                Skin thickness = 5.46000E-14 cm
 #
 # Number of electrons =  8
 #
 # Total elastic cross section = 2.73960E-19 cm**2 = 9.78330E-03 a0**2
 # 1st transport cross section = 5.34361E-26 cm**2 = 1.90824E-09 a0**2
 # 2nd transport cross section = 1.56276E-25 cm**2 = 5.58073E-09 a0**2
 #
 #
 # Differential cross section:                       MU=(1-COS(THETA))/2
 #
 #  THETA        MU          DCS          DCS        Sherman      error
 #  (deg)                 (cm**2/sr)   (a0**2/sr)    function
 #----------------------------------------------------------------------
0.00000E+00 3.84941E-12
7.61557E-13 3.84844E-12
1.18994E-12 3.84791E-12
1.71346E-12 3.84725E-12
2.33225E-12 3.84648E-12
3.04617E-12 3.84559E-12
3.85530E-12 3.84458E-12
4.75964E-12 3.84345E-12
5.75917E-12 3.84220E-12
6.85391E-12 3.84084E-12
8.04379E-12 3.83936E-12
9.32893E-12 3.83776E-12
1.07092E-11 3.83605E-12
1.21847E-11 3.83422E-12
1.37554E-11 3.83227E-12
1.54213E-11 3.83021E-12
1.71823E-11 3.82803E-12
1.90386E-11 3.82574E-12
2.09900E-11 3.82332E-12
2.30367E-11 3.82080E-12
2.51785E-11 3.81816E-12
2.74156E-11 3.81541E-12
2.97478E-11 3.81254E-12
3.21752E-11 3.80956E-12
3.46979E-11 3.80646E-12
3.73157E-11 3.80326E-12
4.00286E-11 3.79994E-12
4.28368E-11 3.79651E-12
4.57402E-11 3.79298E-12
4.87388E-11 3.78931E-12
5.18325E-11 3.78555E-12
5.50215E-11 3.78168E-12
5.83057E-11 3.77769E-12
6.16850E-11 3.77360E-12
6.51595E-11 3.76941E-12
6.87293E-11 3.76509E-12
7.23943E-11 3.76068E-12
7.61544E-11 3.75616E-12
1.18991E-10 3.70520E-12
1.71347E-10 3.64428E-12
2.33223E-10 3.57419E-12
3.04617E-10 3.49568E-12
3.85531E-10 3.40979E-12
4.75965E-10 3.31728E-12
5.75917E-10 3.21934E-12
6.85389E-10 3.11024E-12
8.04380E-10 3.00270E-12
9.32891E-10 2.90086E-12
1.07092E-09 2.78325E-12
1.21847E-09 2.67197E-12
1.37554E-09 2.56619E-12
1.54213E-09 2.44814E-12
1.71823E-09 2.33976E-12
1.90386E-09 2.23414E-12
2.09900E-09 2.12324E-12
2.30367E-09 2.02216E-12
2.51785E-09 1.92144E-12
2.74156E-09 1.82095E-12
2.97478E-09 1.72965E-12
3.21752E-09 1.63704E-12
3.46978E-09 1.54836E-12
3.73156E-09 1.46785E-12
4.00286E-09 1.38507E-12
4.28368E-09 1.30833E-12
4.57402E-09 1.23830E-12
4.87388E-09 1.16623E-12
5.18326E-09 1.10075E-12
5.50215E-09 1.03967E-12
5.83057E-09 9.78954E-13
6.16850E-09 9.23668E-13
6.51596E-09 8.71201E-13
6.87293E-09 8.20447E-13
7.23942E-09 7.74112E-13
7.61544E-09 7.29560E-13
1.18991E-08 4.06948E-13
1.71347E-08 2.33416E-13
2.33223E-08 1.39350E-13
3.04617E-08 8.68012E-14
3.85531E-08 5.64090E-14
4.75965E-08 3.81121E-14
5.75917E-08 2.66652E-14
6.85389E-08 1.92393E-14
8.04380E-08 1.42595E-14
9.32891E-08 1.08162E-14
1.07092E-07 8.37078E-15
1.21847E-07 6.59182E-15
1.37554E-07 5.27000E-15
1.54213E-07 4.26926E-15
1.71823E-07 3.49824E-15
1.90386E-07 2.89602E-15
2.09900E-07 2.41941E-15
2.30367E-07 2.03780E-15
2.51785E-07 1.72906E-15
2.74156E-07 1.47690E-15
2.97478E-07 1.26920E-15
3.21752E-07 1.09679E-15
3.46978E-07 9.52637E-16
3.73156E-07 8.31274E-16
4.00286E-07 7.28581E-16
4.28368E-07 6.41204E-16
4.57402E-07 5.66481E-16
4.87388E-07 5.02272E-16
5.18325E-07 4.46853E-16
5.50215E-07 3.98821E-16
5.83057E-07 3.57028E-16
6.16850E-07 3.20523E-16
6.51596E-07 2.88521E-16
6.87293E-07 2.60387E-16
7.23942E-07 2.35576E-16
7.61543E-07 2.13629E-16
1.18991E-06 8.95630E-17
1.71347E-06 4.36783E-17
2.33223E-06 2.37135E-17
3.04617E-06 1.39451E-17
3.85531E-06 8.72229E-18
4.75964E-06 5.72940E-18
5.75916E-06 3.91625E-18
6.85388E-06 2.76656E-18
8.04378E-06 2.00934E-18
9.32888E-06 1.49428E-18
1.07092E-05 1.13414E-18
1.21846E-05 8.76242E-19
1.37553E-05 6.87648E-19
1.54212E-05 5.47167E-19
1.71822E-05 4.40795E-19
1.90385E-05 3.59129E-19
2.09899E-05 2.95464E-19
2.30365E-05 2.45285E-19
2.51783E-05 2.05315E-19
2.74153E-05 1.73168E-19
2.97475E-05 1.47081E-19
3.21749E-05 1.25734E-19
3.46974E-05 1.08128E-19
3.73152E-05 9.35000E-20
4.00281E-05 8.12631E-20
4.28362E-05 7.09621E-20
4.57395E-05 6.22407E-20
4.87380E-05 5.48177E-20
5.18317E-05 4.84689E-20
5.50205E-05 4.30138E-20
5.83045E-05 3.83060E-20
6.16838E-05 3.42258E-20
6.51582E-05 3.06753E-20
6.87277E-05 2.75735E-20
7.23925E-05 2.48539E-20
7.61524E-05 2.24598E-20
9.21439E-05 1.53415E-20
1.09658E-04 1.08342E-20
1.28695E-04 7.86683E-21
1.49255E-04 5.84952E-21
1.71338E-04 4.43949E-21
1.94942E-04 3.42978E-21
2.20070E-04 2.69164E-21
2.46720E-04 2.14176E-21
2.74892E-04 1.72546E-21
3.04586E-04 1.40558E-21
3.35803E-04 1.15650E-21
3.68542E-04 9.60264E-22
4.02802E-04 8.03927E-22
4.38585E-04 6.78168E-22
4.75889E-04 5.76063E-22
5.14715E-04 4.92476E-22
5.55063E-04 4.23520E-22
5.96931E-04 3.66219E-22
6.40321E-04 3.18295E-22
6.85233E-04 2.77959E-22
7.31665E-04 2.43817E-22
7.79618E-04 2.14761E-22
8.29092E-04 1.89907E-22
8.80086E-04 1.68548E-22
9.32601E-04 1.50109E-22
9.86636E-04 1.34125E-22
1.04219E-03 1.20213E-22
1.09927E-03 1.08060E-22
1.15786E-03 9.74043E-23
1.21797E-03 8.80304E-23
1.27961E-03 7.97580E-23
1.34276E-03 7.24347E-23
1.40743E-03 6.59333E-23
1.47362E-03 6.01452E-23
1.54133E-03 5.49786E-23
1.61056E-03 5.03553E-23
1.68131E-03 4.62078E-23
1.75357E-03 4.24788E-23
1.82735E-03 3.91184E-23
1.90265E-03 3.60839E-23
1.97947E-03 3.33381E-23
2.05780E-03 3.08485E-23
2.13765E-03 2.85871E-23
2.21902E-03 2.65291E-23
2.30190E-03 2.46531E-23
2.38630E-03 2.29400E-23
2.47222E-03 2.13731E-23
2.55965E-03 1.99378E-23
2.64859E-03 1.86209E-23
2.73905E-03 1.74110E-23
2.83103E-03 1.62978E-23
2.92452E-03 1.52721E-23
3.01952E-03 1.43259E-23
3.11604E-03 1.34517E-23
3.21407E-03 1.26433E-23
3.31362E-03 1.18947E-23
3.41468E-03 1.12006E-23
3.51725E-03 1.05565E-23
3.62133E-03 9.95795E-24
3.72692E-03 9.40125E-24
3.83403E-03 8.88288E-24
3.94265E-03 8.39976E-24
4.05278E-03 7.94902E-24
4.16442E-03 7.52811E-24
4.27757E-03 7.13468E-24
4.39223E-03 6.76660E-24
4.50840E-03 6.42196E-24
4.62608E-03 6.09896E-24
4.74527E-03 5.79601E-24
4.86597E-03 5.51163E-24
4.98817E-03 5.24446E-24
5.11188E-03 4.99329E-24
5.23711E-03 4.75696E-24
5.36383E-03 4.53444E-24
5.49207E-03 4.32477E-24
5.62181E-03 4.12707E-24
5.75306E-03 3.94053E-24
5.88581E-03 3.76441E-24
6.02007E-03 3.59801E-24
6.15583E-03 3.44069E-24
6.29310E-03 3.29187E-24
6.43187E-03 3.15101E-24
6.57214E-03 3.01759E-24
6.71392E-03 2.89115E-24
6.85720E-03 2.77126E-24
7.00198E-03 2.65751E-24
7.14827E-03 2.54953E-24
7.29605E-03 2.44698E-24
7.44534E-03 2.34952E-24
7.59612E-03 2.25686E-24
7.97965E-03 2.04442E-24
8.37255E-03 1.85636E-24
8.77480E-03 1.68940E-24
9.18641E-03 1.54077E-24
9.60736E-03 1.40811E-24
1.00376E-02 1.28940E-24
1.04773E-02 1.18292E-24
1.09262E-02 1.08718E-24
1.13844E-02 1.00092E-24
1.18520E-02 9.23027E-25
1.23288E-02 8.52549E-25
1.28150E-02 7.88654E-25
1.33104E-02 7.30620E-25
1.38150E-02 6.77812E-25
1.43290E-02 6.29677E-25
1.48521E-02 5.85727E-25
1.53845E-02 5.45533E-25
1.59262E-02 5.08718E-25
1.64770E-02 4.74945E-25
1.70371E-02 4.43919E-25
1.76063E-02 4.15377E-25
1.81848E-02 3.89082E-25
1.87724E-02 3.64828E-25
1.93692E-02 3.42426E-25
1.99751E-02 3.21710E-25
2.05901E-02 3.02529E-25
2.12143E-02 2.84750E-25
2.18476E-02 2.68252E-25
2.24900E-02 2.52925E-25
2.31415E-02 2.38672E-25
2.38021E-02 2.25403E-25
2.44717E-02 2.13038E-25
2.51504E-02 2.01505E-25
2.58382E-02 1.90736E-25
2.65349E-02 1.80673E-25
2.72407E-02 1.71261E-25
2.79555E-02 1.62449E-25
2.86793E-02 1.54193E-25
2.94120E-02 1.46451E-25
3.01537E-02 1.39185E-25
3.09043E-02 1.32361E-25
3.16639E-02 1.25947E-25
3.24324E-02 1.19913E-25
3.32098E-02 1.14233E-25
3.39961E-02 1.08883E-25
3.47912E-02 1.03840E-25
3.55952E-02 9.90825E-26
3.64081E-02 9.45919E-26
3.72297E-02 9.03505E-26
3.80602E-02 8.63418E-26
3.88995E-02 8.25507E-26
3.97476E-02 7.89633E-26
4.06044E-02 7.55666E-26
4.14700E-02 7.23486E-26
4.23443E-02 6.92982E-26
4.32273E-02 6.64050E-26
4.41190E-02 6.36596E-26
4.50194E-02 6.10528E-26
4.59284E-02 5.85765E-26
4.68461E-02 5.62229E-26
4.87074E-02 5.18556E-26
5.06030E-02 4.78989E-26
5.25328E-02 4.43076E-26
5.44967E-02 4.10420E-26
5.64946E-02 3.80675E-26
5.85262E-02 3.53537E-26
6.05914E-02 3.28737E-26
6.26901E-02 3.06040E-26
6.48222E-02 2.85235E-26
6.69873E-02 2.66138E-26
6.91854E-02 2.48584E-26
7.14163E-02 2.32427E-26
7.36799E-02 2.17537E-26
7.59760E-02 2.03796E-26
7.83043E-02 1.91102E-26
8.06647E-02 1.79359E-26
8.30571E-02 1.68485E-26
8.54812E-02 1.58405E-26
8.79369E-02 1.49049E-26
9.04240E-02 1.40358E-26
9.29422E-02 1.32275E-26
9.54915E-02 1.24751E-26
9.80716E-02 1.17741E-26
1.00682E-01 1.11203E-26
1.03323E-01 1.05100E-26
1.05995E-01 9.93985E-27
1.08696E-01 9.40671E-27
1.11427E-01 8.90777E-27
1.14188E-01 8.44047E-27
1.16978E-01 8.00246E-27
1.19797E-01 7.59158E-27
1.22645E-01 7.20587E-27
1.25522E-01 6.84353E-27
1.28428E-01 6.50290E-27
1.31361E-01 6.18246E-27
1.34323E-01 5.88080E-27
1.37313E-01 5.59664E-27
1.40330E-01 5.32879E-27
1.43375E-01 5.07617E-27
1.46447E-01 4.83775E-27
1.49545E-01 4.61261E-27
1.52671E-01 4.39987E-27
1.55823E-01 4.19876E-27
1.59001E-01 4.00851E-27
1.62205E-01 3.82845E-27
1.65435E-01 3.65795E-27
1.68690E-01 3.49640E-27
1.71970E-01 3.34326E-27
1.75276E-01 3.19803E-27
1.78606E-01 3.06022E-27
1.81961E-01 2.92940E-27
1.85340E-01 2.80515E-27
1.88743E-01 2.68709E-27
1.92169E-01 2.57486E-27
1.95619E-01 2.46812E-27
1.99092E-01 2.36656E-27
2.02589E-01 2.26990E-27
2.06107E-01 2.17785E-27
2.09649E-01 2.09016E-27
2.13212E-01 2.00660E-27
2.16797E-01 1.92693E-27
2.20404E-01 1.85094E-27
2.24032E-01 1.77845E-27
2.27680E-01 1.70926E-27
2.31350E-01 1.64319E-27
2.35040E-01 1.58009E-27
2.38751E-01 1.51980E-27
2.42481E-01 1.46218E-27
2.46231E-01 1.40709E-27
2.50000E-01 1.35439E-27
2.53788E-01 1.30398E-27
2.57595E-01 1.25574E-27
2.61421E-01 1.20955E-27
2.65264E-01 1.16532E-27
2.69126E-01 1.12296E-27
2.73005E-01 1.08237E-27
2.76901E-01 1.04346E-27
2.80814E-01 1.00616E-27
2.84744E-01 9.70385E-28
2.88691E-01 9.36071E-28
2.92653E-01 9.03146E-28
2.96632E-01 8.71545E-28
3.00625E-01 8.41208E-28
3.04634E-01 8.12077E-28
3.08658E-01 7.84096E-28
3.12697E-01 7.57213E-28
3.16749E-01 7.31380E-28
3.20816E-01 7.06548E-28
3.24896E-01 6.82674E-28
3.28990E-01 6.59716E-28
3.33097E-01 6.37633E-28
3.37216E-01 6.16387E-28
3.41348E-01 5.95941E-28
3.45492E-01 5.76263E-28
3.49647E-01 5.57317E-28
3.53814E-01 5.39074E-28
3.57992E-01 5.21504E-28
3.62181E-01 5.04579E-28
3.66381E-01 4.88271E-28
3.70590E-01 4.72555E-28
3.74810E-01 4.57406E-28
3.79039E-01 4.42802E-28
3.83277E-01 4.28719E-28
3.87524E-01 4.15137E-28
3.91780E-01 4.02036E-28
3.96044E-01 3.89396E-28
4.00316E-01 3.77199E-28
4.04596E-01 3.65428E-28
4.08882E-01 3.54065E-28
4.13176E-01 3.43094E-28
4.17476E-01 3.32500E-28
4.21783E-01 3.22269E-28
4.26095E-01 3.12387E-28
4.30413E-01 3.02839E-28
4.34737E-01 2.93614E-28
4.39065E-01 2.84698E-28
4.43398E-01 2.76081E-28
4.47736E-01 2.67751E-28
4.52077E-01 2.59697E-28
4.56422E-01 2.51909E-28
4.60770E-01 2.44377E-28
4.65122E-01 2.37092E-28
4.69476E-01 2.30044E-28
4.73832E-01 2.23225E-28
4.78190E-01 2.16626E-28
4.82550E-01 2.10240E-28
4.86912E-01 2.04059E-28
4.91274E-01 1.98075E-28
4.95637E-01 1.92281E-28
5.00000E-01 1.86672E-28
5.04363E-01 1.81239E-28
5.08726E-01 1.75977E-28
5.13088E-01 1.70880E-28
5.17450E-01 1.65942E-28
5.21810E-01 1.61158E-28
5.26168E-01 1.56522E-28
5.30524E-01 1.52029E-28
5.34878E-01 1.47674E-28
5.39230E-01 1.43453E-28
5.43578E-01 1.39360E-28
5.47923E-01 1.35392E-28
5.52264E-01 1.31545E-28
5.56602E-01 1.27813E-28
5.60935E-01 1.24194E-28
5.65263E-01 1.20684E-28
5.69587E-01 1.17279E-28
5.73905E-01 1.13975E-28
5.78217E-01 1.10769E-28
5.82524E-01 1.07659E-28
5.86824E-01 1.04640E-28
5.91118E-01 1.01710E-28
5.95404E-01 9.88659E-29
5.99684E-01 9.61051E-29
6.03956E-01 9.34247E-29
6.08220E-01 9.08223E-29
6.12476E-01 8.82952E-29
6.16723E-01 8.58412E-29
6.20961E-01 8.34579E-29
6.25190E-01 8.11430E-29
6.29410E-01 7.88943E-29
6.33619E-01 7.67099E-29
6.37819E-01 7.45877E-29
6.42008E-01 7.25257E-29
6.46186E-01 7.05221E-29
6.50353E-01 6.85751E-29
6.54508E-01 6.66829E-29
6.58652E-01 6.48438E-29
6.62784E-01 6.30562E-29
6.66903E-01 6.13185E-29
6.71010E-01 5.96293E-29
6.75104E-01 5.79870E-29
6.79184E-01 5.63902E-29
6.83251E-01 5.48375E-29
6.87303E-01 5.33276E-29
6.91342E-01 5.18593E-29
6.95366E-01 5.04313E-29
6.99375E-01 4.90423E-29
7.03368E-01 4.76913E-29
7.07347E-01 4.63771E-29
7.11309E-01 4.50986E-29
7.15256E-01 4.38548E-29
7.19186E-01 4.26446E-29
7.23099E-01 4.14671E-29
7.26995E-01 4.03214E-29
7.30874E-01 3.92064E-29
7.34736E-01 3.81213E-29
7.38579E-01 3.70653E-29
7.42405E-01 3.60375E-29
7.46212E-01 3.50371E-29
7.50000E-01 3.40633E-29
7.53769E-01 3.31153E-29
7.57519E-01 3.21925E-29
7.61249E-01 3.12941E-29
7.64960E-01 3.04195E-29
7.68650E-01 2.95678E-29
7.72320E-01 2.87386E-29
7.75968E-01 2.79312E-29
7.79596E-01 2.71449E-29
7.83203E-01 2.63792E-29
7.86788E-01 2.56336E-29
7.90351E-01 2.49073E-29
7.93893E-01 2.42001E-29
7.97411E-01 2.35112E-29
8.00908E-01 2.28402E-29
8.04381E-01 2.21866E-29
8.07831E-01 2.15500E-29
8.11257E-01 2.09298E-29
8.14660E-01 2.03257E-29
8.18039E-01 1.97371E-29
8.21394E-01 1.91638E-29
8.24724E-01 1.86052E-29
8.28030E-01 1.80610E-29
8.31310E-01 1.75308E-29
8.34565E-01 1.70142E-29
8.37795E-01 1.65109E-29
8.40999E-01 1.60204E-29
8.44177E-01 1.55426E-29
8.47329E-01 1.50770E-29
8.50455E-01 1.46233E-29
8.53553E-01 1.41812E-29
8.56625E-01 1.37505E-29
8.59670E-01 1.33307E-29
8.62687E-01 1.29217E-29
8.65677E-01 1.25232E-29
8.68639E-01 1.21348E-29
8.71572E-01 1.17564E-29
8.74478E-01 1.13877E-29
8.77355E-01 1.10283E-29
8.80203E-01 1.06782E-29
8.83022E-01 1.03371E-29
8.85812E-01 1.00047E-29
8.88573E-01 9.68080E-30
8.91304E-01 9.36524E-30
8.94005E-01 9.05778E-30
8.96677E-01 8.75823E-30
8.99318E-01 8.46640E-30
9.01928E-01 8.18210E-30
9.04508E-01 7.90513E-30
9.07058E-01 7.63534E-30
9.09576E-01 7.37255E-30
9.12063E-01 7.11658E-30
9.14519E-01 6.86728E-30
9.16943E-01 6.62448E-30
9.19335E-01 6.38805E-30
9.21696E-01 6.15782E-30
9.24024E-01 5.93366E-30
9.26320E-01 5.71542E-30
9.28584E-01 5.50296E-30
9.30815E-01 5.29616E-30
9.33013E-01 5.09489E-30
9.35178E-01 4.89903E-30
9.37310E-01 4.70845E-30
9.39409E-01 4.52302E-30
9.41474E-01 4.34266E-30
9.43505E-01 4.16724E-30
9.45503E-01 3.99665E-30
9.47467E-01 3.83079E-30
9.49397E-01 3.66957E-30
9.51293E-01 3.51287E-30
9.53154E-01 3.36062E-30
9.54981E-01 3.21271E-30
9.56773E-01 3.06906E-30
9.58530E-01 2.92959E-30
9.60252E-01 2.79420E-30
9.61940E-01 2.66282E-30
9.63592E-01 2.53537E-30
9.65209E-01 2.41177E-30
9.66790E-01 2.29196E-30
9.68336E-01 2.17585E-30
9.69846E-01 2.06339E-30
9.71321E-01 1.95450E-30
9.72759E-01 1.84912E-30
9.74162E-01 1.74719E-30
9.75528E-01 1.64864E-30
9.76858E-01 1.55343E-30
9.78152E-01 1.46150E-30
9.79410E-01 1.37279E-30
9.80631E-01 1.28725E-30
9.81815E-01 1.20482E-30
9.82963E-01 1.12548E-30
9.84074E-01 1.04916E-30
9.85148E-01 9.75819E-31
9.86185E-01 9.05420E-31
9.87185E-01 8.37920E-31
9.88148E-01 7.73283E-31
9.89074E-01 7.11469E-31
9.89962E-01 6.52442E-31
9.90814E-01 5.96170E-31
9.91627E-01 5.42617E-31
9.92404E-01 4.91758E-31
9.93143E-01 4.43560E-31
9.93844E-01 3.97996E-31
9.94508E-01 3.55040E-31
9.95134E-01 3.14669E-31
9.95722E-01 2.76857E-31
9.96273E-01 2.41584E-31
9.96786E-01 2.08831E-31
9.97261E-01 1.78578E-31
9.97698E-01 1.50808E-31
9.98097E-01 1.25505E-31
9.98459E-01 1.02655E-31
9.98782E-01 8.22453E-32
9.99067E-01 6.42638E-32
9.99315E-01 4.87002E-32
9.99524E-01 3.55458E-32
9.99695E-01 2.47930E-32
9.99829E-01 1.64369E-32
9.99924E-01 1.04711E-32
9.99981E-01 6.89330E-33
1.00000E+00 5.70034E-33
