 #
 # Subroutine ELSEPA. Elastic scattering of electrons and positrons
 #                    by neutral atoms and positive ions
 #
 # Projectile: electron
 # Kinetic energy = 2.50000E+07 eV = 9.18733E+05 a.u.
 #
 # WARNING: High-energy factorization with free-atom DF screening.
 #          Absorption, polarization and exchange corrections are
 #          switched off.
 #          Phase shifts are calculated for the bare nucleus.
 #          Scattering amplitudes are not evaluated.
 #
 # Element:  O,  Z =   8,  atomic weight = 1.59994E+01 g/mol
 #
 # Nuclear model: Fermi distribution
 #                Average radius = 2.69620E-13 cm
 #                Skin thickness = 5.46000E-14 cm
 #
 # Number of electrons =  8
 #
 # Total elastic cross section = 2.73964E-19 cm**2 = 9.78345E-03 a0**2
 # 1st transport cross section = 1.95659E-25 cm**2 = 6.98712E-09 a0**2
 # 2nd transport cross section = 5.67847E-25 cm**2 = 2.02782E-08 a0**2
 #
 #
 # Differential cross section:                       MU=(1-COS(THETA))/2
 #
 #  THETA        MU          DCS          DCS        Sherman      error
 #  (deg)                 (cm**2/sr)   (a0**2/sr)    function
 #----------------------------------------------------------------------
0.00000E+00 9.81923E-13
7.61557E-13 9.81859E-13
1.18994E-12 9.81823E-13
1.71346E-12 9.81781E-13
2.33225E-12 9.81730E-13
3.04617E-12 9.81672E-13
3.85530E-12 9.81605E-13
4.75964E-12 9.81532E-13
5.75917E-12 9.81450E-13
6.85391E-12 9.81361E-13
8.04379E-12 9.81264E-13
9.32893E-12 9.81160E-13
1.07092E-11 9.81048E-13
1.21847E-11 9.80928E-13
1.37554E-11 9.80800E-13
1.54213E-11 9.80665E-13
1.71823E-11 9.80522E-13
1.90386E-11 9.80372E-13
2.09900E-11 9.80214E-13
2.30367E-11 9.80048E-13
2.51785E-11 9.79874E-13
2.74156E-11 9.79693E-13
2.97478E-11 9.79505E-13
3.21752E-11 9.79308E-13
3.46979E-11 9.79105E-13
3.73157E-11 9.78893E-13
4.00286E-11 9.78674E-13
4.28368E-11 9.78447E-13
4.57402E-11 9.78213E-13
4.87388E-11 9.77971E-13
5.18325E-11 9.77722E-13
5.50215E-11 9.77465E-13
5.83057E-11 9.77200E-13
6.16850E-11 9.76927E-13
6.51595E-11 9.76648E-13
6.87293E-11 9.76361E-13
7.23943E-11 9.76067E-13
7.61544E-11 9.75764E-13
1.18991E-10 9.72333E-13
1.71347E-10 9.68162E-13
2.33223E-10 9.63268E-13
3.04617E-10 9.57668E-13
3.85531E-10 9.51382E-13
4.75965E-10 9.44427E-13
5.75917E-10 9.36820E-13
6.85389E-10 9.28593E-13
8.04380E-10 9.19774E-13
9.32891E-10 9.10390E-13
1.07092E-09 9.00462E-13
1.21847E-09 8.90015E-13
1.37554E-09 8.79092E-13
1.54213E-09 8.67724E-13
1.71823E-09 8.55944E-13
1.90386E-09 8.43767E-13
2.09900E-09 8.31229E-13
2.30367E-09 8.18375E-13
2.51785E-09 8.04302E-13
2.74156E-09 7.90023E-13
2.97478E-09 7.76079E-13
3.21752E-09 7.62493E-13
3.46978E-09 7.49284E-13
3.73156E-09 7.36071E-13
4.00286E-09 7.20563E-13
4.28368E-09 7.05591E-13
4.57402E-09 6.91154E-13
4.87388E-09 6.77248E-13
5.18326E-09 6.63866E-13
5.50215E-09 6.49316E-13
5.83057E-09 6.34012E-13
6.16850E-09 6.19350E-13
6.51596E-09 6.05310E-13
6.87293E-09 5.91870E-13
7.23942E-09 5.79009E-13
7.61544E-09 5.64047E-13
1.18991E-08 4.35746E-13
1.71347E-08 3.28240E-13
2.33223E-08 2.44650E-13
3.04617E-08 1.81694E-13
3.85531E-08 1.35128E-13
4.75965E-08 1.00942E-13
5.75917E-08 7.59178E-14
6.85389E-08 5.76602E-14
8.04380E-08 4.42607E-14
9.32891E-08 3.43456E-14
1.07092E-07 2.69399E-14
1.21847E-07 2.13620E-14
1.37554E-07 1.71240E-14
1.54213E-07 1.38704E-14
1.71823E-07 1.13465E-14
1.90386E-07 9.36828E-15
2.09900E-07 7.80319E-15
2.30367E-07 6.55369E-15
2.51785E-07 5.54673E-15
2.74156E-07 4.72896E-15
2.97478E-07 4.05885E-15
3.21752E-07 3.50530E-15
3.46978E-07 3.04500E-15
3.73156E-07 2.65925E-15
4.00286E-07 2.33435E-15
4.28368E-07 2.05827E-15
4.57402E-07 1.82308E-15
4.87388E-07 1.62099E-15
5.18325E-07 1.44693E-15
5.50215E-07 1.29602E-15
5.83057E-07 1.16468E-15
6.16850E-07 1.04995E-15
6.51596E-07 9.49089E-16
6.87293E-07 8.60468E-16
7.23942E-07 7.81853E-16
7.61543E-07 7.12366E-16
1.18991E-06 3.12039E-16
1.71347E-06 1.57581E-16
2.33223E-06 8.76889E-17
3.04617E-06 5.24527E-17
3.85531E-06 3.31916E-17
4.75964E-06 2.19789E-17
5.75916E-06 1.51082E-17
6.85388E-06 1.07158E-17
8.04378E-06 7.80538E-18
9.32888E-06 5.81697E-18
1.07092E-05 4.42203E-18
1.21846E-05 3.42056E-18
1.37553E-05 2.68681E-18
1.54212E-05 2.13943E-18
1.71822E-05 1.72447E-18
1.90385E-05 1.40563E-18
2.09899E-05 1.15688E-18
2.30365E-05 9.60695E-19
2.51783E-05 8.04342E-19
2.74153E-05 6.78541E-19
2.97475E-05 5.76418E-19
3.21749E-05 4.92825E-19
3.46974E-05 4.23864E-19
3.73152E-05 3.66557E-19
4.00281E-05 3.18609E-19
4.28362E-05 2.78241E-19
4.57395E-05 2.44059E-19
4.87380E-05 2.14963E-19
5.18317E-05 1.90075E-19
5.50205E-05 1.68689E-19
5.83045E-05 1.50231E-19
6.16838E-05 1.34233E-19
6.51582E-05 1.20311E-19
6.87277E-05 1.08148E-19
7.23925E-05 9.74816E-20
7.61524E-05 8.80958E-20
9.21439E-05 6.01767E-20
1.09658E-04 4.24979E-20
1.28695E-04 3.08589E-20
1.49255E-04 2.29462E-20
1.71338E-04 1.74153E-20
1.94942E-04 1.34547E-20
2.20070E-04 1.05592E-20
2.46720E-04 8.40225E-21
2.74892E-04 6.76921E-21
3.04586E-04 5.51437E-21
3.35803E-04 4.53730E-21
3.68542E-04 3.76747E-21
4.02802E-04 3.15418E-21
4.38585E-04 2.66083E-21
4.75889E-04 2.26027E-21
5.14715E-04 1.93235E-21
5.55063E-04 1.66182E-21
5.96931E-04 1.43702E-21
6.40321E-04 1.24900E-21
6.85233E-04 1.09075E-21
7.31665E-04 9.56803E-22
7.79618E-04 8.42803E-22
8.29092E-04 7.45290E-22
8.80086E-04 6.61488E-22
9.32601E-04 5.89141E-22
9.86636E-04 5.26426E-22
1.04219E-03 4.71839E-22
1.09927E-03 4.24150E-22
1.15786E-03 3.82340E-22
1.21797E-03 3.45557E-22
1.27961E-03 3.13096E-22
1.34276E-03 2.84359E-22
1.40743E-03 2.58846E-22
1.47362E-03 2.36133E-22
1.54133E-03 2.15857E-22
1.61056E-03 1.97713E-22
1.68131E-03 1.81437E-22
1.75357E-03 1.66802E-22
1.82735E-03 1.53614E-22
1.90265E-03 1.41704E-22
1.97947E-03 1.30927E-22
2.05780E-03 1.21156E-22
2.13765E-03 1.12280E-22
2.21902E-03 1.04202E-22
2.30190E-03 9.68380E-23
2.38630E-03 9.01135E-23
2.47222E-03 8.39628E-23
2.55965E-03 7.83284E-23
2.64859E-03 7.31589E-23
2.73905E-03 6.84091E-23
2.83103E-03 6.40387E-23
2.92452E-03 6.00120E-23
3.01952E-03 5.62970E-23
3.11604E-03 5.28651E-23
3.21407E-03 4.96909E-23
3.31362E-03 4.67514E-23
3.41468E-03 4.40263E-23
3.51725E-03 4.14969E-23
3.62133E-03 3.91466E-23
3.72692E-03 3.69605E-23
3.83403E-03 3.49249E-23
3.94265E-03 3.30276E-23
4.05278E-03 3.12574E-23
4.16442E-03 2.96043E-23
4.27757E-03 2.80591E-23
4.39223E-03 2.66134E-23
4.50840E-03 2.52597E-23
4.62608E-03 2.39909E-23
4.74527E-03 2.28009E-23
4.86597E-03 2.16838E-23
4.98817E-03 2.06343E-23
5.11188E-03 1.96475E-23
5.23711E-03 1.87190E-23
5.36383E-03 1.78448E-23
5.49207E-03 1.70210E-23
5.62181E-03 1.62442E-23
5.75306E-03 1.55112E-23
5.88581E-03 1.48192E-23
6.02007E-03 1.41653E-23
6.15583E-03 1.35470E-23
6.29310E-03 1.29622E-23
6.43187E-03 1.24086E-23
6.57214E-03 1.18842E-23
6.71392E-03 1.13872E-23
6.85720E-03 1.09160E-23
7.00198E-03 1.04689E-23
7.14827E-03 1.00444E-23
7.29605E-03 9.64125E-24
7.44534E-03 9.25812E-24
7.59612E-03 8.89383E-24
7.97965E-03 8.05851E-24
8.37255E-03 7.31899E-24
8.77480E-03 6.66240E-24
9.18641E-03 6.07780E-24
9.60736E-03 5.55593E-24
1.00376E-02 5.08889E-24
1.04773E-02 4.66989E-24
1.09262E-02 4.29314E-24
1.13844E-02 3.95361E-24
1.18520E-02 3.64699E-24
1.23288E-02 3.36951E-24
1.28150E-02 3.11791E-24
1.33104E-02 2.88935E-24
1.38150E-02 2.68135E-24
1.43290E-02 2.49172E-24
1.48521E-02 2.31855E-24
1.53845E-02 2.16016E-24
1.59262E-02 2.01505E-24
1.64770E-02 1.88191E-24
1.70371E-02 1.75958E-24
1.76063E-02 1.64702E-24
1.81848E-02 1.54331E-24
1.87724E-02 1.44763E-24
1.93692E-02 1.35924E-24
1.99751E-02 1.27748E-24
2.05901E-02 1.20178E-24
2.12143E-02 1.13159E-24
2.18476E-02 1.06644E-24
2.24900E-02 1.00590E-24
2.31415E-02 9.49598E-25
2.38021E-02 8.97170E-25
2.44717E-02 8.48303E-25
2.51504E-02 8.02713E-25
2.58382E-02 7.60138E-25
2.65349E-02 7.20342E-25
2.72407E-02 6.83111E-25
2.79555E-02 6.48249E-25
2.86793E-02 6.15578E-25
2.94120E-02 5.84933E-25
3.01537E-02 5.56167E-25
3.09043E-02 5.29143E-25
3.16639E-02 5.03736E-25
3.24324E-02 4.79831E-25
3.32098E-02 4.57322E-25
3.39961E-02 4.36114E-25
3.47912E-02 4.16118E-25
3.55952E-02 3.97250E-25
3.64081E-02 3.79436E-25
3.72297E-02 3.62605E-25
3.80602E-02 3.46694E-25
3.88995E-02 3.31643E-25
3.97476E-02 3.17396E-25
4.06044E-02 3.03903E-25
4.14700E-02 2.91116E-25
4.23443E-02 2.78992E-25
4.32273E-02 2.67489E-25
4.41190E-02 2.56571E-25
4.50194E-02 2.46201E-25
4.59284E-02 2.36347E-25
4.68461E-02 2.26979E-25
4.87074E-02 2.09587E-25
5.06030E-02 1.93821E-25
5.25328E-02 1.79501E-25
5.44967E-02 1.66472E-25
5.64946E-02 1.54597E-25
5.85262E-02 1.43755E-25
6.05914E-02 1.33841E-25
6.26901E-02 1.24760E-25
6.48222E-02 1.16431E-25
6.69873E-02 1.08781E-25
6.91854E-02 1.01743E-25
7.14163E-02 9.52605E-26
7.36799E-02 8.92816E-26
7.59760E-02 8.37601E-26
7.83043E-02 7.86549E-26
8.06647E-02 7.39288E-26
8.30571E-02 6.95488E-26
8.54812E-02 6.54848E-26
8.79369E-02 6.17101E-26
9.04240E-02 5.82004E-26
9.29422E-02 5.49336E-26
9.54915E-02 5.18900E-26
9.80716E-02 4.90516E-26
1.00682E-01 4.64020E-26
1.03323E-01 4.39265E-26
1.05995E-01 4.16116E-26
1.08696E-01 3.94449E-26
1.11427E-01 3.74152E-26
1.14188E-01 3.55124E-26
1.16978E-01 3.37271E-26
1.19797E-01 3.20507E-26
1.22645E-01 3.04755E-26
1.25522E-01 2.89941E-26
1.28428E-01 2.76000E-26
1.31361E-01 2.62871E-26
1.34323E-01 2.50498E-26
1.37313E-01 2.38831E-26
1.40330E-01 2.27822E-26
1.43375E-01 2.17426E-26
1.46447E-01 2.07604E-26
1.49545E-01 1.98318E-26
1.52671E-01 1.89534E-26
1.55823E-01 1.81219E-26
1.59001E-01 1.73345E-26
1.62205E-01 1.65883E-26
1.65435E-01 1.58809E-26
1.68690E-01 1.52098E-26
1.71970E-01 1.45729E-26
1.75276E-01 1.39680E-26
1.78606E-01 1.33934E-26
1.81961E-01 1.28472E-26
1.85340E-01 1.23277E-26
1.88743E-01 1.18335E-26
1.92169E-01 1.13630E-26
1.95619E-01 1.09150E-26
1.99092E-01 1.04881E-26
2.02589E-01 1.00813E-26
2.06107E-01 9.69331E-27
2.09649E-01 9.32320E-27
2.13212E-01 8.96999E-27
2.16797E-01 8.63275E-27
2.20404E-01 8.31066E-27
2.24032E-01 8.00289E-27
2.27680E-01 7.70872E-27
2.31350E-01 7.42742E-27
2.35040E-01 7.15834E-27
2.38751E-01 6.90086E-27
2.42481E-01 6.65438E-27
2.46231E-01 6.41836E-27
2.50000E-01 6.19227E-27
2.53788E-01 5.97562E-27
2.57595E-01 5.76795E-27
2.61421E-01 5.56883E-27
2.65264E-01 5.37784E-27
2.69126E-01 5.19458E-27
2.73005E-01 5.01870E-27
2.76901E-01 4.84985E-27
2.80814E-01 4.68769E-27
2.84744E-01 4.53192E-27
2.88691E-01 4.38223E-27
2.92653E-01 4.23836E-27
2.96632E-01 4.10004E-27
3.00625E-01 3.96701E-27
3.04634E-01 3.83904E-27
3.08658E-01 3.71590E-27
3.12697E-01 3.59739E-27
3.16749E-01 3.48329E-27
3.20816E-01 3.37342E-27
3.24896E-01 3.26759E-27
3.28990E-01 3.16563E-27
3.33097E-01 3.06737E-27
3.37216E-01 2.97265E-27
3.41348E-01 2.88134E-27
3.45492E-01 2.79327E-27
3.49647E-01 2.70833E-27
3.53814E-01 2.62638E-27
3.57992E-01 2.54729E-27
3.62181E-01 2.47095E-27
3.66381E-01 2.39725E-27
3.70590E-01 2.32609E-27
3.74810E-01 2.25735E-27
3.79039E-01 2.19095E-27
3.83277E-01 2.12679E-27
3.87524E-01 2.06479E-27
3.91780E-01 2.00485E-27
3.96044E-01 1.94691E-27
4.00316E-01 1.89088E-27
4.04596E-01 1.83668E-27
4.08882E-01 1.78426E-27
4.13176E-01 1.73354E-27
4.17476E-01 1.68445E-27
4.21783E-01 1.63694E-27
4.26095E-01 1.59095E-27
4.30413E-01 1.54642E-27
4.34737E-01 1.50330E-27
4.39065E-01 1.46154E-27
4.43398E-01 1.42108E-27
4.47736E-01 1.38188E-27
4.52077E-01 1.34389E-27
4.56422E-01 1.30708E-27
4.60770E-01 1.27139E-27
4.65122E-01 1.23679E-27
4.69476E-01 1.20324E-27
4.73832E-01 1.17071E-27
4.78190E-01 1.13915E-27
4.82550E-01 1.10854E-27
4.86912E-01 1.07884E-27
4.91274E-01 1.05002E-27
4.95637E-01 1.02205E-27
5.00000E-01 9.94899E-28
5.04363E-01 9.68544E-28
5.08726E-01 9.42955E-28
5.13088E-01 9.18107E-28
5.17450E-01 8.93976E-28
5.21810E-01 8.70538E-28
5.26168E-01 8.47769E-28
5.30524E-01 8.25648E-28
5.34878E-01 8.04153E-28
5.39230E-01 7.83265E-28
5.43578E-01 7.62964E-28
5.47923E-01 7.43231E-28
5.52264E-01 7.24047E-28
5.56602E-01 7.05395E-28
5.60935E-01 6.87258E-28
5.65263E-01 6.69620E-28
5.69587E-01 6.52466E-28
5.73905E-01 6.35779E-28
5.78217E-01 6.19547E-28
5.82524E-01 6.03753E-28
5.86824E-01 5.88386E-28
5.91118E-01 5.73431E-28
5.95404E-01 5.58876E-28
5.99684E-01 5.44710E-28
6.03956E-01 5.30919E-28
6.08220E-01 5.17494E-28
6.12476E-01 5.04422E-28
6.16723E-01 4.91694E-28
6.20961E-01 4.79298E-28
6.25190E-01 4.67226E-28
6.29410E-01 4.55468E-28
6.33619E-01 4.44014E-28
6.37819E-01 4.32855E-28
6.42008E-01 4.21984E-28
6.46186E-01 4.11391E-28
6.50353E-01 4.01068E-28
6.54508E-01 3.91009E-28
6.58652E-01 3.81204E-28
6.62784E-01 3.71647E-28
6.66903E-01 3.62332E-28
6.71010E-01 3.53250E-28
6.75104E-01 3.44396E-28
6.79184E-01 3.35762E-28
6.83251E-01 3.27344E-28
6.87303E-01 3.19135E-28
6.91342E-01 3.11128E-28
6.95366E-01 3.03319E-28
6.99375E-01 2.95703E-28
7.03368E-01 2.88273E-28
7.07347E-01 2.81025E-28
7.11309E-01 2.73953E-28
7.15256E-01 2.67054E-28
7.19186E-01 2.60321E-28
7.23099E-01 2.53752E-28
7.26995E-01 2.47341E-28
7.30874E-01 2.41085E-28
7.34736E-01 2.34978E-28
7.38579E-01 2.29018E-28
7.42405E-01 2.23201E-28
7.46212E-01 2.17522E-28
7.50000E-01 2.11977E-28
7.53769E-01 2.06565E-28
7.57519E-01 2.01280E-28
7.61249E-01 1.96121E-28
7.64960E-01 1.91083E-28
7.68650E-01 1.86163E-28
7.72320E-01 1.81359E-28
7.75968E-01 1.76667E-28
7.79596E-01 1.72085E-28
7.83203E-01 1.67610E-28
7.86788E-01 1.63240E-28
7.90351E-01 1.58971E-28
7.93893E-01 1.54801E-28
7.97411E-01 1.50727E-28
8.00908E-01 1.46748E-28
8.04381E-01 1.42861E-28
8.07831E-01 1.39064E-28
8.11257E-01 1.35354E-28
8.14660E-01 1.31729E-28
8.18039E-01 1.28188E-28
8.21394E-01 1.24728E-28
8.24724E-01 1.21348E-28
8.28030E-01 1.18045E-28
8.31310E-01 1.14818E-28
8.34565E-01 1.11664E-28
8.37795E-01 1.08583E-28
8.40999E-01 1.05572E-28
8.44177E-01 1.02630E-28
8.47329E-01 9.97552E-29
8.50455E-01 9.69461E-29
8.53553E-01 9.42010E-29
8.56625E-01 9.15186E-29
8.59670E-01 8.88975E-29
8.62687E-01 8.63362E-29
8.65677E-01 8.38334E-29
8.68639E-01 8.13878E-29
8.71572E-01 7.89982E-29
8.74478E-01 7.66632E-29
8.77355E-01 7.43817E-29
8.80203E-01 7.21525E-29
8.83022E-01 6.99745E-29
8.85812E-01 6.78465E-29
8.88573E-01 6.57674E-29
8.91304E-01 6.37363E-29
8.94005E-01 6.17521E-29
8.96677E-01 5.98137E-29
8.99318E-01 5.79203E-29
9.01928E-01 5.60709E-29
9.04508E-01 5.42645E-29
9.07058E-01 5.25003E-29
9.09576E-01 5.07775E-29
9.12063E-01 4.90951E-29
9.14519E-01 4.74524E-29
9.16943E-01 4.58485E-29
9.19335E-01 4.42827E-29
9.21696E-01 4.27543E-29
9.24024E-01 4.12624E-29
9.26320E-01 3.98064E-29
9.28584E-01 3.83856E-29
9.30815E-01 3.69993E-29
9.33013E-01 3.56469E-29
9.35178E-01 3.43277E-29
9.37310E-01 3.30411E-29
9.39409E-01 3.17865E-29
9.41474E-01 3.05633E-29
9.43505E-01 2.93710E-29
9.45503E-01 2.82089E-29
9.47467E-01 2.70766E-29
9.49397E-01 2.59736E-29
9.51293E-01 2.48993E-29
9.53154E-01 2.38532E-29
9.54981E-01 2.28348E-29
9.56773E-01 2.18438E-29
9.58530E-01 2.08796E-29
9.60252E-01 1.99418E-29
9.61940E-01 1.90301E-29
9.63592E-01 1.81439E-29
9.65209E-01 1.72828E-29
9.66790E-01 1.64466E-29
9.68336E-01 1.56348E-29
9.69846E-01 1.48470E-29
9.71321E-01 1.40830E-29
9.72759E-01 1.33423E-29
9.74162E-01 1.26246E-29
9.75528E-01 1.19297E-29
9.76858E-01 1.12572E-29
9.78152E-01 1.06069E-29
9.79410E-01 9.97834E-30
9.80631E-01 9.37137E-30
9.81815E-01 8.78570E-30
9.82963E-01 8.22108E-30
9.84074E-01 7.67726E-30
9.85148E-01 7.15400E-30
9.86185E-01 6.65107E-30
9.87185E-01 6.16825E-30
9.88148E-01 5.70535E-30
9.89074E-01 5.26216E-30
9.89962E-01 4.83848E-30
9.90814E-01 4.43414E-30
9.91627E-01 4.04896E-30
9.92404E-01 3.68278E-30
9.93143E-01 3.33544E-30
9.93844E-01 3.00679E-30
9.94508E-01 2.69669E-30
9.95134E-01 2.40501E-30
9.95722E-01 2.13162E-30
9.96273E-01 1.87640E-30
9.96786E-01 1.63926E-30
9.97261E-01 1.42009E-30
9.97698E-01 1.21879E-30
9.98097E-01 1.03527E-30
9.98459E-01 8.69472E-31
9.98782E-01 7.21315E-31
9.99067E-01 5.90732E-31
9.99315E-01 4.77671E-31
9.99524E-01 3.82085E-31
9.99695E-01 3.03931E-31
9.99829E-01 2.43185E-31
9.99924E-01 1.99809E-31
9.99981E-01 1.73794E-31
1.00000E+00 1.65118E-31
