 #
 # Subroutine ELSEPA. Elastic scattering of electrons and positrons
 #                    by neutral atoms and positive ions
 #
 # Projectile: electron
 # Kinetic energy = 3.50000E+07 eV = 1.28623E+06 a.u.
 #
 # WARNING: High-energy factorization with free-atom DF screening.
 #          Absorption, polarization and exchange corrections are
 #          switched off.
 #          Phase shifts are calculated for the bare nucleus.
 #          Scattering amplitudes are not evaluated.
 #
 # Element: Mo,  Z =  42,  atomic weight = 9.59400E+01 g/mol
 #
 # Nuclear model: Fermi distribution
 #                Average radius = 4.89836E-13 cm
 #                Skin thickness = 5.46000E-14 cm
 #
 # Number of electrons = 42
 #
 # Total elastic cross section = 4.05892E-18 cm**2 = 1.44947E-01 a0**2
 # 1st transport cross section = 2.73698E-24 cm**2 = 9.77394E-08 a0**2
 # 2nd transport cross section = 7.94044E-24 cm**2 = 2.83558E-07 a0**2
 #
 #
 # Differential cross section:                       MU=(1-COS(THETA))/2
 #
 #  THETA        MU          DCS          DCS        Sherman      error
 #  (deg)                 (cm**2/sr)   (a0**2/sr)    function
 #----------------------------------------------------------------------
0.00000E+00 4.99159E-11
7.61557E-13 4.98966E-11
1.18994E-12 4.98858E-11
1.71346E-12 4.98726E-11
2.33225E-12 4.98570E-11
3.04617E-12 4.98391E-11
3.85530E-12 4.98187E-11
4.75964E-12 4.97960E-11
5.75917E-12 4.97710E-11
6.85391E-12 4.97436E-11
8.04379E-12 4.97138E-11
9.32893E-12 4.96817E-11
1.07092E-11 4.96473E-11
1.21847E-11 4.96105E-11
1.37554E-11 4.95715E-11
1.54213E-11 4.95301E-11
1.71823E-11 4.94864E-11
1.90386E-11 4.94404E-11
2.09900E-11 4.93922E-11
2.30367E-11 4.93417E-11
2.51785E-11 4.92889E-11
2.74156E-11 4.92340E-11
2.97478E-11 4.91767E-11
3.21752E-11 4.91173E-11
3.46979E-11 4.90557E-11
3.73157E-11 4.89919E-11
4.00286E-11 4.89260E-11
4.28368E-11 4.88579E-11
4.57402E-11 4.87876E-11
4.87388E-11 4.87153E-11
5.18325E-11 4.86408E-11
5.50215E-11 4.85643E-11
5.83057E-11 4.84857E-11
6.16850E-11 4.84051E-11
6.51595E-11 4.83224E-11
6.87293E-11 4.82378E-11
7.23943E-11 4.81511E-11
7.61544E-11 4.80625E-11
1.18991E-10 4.70732E-11
1.71347E-10 4.59122E-11
2.33223E-10 4.46023E-11
3.04617E-10 4.31743E-11
3.85531E-10 4.16514E-11
4.75965E-10 4.00585E-11
5.75917E-10 3.84244E-11
6.85389E-10 3.67655E-11
8.04380E-10 3.51040E-11
9.32891E-10 3.34607E-11
1.07092E-09 3.18411E-11
1.21847E-09 3.02634E-11
1.37554E-09 2.87386E-11
1.54213E-09 2.72625E-11
1.71823E-09 2.58504E-11
1.90386E-09 2.45036E-11
2.09900E-09 2.32162E-11
2.30367E-09 2.19973E-11
2.51785E-09 2.08429E-11
2.74156E-09 1.97480E-11
2.97478E-09 1.87173E-11
3.21752E-09 1.77437E-11
3.46978E-09 1.68245E-11
3.73156E-09 1.59616E-11
4.00286E-09 1.51462E-11
4.28368E-09 1.43784E-11
4.57402E-09 1.36583E-11
4.87388E-09 1.29762E-11
5.18326E-09 1.23351E-11
5.50215E-09 1.17335E-11
5.83057E-09 1.11617E-11
6.16850E-09 1.06249E-11
6.51596E-09 1.01196E-11
6.87293E-09 9.63948E-12
7.23942E-09 9.18818E-12
7.61544E-09 8.76179E-12
1.18991E-08 5.55930E-12
1.71347E-08 3.64719E-12
2.33223E-08 2.43431E-12
3.04617E-08 1.70401E-12
3.85531E-08 1.21746E-12
4.75965E-08 8.93183E-13
5.75917E-08 6.74160E-13
6.85389E-08 5.19093E-13
8.04380E-08 4.08192E-13
9.32891E-08 3.27269E-13
1.07092E-07 2.65629E-13
1.21847E-07 2.18501E-13
1.37554E-07 1.81926E-13
1.54213E-07 1.52254E-13
1.71823E-07 1.28580E-13
1.90386E-07 1.09339E-13
2.09900E-07 9.32748E-14
2.30367E-07 8.00782E-14
2.51785E-07 6.90421E-14
2.74156E-07 5.97120E-14
2.97478E-07 5.18991E-14
3.21752E-07 4.52524E-14
3.46978E-07 3.95908E-14
3.73156E-07 3.47819E-14
4.00286E-07 3.06440E-14
4.28368E-07 2.70946E-14
4.57402E-07 2.40439E-14
4.87388E-07 2.13893E-14
5.18325E-07 1.90920E-14
5.50215E-07 1.70967E-14
5.83057E-07 1.53506E-14
6.16850E-07 1.38254E-14
6.51596E-07 1.24871E-14
6.87293E-07 1.13067E-14
7.23942E-07 1.02652E-14
7.61543E-07 9.34223E-15
1.18991E-06 4.07138E-15
1.71347E-06 2.06365E-15
2.33223E-06 1.15463E-15
3.04617E-06 6.94615E-16
3.85531E-06 4.41292E-16
4.75964E-06 2.93249E-16
5.75916E-06 2.02182E-16
6.85388E-06 1.43817E-16
8.04378E-06 1.05067E-16
9.32888E-06 7.85295E-17
1.07092E-05 5.98764E-17
1.21846E-05 4.64544E-17
1.37553E-05 3.65958E-17
1.54212E-05 2.92238E-17
1.71822E-05 2.36203E-17
1.90385E-05 1.92962E-17
2.09899E-05 1.59256E-17
2.30365E-05 1.32595E-17
2.51783E-05 1.11280E-17
2.74153E-05 9.40739E-18
2.97475E-05 8.00639E-18
3.21749E-05 6.85683E-18
3.46974E-05 5.90655E-18
3.73152E-05 5.11567E-18
4.00281E-05 4.45309E-18
4.28362E-05 3.89445E-18
4.57395E-05 3.42072E-18
4.87380E-05 3.01677E-18
5.18317E-05 2.67061E-18
5.50205E-05 2.37262E-18
5.83045E-05 2.11500E-18
6.16838E-05 1.89141E-18
6.51582E-05 1.69662E-18
6.87277E-05 1.52629E-18
7.23925E-05 1.37684E-18
7.61524E-05 1.24538E-18
9.21439E-05 8.52950E-19
1.09658E-04 6.03574E-19
1.28695E-04 4.39056E-19
1.49255E-04 3.26947E-19
1.71338E-04 2.48462E-19
1.94942E-04 1.92178E-19
2.20070E-04 1.50975E-19
2.46720E-04 1.20252E-19
2.74892E-04 9.69646E-20
3.04586E-04 7.90568E-20
3.35803E-04 6.51013E-20
3.68542E-04 5.40969E-20
4.02802E-04 4.53248E-20
4.38585E-04 3.82627E-20
4.75889E-04 3.25258E-20
5.14715E-04 2.78262E-20
5.55063E-04 2.39468E-20
5.96931E-04 2.07214E-20
6.40321E-04 1.80221E-20
6.85233E-04 1.57491E-20
7.31665E-04 1.38240E-20
7.79618E-04 1.21848E-20
8.29092E-04 1.07819E-20
8.80086E-04 9.57569E-21
9.32601E-04 8.53386E-21
9.86636E-04 7.63023E-21
1.04219E-03 6.84337E-21
1.09927E-03 6.15559E-21
1.15786E-03 5.55229E-21
1.21797E-03 5.02130E-21
1.27961E-03 4.55245E-21
1.34276E-03 4.13721E-21
1.40743E-03 3.76837E-21
1.47362E-03 3.43985E-21
1.54133E-03 3.14645E-21
1.61056E-03 2.88376E-21
1.68131E-03 2.64801E-21
1.75357E-03 2.43593E-21
1.82735E-03 2.24473E-21
1.90265E-03 2.07198E-21
1.97947E-03 1.91559E-21
2.05780E-03 1.77372E-21
2.13765E-03 1.64479E-21
2.21902E-03 1.52741E-21
2.30190E-03 1.42034E-21
2.38630E-03 1.32253E-21
2.47222E-03 1.23302E-21
2.55965E-03 1.15098E-21
2.64859E-03 1.07568E-21
2.73905E-03 1.00646E-21
2.83103E-03 9.42741E-22
2.92452E-03 8.84003E-22
3.01952E-03 8.29788E-22
3.11604E-03 7.79681E-22
3.21407E-03 7.33314E-22
3.31362E-03 6.90355E-22
3.41468E-03 6.50510E-22
3.51725E-03 6.13511E-22
3.62133E-03 5.79115E-22
3.72692E-03 5.47106E-22
3.83403E-03 5.17286E-22
3.94265E-03 4.89480E-22
4.05278E-03 4.63525E-22
4.16442E-03 4.39276E-22
4.27757E-03 4.16598E-22
4.39223E-03 3.95370E-22
4.50840E-03 3.75484E-22
4.62608E-03 3.56838E-22
4.74527E-03 3.39340E-22
4.86597E-03 3.22906E-22
4.98817E-03 3.07460E-22
5.11188E-03 2.92930E-22
5.23711E-03 2.79253E-22
5.36383E-03 2.66368E-22
5.49207E-03 2.54221E-22
5.62181E-03 2.42761E-22
5.75306E-03 2.31944E-22
5.88581E-03 2.21725E-22
6.02007E-03 2.12065E-22
6.15583E-03 2.02928E-22
6.29310E-03 1.94279E-22
6.43187E-03 1.86089E-22
6.57214E-03 1.78329E-22
6.71392E-03 1.70970E-22
6.85720E-03 1.63989E-22
7.00198E-03 1.57362E-22
7.14827E-03 1.51068E-22
7.29605E-03 1.45087E-22
7.44534E-03 1.39401E-22
7.59612E-03 1.33991E-22
7.97965E-03 1.21578E-22
8.37255E-03 1.10575E-22
8.77480E-03 1.00795E-22
9.18641E-03 9.20778E-23
9.60736E-03 8.42863E-23
1.00376E-02 7.73057E-23
1.04773E-02 7.10358E-23
1.09262E-02 6.53917E-23
1.13844E-02 6.02996E-23
1.18520E-02 5.56955E-23
1.23288E-02 5.15245E-23
1.28150E-02 4.77383E-23
1.33104E-02 4.42949E-23
1.38150E-02 4.11575E-23
1.43290E-02 3.82941E-23
1.48521E-02 3.56764E-23
1.53845E-02 3.32794E-23
1.59262E-02 3.10810E-23
1.64770E-02 2.90618E-23
1.70371E-02 2.72045E-23
1.76063E-02 2.54936E-23
1.81848E-02 2.39156E-23
1.87724E-02 2.24581E-23
1.93692E-02 2.11103E-23
1.99751E-02 1.98624E-23
2.05901E-02 1.87055E-23
2.12143E-02 1.76318E-23
2.18476E-02 1.66342E-23
2.24900E-02 1.57063E-23
2.31415E-02 1.48423E-23
2.38021E-02 1.40370E-23
2.44717E-02 1.32857E-23
2.51504E-02 1.25840E-23
2.58382E-02 1.19280E-23
2.65349E-02 1.13143E-23
2.72407E-02 1.07396E-23
2.79555E-02 1.02008E-23
2.86793E-02 9.69549E-24
2.94120E-02 9.22103E-24
3.01537E-02 8.77522E-24
3.09043E-02 8.35600E-24
3.16639E-02 7.96149E-24
3.24324E-02 7.58995E-24
3.32098E-02 7.23980E-24
3.39961E-02 6.90957E-24
3.47912E-02 6.59791E-24
3.55952E-02 6.30358E-24
3.64081E-02 6.02543E-24
3.72297E-02 5.76241E-24
3.80602E-02 5.51353E-24
3.88995E-02 5.27789E-24
3.97476E-02 5.05466E-24
4.06044E-02 4.84305E-24
4.14700E-02 4.64234E-24
4.23443E-02 4.45187E-24
4.32273E-02 4.27102E-24
4.41190E-02 4.09920E-24
4.50194E-02 3.93588E-24
4.59284E-02 3.78056E-24
4.68461E-02 3.63278E-24
4.87074E-02 3.35810E-24
5.06030E-02 3.10869E-24
5.25328E-02 2.88183E-24
5.44967E-02 2.67510E-24
5.64946E-02 2.48639E-24
5.85262E-02 2.31386E-24
6.05914E-02 2.15586E-24
6.26901E-02 2.01096E-24
6.48222E-02 1.87787E-24
6.69873E-02 1.75546E-24
6.91854E-02 1.64271E-24
7.14163E-02 1.53873E-24
7.36799E-02 1.44271E-24
7.59760E-02 1.35394E-24
7.83043E-02 1.27176E-24
8.06647E-02 1.19561E-24
8.30571E-02 1.12495E-24
8.54812E-02 1.05933E-24
8.79369E-02 9.98321E-25
9.04240E-02 9.41538E-25
9.29422E-02 8.88638E-25
9.54915E-02 8.39309E-25
9.80716E-02 7.93267E-25
1.00682E-01 7.50254E-25
1.03323E-01 7.10035E-25
1.05995E-01 6.72398E-25
1.08696E-01 6.37146E-25
1.11427E-01 6.04104E-25
1.14188E-01 5.73106E-25
1.16978E-01 5.44006E-25
1.19797E-01 5.16667E-25
1.22645E-01 4.90963E-25
1.25522E-01 4.66780E-25
1.28428E-01 4.44012E-25
1.31361E-01 4.22562E-25
1.34323E-01 4.02341E-25
1.37313E-01 3.83266E-25
1.40330E-01 3.65261E-25
1.43375E-01 3.48256E-25
1.46447E-01 3.32186E-25
1.49545E-01 3.16991E-25
1.52671E-01 3.02615E-25
1.55823E-01 2.89006E-25
1.59001E-01 2.76117E-25
1.62205E-01 2.63903E-25
1.65435E-01 2.52323E-25
1.68690E-01 2.41339E-25
1.71970E-01 2.30915E-25
1.75276E-01 2.21017E-25
1.78606E-01 2.11615E-25
1.81961E-01 2.02680E-25
1.85340E-01 1.94184E-25
1.88743E-01 1.86104E-25
1.92169E-01 1.78414E-25
1.95619E-01 1.71094E-25
1.99092E-01 1.64123E-25
2.02589E-01 1.57480E-25
2.06107E-01 1.51150E-25
2.09649E-01 1.45113E-25
2.13212E-01 1.39355E-25
2.16797E-01 1.33861E-25
2.20404E-01 1.28617E-25
2.24032E-01 1.23609E-25
2.27680E-01 1.18826E-25
2.31350E-01 1.14255E-25
2.35040E-01 1.09887E-25
2.38751E-01 1.05709E-25
2.42481E-01 1.01714E-25
2.46231E-01 9.78915E-26
2.50000E-01 9.42332E-26
2.53788E-01 9.07309E-26
2.57595E-01 8.73771E-26
2.61421E-01 8.41645E-26
2.65264E-01 8.10864E-26
2.69126E-01 7.81361E-26
2.73005E-01 7.53078E-26
2.76901E-01 7.25955E-26
2.80814E-01 6.99940E-26
2.84744E-01 6.74979E-26
2.88691E-01 6.51024E-26
2.92653E-01 6.28029E-26
2.96632E-01 6.05951E-26
3.00625E-01 5.84746E-26
3.04634E-01 5.64377E-26
3.08658E-01 5.44806E-26
3.12697E-01 5.25996E-26
3.16749E-01 5.07915E-26
3.20816E-01 4.90531E-26
3.24896E-01 4.73812E-26
3.28990E-01 4.57731E-26
3.33097E-01 4.42258E-26
3.37216E-01 4.27370E-26
3.41348E-01 4.13040E-26
3.45492E-01 3.99245E-26
3.49647E-01 3.85962E-26
3.53814E-01 3.73170E-26
3.57992E-01 3.60848E-26
3.62181E-01 3.48977E-26
3.66381E-01 3.37538E-26
3.70590E-01 3.26515E-26
3.74810E-01 3.15888E-26
3.79039E-01 3.05644E-26
3.83277E-01 2.95765E-26
3.87524E-01 2.86238E-26
3.91780E-01 2.77049E-26
3.96044E-01 2.68184E-26
4.00316E-01 2.59630E-26
4.04596E-01 2.51375E-26
4.08882E-01 2.43407E-26
4.13176E-01 2.35716E-26
4.17476E-01 2.28290E-26
4.21783E-01 2.21120E-26
4.26095E-01 2.14195E-26
4.30413E-01 2.07506E-26
4.34737E-01 2.01044E-26
4.39065E-01 1.94801E-26
4.43398E-01 1.88768E-26
4.47736E-01 1.82938E-26
4.52077E-01 1.77303E-26
4.56422E-01 1.71856E-26
4.60770E-01 1.66589E-26
4.65122E-01 1.61497E-26
4.69476E-01 1.56572E-26
4.73832E-01 1.51809E-26
4.78190E-01 1.47202E-26
4.82550E-01 1.42745E-26
4.86912E-01 1.38433E-26
4.91274E-01 1.34261E-26
4.95637E-01 1.30223E-26
5.00000E-01 1.26315E-26
5.04363E-01 1.22532E-26
5.08726E-01 1.18870E-26
5.13088E-01 1.15324E-26
5.17450E-01 1.11892E-26
5.21810E-01 1.08567E-26
5.26168E-01 1.05348E-26
5.30524E-01 1.02229E-26
5.34878E-01 9.92088E-27
5.39230E-01 9.62826E-27
5.43578E-01 9.34475E-27
5.47923E-01 9.07005E-27
5.52264E-01 8.80385E-27
5.56602E-01 8.54587E-27
5.60935E-01 8.29583E-27
5.65263E-01 8.05346E-27
5.69587E-01 7.81851E-27
5.73905E-01 7.59074E-27
5.78217E-01 7.36989E-27
5.82524E-01 7.15575E-27
5.86824E-01 6.94809E-27
5.91118E-01 6.74670E-27
5.95404E-01 6.55138E-27
5.99684E-01 6.36191E-27
6.03956E-01 6.17813E-27
6.08220E-01 5.99983E-27
6.12476E-01 5.82685E-27
6.16723E-01 5.65901E-27
6.20961E-01 5.49614E-27
6.25190E-01 5.33809E-27
6.29410E-01 5.18471E-27
6.33619E-01 5.03584E-27
6.37819E-01 4.89134E-27
6.42008E-01 4.75107E-27
6.46186E-01 4.61490E-27
6.50353E-01 4.48271E-27
6.54508E-01 4.35436E-27
6.58652E-01 4.22973E-27
6.62784E-01 4.10872E-27
6.66903E-01 3.99120E-27
6.71010E-01 3.87707E-27
6.75104E-01 3.76622E-27
6.79184E-01 3.65856E-27
6.83251E-01 3.55398E-27
6.87303E-01 3.45239E-27
6.91342E-01 3.35370E-27
6.95366E-01 3.25782E-27
6.99375E-01 3.16467E-27
7.03368E-01 3.07416E-27
7.07347E-01 2.98621E-27
7.11309E-01 2.90074E-27
7.15256E-01 2.81769E-27
7.19186E-01 2.73697E-27
7.23099E-01 2.65852E-27
7.26995E-01 2.58227E-27
7.30874E-01 2.50815E-27
7.34736E-01 2.43611E-27
7.38579E-01 2.36608E-27
7.42405E-01 2.29799E-27
7.46212E-01 2.23180E-27
7.50000E-01 2.16745E-27
7.53769E-01 2.10488E-27
7.57519E-01 2.04404E-27
7.61249E-01 1.98488E-27
7.64960E-01 1.92736E-27
7.68650E-01 1.87141E-27
7.72320E-01 1.81701E-27
7.75968E-01 1.76410E-27
7.79596E-01 1.71264E-27
7.83203E-01 1.66259E-27
7.86788E-01 1.61391E-27
7.90351E-01 1.56655E-27
7.93893E-01 1.52049E-27
7.97411E-01 1.47569E-27
8.00908E-01 1.43210E-27
8.04381E-01 1.38970E-27
8.07831E-01 1.34845E-27
8.11257E-01 1.30831E-27
8.14660E-01 1.26927E-27
8.18039E-01 1.23128E-27
8.21394E-01 1.19432E-27
8.24724E-01 1.15835E-27
8.28030E-01 1.12336E-27
8.31310E-01 1.08931E-27
8.34565E-01 1.05618E-27
8.37795E-01 1.02393E-27
8.40999E-01 9.92562E-28
8.44177E-01 9.62032E-28
8.47329E-01 9.32324E-28
8.50455E-01 9.03413E-28
8.53553E-01 8.75278E-28
8.56625E-01 8.47899E-28
8.59670E-01 8.21254E-28
8.62687E-01 7.95325E-28
8.65677E-01 7.70090E-28
8.68639E-01 7.45533E-28
8.71572E-01 7.21635E-28
8.74478E-01 6.98377E-28
8.77355E-01 6.75744E-28
8.80203E-01 6.53718E-28
8.83022E-01 6.32284E-28
8.85812E-01 6.11425E-28
8.88573E-01 5.91127E-28
8.91304E-01 5.71375E-28
8.94005E-01 5.52155E-28
8.96677E-01 5.33453E-28
8.99318E-01 5.15255E-28
9.01928E-01 4.97549E-28
9.04508E-01 4.80321E-28
9.07058E-01 4.63560E-28
9.09576E-01 4.47254E-28
9.12063E-01 4.31391E-28
9.14519E-01 4.15960E-28
9.16943E-01 4.00949E-28
9.19335E-01 3.86350E-28
9.21696E-01 3.72150E-28
9.24024E-01 3.58341E-28
9.26320E-01 3.44913E-28
9.28584E-01 3.31856E-28
9.30815E-01 3.19162E-28
9.33013E-01 3.06821E-28
9.35178E-01 2.94825E-28
9.37310E-01 2.83165E-28
9.39409E-01 2.71835E-28
9.41474E-01 2.60825E-28
9.43505E-01 2.50129E-28
9.45503E-01 2.39739E-28
9.47467E-01 2.29648E-28
9.49397E-01 2.19849E-28
9.51293E-01 2.10336E-28
9.53154E-01 2.01102E-28
9.54981E-01 1.92140E-28
9.56773E-01 1.83445E-28
9.58530E-01 1.75012E-28
9.60252E-01 1.66833E-28
9.61940E-01 1.58905E-28
9.63592E-01 1.51221E-28
9.65209E-01 1.43776E-28
9.66790E-01 1.36565E-28
9.68336E-01 1.29584E-28
9.69846E-01 1.22828E-28
9.71321E-01 1.16293E-28
9.72759E-01 1.09974E-28
9.74162E-01 1.03866E-28
9.75528E-01 9.79666E-29
9.76858E-01 9.22712E-29
9.78152E-01 8.67759E-29
9.79410E-01 8.14774E-29
9.80631E-01 7.63720E-29
9.81815E-01 7.14564E-29
9.82963E-01 6.67275E-29
9.84074E-01 6.21821E-29
9.85148E-01 5.78172E-29
9.86185E-01 5.36301E-29
9.87185E-01 4.96179E-29
9.88148E-01 4.57781E-29
9.89074E-01 4.21082E-29
9.89962E-01 3.86058E-29
9.90814E-01 3.52686E-29
9.91627E-01 3.20945E-29
9.92404E-01 2.90813E-29
9.93143E-01 2.62273E-29
9.93844E-01 2.35304E-29
9.94508E-01 2.09890E-29
9.95134E-01 1.86014E-29
9.95722E-01 1.63662E-29
9.96273E-01 1.42818E-29
9.96786E-01 1.23469E-29
9.97261E-01 1.05603E-29
9.97698E-01 8.92074E-30
9.98097E-01 7.42730E-30
9.98459E-01 6.07896E-30
9.98782E-01 4.87487E-30
9.99067E-01 3.81424E-30
9.99315E-01 2.89640E-30
9.99524E-01 2.12076E-30
9.99695E-01 1.48683E-30
9.99829E-01 9.94185E-31
9.99924E-01 6.42523E-31
9.99981E-01 4.31616E-31
1.00000E+00 3.61329E-31
