 #
 # Subroutine ELSEPA. Elastic scattering of electrons and positrons
 #                    by neutral atoms and positive ions
 #
 # Projectile: electron
 # Kinetic energy = 1.00000E+06 eV = 3.67493E+04 a.u.
 #
 # Element: Mo,  Z =  42,  atomic weight = 9.59400E+01 g/mol
 #
 # Nuclear model: Fermi distribution
 #                Average radius = 4.89836E-13 cm
 #                Skin thickness = 5.46000E-14 cm
 #
 # Number of electrons = 42
 #
 # Electron density: Read from file Data/z_042.d
 #                   Number of data points =  787
 #                   Volume integral = 4.20000E+01
 #
 # Furness-McCarthy exchange potential
 #
 # LDA absorption potential (only electron-hole excitations):
 #                           Delta = 1.34000E+00 eV
 #                            Aabs = 2.00000E+00
 #
 # Total elastic cross section = 4.57363E-18 cm**2 = 1.63327E-01 a0**2
 # 1st transport cross section = 1.20002E-21 cm**2 = 4.28537E-05 a0**2
 # 2nd transport cross section = 3.28259E-21 cm**2 = 1.17223E-04 a0**2
 #
 #    Absorption cross section = 6.46964E-19 cm**2 = 2.31035E-02 a0**2
 #   Grand total cross section = 5.22519E-18 cm**2 = 1.86595E-01 a0**2
 #
 #
 # Differential cross section:                       MU=(1-COS(THETA))/2
 #
 #  THETA        MU          DCS          DCS        Sherman      error
 #  (deg)                 (cm**2/sr)   (a0**2/sr)    function
 #----------------------------------------------------------------------
0.00000E+00 9.02582E-14
7.61557E-13 9.02582E-14
1.18994E-12 9.02581E-14
1.71346E-12 9.02581E-14
2.33225E-12 9.02580E-14
3.04617E-12 9.02580E-14
3.85530E-12 9.02579E-14
4.75964E-12 9.02579E-14
5.75917E-12 9.02578E-14
6.85391E-12 9.02577E-14
8.04379E-12 9.02576E-14
9.32893E-12 9.02575E-14
1.07092E-11 9.02574E-14
1.21847E-11 9.02573E-14
1.37554E-11 9.02572E-14
1.54213E-11 9.02571E-14
1.71823E-11 9.02570E-14
1.90386E-11 9.02568E-14
2.09900E-11 9.02567E-14
2.30367E-11 9.02565E-14
2.51785E-11 9.02564E-14
2.74156E-11 9.02562E-14
2.97478E-11 9.02560E-14
3.21752E-11 9.02559E-14
3.46979E-11 9.02557E-14
3.73157E-11 9.02555E-14
4.00286E-11 9.02553E-14
4.28368E-11 9.02551E-14
4.57402E-11 9.02549E-14
4.87388E-11 9.02547E-14
5.18325E-11 9.02544E-14
5.50215E-11 9.02542E-14
5.83057E-11 9.02540E-14
6.16850E-11 9.02537E-14
6.51595E-11 9.02535E-14
6.87293E-11 9.02532E-14
7.23943E-11 9.02529E-14
7.61544E-11 9.02526E-14
1.18991E-10 9.02495E-14
1.71347E-10 9.02457E-14
2.33223E-10 9.02412E-14
3.04617E-10 9.02359E-14
3.85531E-10 9.02300E-14
4.75965E-10 9.02234E-14
5.75917E-10 9.02161E-14
6.85389E-10 9.02081E-14
8.04380E-10 9.01994E-14
9.32891E-10 9.01900E-14
1.07092E-09 9.01800E-14
1.21847E-09 9.01692E-14
1.37554E-09 9.01577E-14
1.54213E-09 9.01456E-14
1.71823E-09 9.01327E-14
1.90386E-09 9.01192E-14
2.09900E-09 9.01049E-14
2.30367E-09 9.00900E-14
2.51785E-09 9.00744E-14
2.74156E-09 9.00581E-14
2.97478E-09 9.00411E-14
3.21752E-09 9.00234E-14
3.46978E-09 9.00051E-14
3.73156E-09 8.99860E-14
4.00286E-09 8.99663E-14
4.28368E-09 8.99459E-14
4.57402E-09 8.99248E-14
4.87388E-09 8.99030E-14
5.18326E-09 8.98805E-14
5.50215E-09 8.98574E-14
5.83057E-09 8.98335E-14
6.16850E-09 8.98090E-14
6.51596E-09 8.97839E-14
6.87293E-09 8.97580E-14
7.23942E-09 8.97315E-14
7.61544E-09 8.97042E-14
1.18991E-08 8.93953E-14
1.71347E-08 8.90202E-14
2.33223E-08 8.85804E-14
3.04617E-08 8.80778E-14
3.85531E-08 8.75142E-14
4.75965E-08 8.68918E-14
5.75917E-08 8.62129E-14
6.85389E-08 8.54801E-14
8.04380E-08 8.46960E-14
9.32891E-08 8.38634E-14
1.07092E-07 8.29852E-14
1.21847E-07 8.20644E-14
1.37554E-07 8.11039E-14
1.54213E-07 8.01069E-14
1.71823E-07 7.90764E-14
1.90386E-07 7.80157E-14
2.09900E-07 7.69276E-14
2.30367E-07 7.58153E-14
2.51785E-07 7.46819E-14
2.74156E-07 7.35301E-14
2.97478E-07 7.23628E-14
3.21752E-07 7.11829E-14
3.46978E-07 6.99930E-14
3.73156E-07 6.87956E-14
4.00286E-07 6.75932E-14
4.28368E-07 6.63881E-14
4.57402E-07 6.51825E-14
4.87388E-07 6.39784E-14
5.18325E-07 6.27778E-14
5.50215E-07 6.15825E-14
5.83057E-07 6.03942E-14
6.16850E-07 5.92144E-14
6.51596E-07 5.80446E-14
6.87293E-07 5.68859E-14
7.23942E-07 5.57397E-14
7.61543E-07 5.46070E-14
1.18991E-06 4.41790E-14
1.71347E-06 3.55890E-14
2.33223E-06 2.87486E-14
3.04617E-06 2.33636E-14
3.85531E-06 1.91223E-14
4.75964E-06 1.57614E-14
5.75916E-06 1.30767E-14
6.85388E-06 1.09146E-14
8.04378E-06 9.16026E-15
9.32888E-06 7.72729E-15
1.07092E-05 6.55011E-15
1.21846E-05 5.57826E-15
1.37553E-05 4.77237E-15
1.54212E-05 4.10143E-15
1.71822E-05 3.54072E-15
1.90385E-05 3.07041E-15
2.09899E-05 2.67450E-15
2.30365E-05 2.34000E-15
2.51783E-05 2.05636E-15
2.74153E-05 1.81495E-15
2.97475E-05 1.60868E-15
3.21749E-05 1.43174E-15
3.46974E-05 1.27934E-15
3.73152E-05 1.14755E-15
4.00281E-05 1.03311E-15
4.28362E-05 9.33335E-16
4.57395E-05 8.45983E-16
4.87380E-05 7.69190E-16
5.18317E-05 7.01407E-16
5.50205E-05 6.41347E-16
5.83045E-05 5.87928E-16
6.16838E-05 5.40239E-16
6.51582E-05 4.97513E-16
6.87277E-05 4.59100E-16
7.23925E-05 4.24456E-16
7.61524E-05 3.93117E-16
9.21439E-05 2.93677E-16
1.09658E-04 2.23751E-16
1.28695E-04 1.73103E-16
1.49255E-04 1.35618E-16
1.71338E-04 1.07426E-16
1.94942E-04 8.59545E-17
2.20070E-04 6.94293E-17
2.46720E-04 5.65930E-17
2.74892E-04 4.65356E-17
3.04586E-04 3.85885E-17
3.35803E-04 3.22564E-17
3.68542E-04 2.71701E-17
4.02802E-04 2.30521E-17
4.38585E-04 1.96917E-17
4.75889E-04 1.69283E-17
5.14715E-04 1.46394E-17
5.55063E-04 1.27303E-17
5.96931E-04 1.11273E-17
6.40321E-04 9.77252E-18
6.85233E-04 8.62083E-18
7.31665E-04 7.63627E-18
7.79618E-04 6.79012E-18
8.29092E-04 6.05924E-18
8.80086E-04 5.42506E-18
9.32601E-04 4.87234E-18
9.86636E-04 4.38872E-18
1.04219E-03 3.96391E-18
1.09927E-03 3.58946E-18
1.15786E-03 3.25827E-18
1.21797E-03 2.96445E-18
1.27961E-03 2.70300E-18
1.34276E-03 2.46974E-18
1.40743E-03 2.26105E-18
1.47362E-03 2.07388E-18
1.54133E-03 1.90563E-18
1.61056E-03 1.75405E-18
1.68131E-03 1.61719E-18
1.75357E-03 1.49337E-18
1.82735E-03 1.38113E-18
1.90265E-03 1.27920E-18
1.97947E-03 1.18646E-18
2.05780E-03 1.10195E-18
2.13765E-03 1.02481E-18
2.21902E-03 9.54272E-19
2.30190E-03 8.89686E-19
2.38630E-03 8.30459E-19
2.47222E-03 7.76067E-19
2.55965E-03 7.26048E-19
2.64859E-03 6.79986E-19
2.73905E-03 6.37516E-19
2.83103E-03 5.98309E-19
2.92452E-03 5.62068E-19
3.01952E-03 5.28528E-19
3.11604E-03 4.97454E-19
3.21407E-03 4.68633E-19
3.31362E-03 4.41871E-19
3.41468E-03 4.16995E-19
3.51725E-03 3.93847E-19
3.62133E-03 3.72287E-19
3.72692E-03 3.52186E-19
3.83403E-03 3.33428E-19
3.94265E-03 3.15905E-19
4.05278E-03 2.99523E-19
4.16442E-03 2.84192E-19
4.27757E-03 2.69834E-19
4.39223E-03 2.56376E-19
4.50840E-03 2.43750E-19
4.62608E-03 2.31894E-19
4.74527E-03 2.20756E-19
4.86597E-03 2.10281E-19
4.98817E-03 2.00424E-19
5.11188E-03 1.91141E-19
5.23711E-03 1.82393E-19
5.36383E-03 1.74142E-19
5.49207E-03 1.66357E-19
5.62181E-03 1.59004E-19
5.75306E-03 1.52056E-19
5.88581E-03 1.45485E-19
6.02007E-03 1.39269E-19
6.15583E-03 1.33384E-19
6.29310E-03 1.27808E-19
6.43187E-03 1.22523E-19
6.57214E-03 1.17511E-19
6.71392E-03 1.12754E-19
6.85720E-03 1.08238E-19
7.00198E-03 1.03947E-19
7.14827E-03 9.98688E-20
7.29605E-03 9.59902E-20
7.44534E-03 9.22998E-20
7.59612E-03 8.87866E-20
7.97965E-03 8.07135E-20
8.37255E-03 7.35452E-20
8.77480E-03 6.71619E-20
9.18641E-03 6.14624E-20
9.60736E-03 5.63600E-20
1.00376E-02 5.17810E-20
1.04773E-02 4.76617E-20
1.09262E-02 4.39478E-20
1.13844E-02 4.05919E-20
1.18520E-02 3.75532E-20
1.23288E-02 3.47962E-20
1.28150E-02 3.22900E-20
1.33104E-02 3.00076E-20
1.38150E-02 2.79251E-20
1.43290E-02 2.60220E-20
1.48521E-02 2.42798E-20
1.53845E-02 2.26824E-20
1.59262E-02 2.12155E-20
1.64770E-02 1.98665E-20
1.70371E-02 1.86240E-20
1.76063E-02 1.74782E-20
1.81848E-02 1.64200E-20
1.87724E-02 1.54415E-20
1.93692E-02 1.45356E-20
1.99751E-02 1.36958E-20
2.05901E-02 1.29164E-20
2.12143E-02 1.21923E-20
2.18476E-02 1.15187E-20
2.24900E-02 1.08915E-20
2.31415E-02 1.03069E-20
2.38021E-02 9.76141E-21
2.44717E-02 9.25191E-21
2.51504E-02 8.77558E-21
2.58382E-02 8.32985E-21
2.65349E-02 7.91238E-21
2.72407E-02 7.52103E-21
2.79555E-02 7.15384E-21
2.86793E-02 6.80905E-21
2.94120E-02 6.48501E-21
3.01537E-02 6.18024E-21
3.09043E-02 5.89337E-21
3.16639E-02 5.62314E-21
3.24324E-02 5.36841E-21
3.32098E-02 5.12811E-21
3.39961E-02 4.90126E-21
3.47912E-02 4.68696E-21
3.55952E-02 4.48439E-21
3.64081E-02 4.29277E-21
3.72297E-02 4.11140E-21
3.80602E-02 3.93962E-21
3.88995E-02 3.77683E-21
3.97476E-02 3.62247E-21
4.06044E-02 3.47600E-21
4.14700E-02 3.33696E-21
4.23443E-02 3.20488E-21
4.32273E-02 3.07935E-21
4.41190E-02 2.95998E-21
4.50194E-02 2.84642E-21
4.59284E-02 2.73831E-21
4.68461E-02 2.63535E-21
4.87074E-02 2.44372E-21
5.06030E-02 2.26940E-21
5.25328E-02 2.11054E-21
5.44967E-02 1.96550E-21
5.64946E-02 1.83285E-21
5.85262E-02 1.71134E-21
6.05914E-02 1.59986E-21
6.26901E-02 1.49741E-21
6.48222E-02 1.40314E-21
6.69873E-02 1.31625E-21
6.91854E-02 1.23607E-21
7.14163E-02 1.16197E-21
7.36799E-02 1.09341E-21
7.59760E-02 1.02989E-21
7.83043E-02 9.70969E-22
8.06647E-02 9.16250E-22
8.30571E-02 8.65377E-22
8.54812E-02 8.18025E-22
8.79369E-02 7.73906E-22
9.04240E-02 7.32753E-22
9.29422E-02 6.94330E-22
9.54915E-02 6.58419E-22
9.80716E-02 6.24825E-22
1.00682E-01 5.93369E-22
1.03323E-01 5.63887E-22
1.05995E-01 5.36233E-22
1.08696E-01 5.10270E-22
1.11427E-01 4.85874E-22
1.14188E-01 4.62933E-22
1.16978E-01 4.41342E-22
1.19797E-01 4.21006E-22
1.22645E-01 4.01838E-22
1.25522E-01 3.83758E-22
1.28428E-01 3.66692E-22
1.31361E-01 3.50571E-22
1.34323E-01 3.35332E-22
1.37313E-01 3.20919E-22
1.40330E-01 3.07277E-22
1.43375E-01 2.94356E-22
1.46447E-01 2.82112E-22
1.49545E-01 2.70502E-22
1.52671E-01 2.59486E-22
1.55823E-01 2.49027E-22
1.59001E-01 2.39092E-22
1.62205E-01 2.29650E-22
1.65435E-01 2.20671E-22
1.68690E-01 2.12129E-22
1.71970E-01 2.03996E-22
1.75276E-01 1.96251E-22
1.78606E-01 1.88870E-22
1.81961E-01 1.81833E-22
1.85340E-01 1.75121E-22
1.88743E-01 1.68717E-22
1.92169E-01 1.62602E-22
1.95619E-01 1.56761E-22
1.99092E-01 1.51180E-22
2.02589E-01 1.45845E-22
2.06107E-01 1.40742E-22
2.09649E-01 1.35860E-22
2.13212E-01 1.31187E-22
2.16797E-01 1.26713E-22
2.20404E-01 1.22426E-22
2.24032E-01 1.18319E-22
2.27680E-01 1.14381E-22
2.31350E-01 1.10604E-22
2.35040E-01 1.06981E-22
2.38751E-01 1.03504E-22
2.42481E-01 1.00165E-22
2.46231E-01 9.69592E-23
2.50000E-01 9.38790E-23
2.53788E-01 9.09188E-23
2.57595E-01 8.80730E-23
2.61421E-01 8.53362E-23
2.65264E-01 8.27036E-23
2.69126E-01 8.01703E-23
2.73005E-01 7.77319E-23
2.76901E-01 7.53840E-23
2.80814E-01 7.31227E-23
2.84744E-01 7.09439E-23
2.88691E-01 6.88443E-23
2.92653E-01 6.68204E-23
2.96632E-01 6.48689E-23
3.00625E-01 6.29866E-23
3.04634E-01 6.11707E-23
3.08658E-01 5.94182E-23
3.12697E-01 5.77265E-23
3.16749E-01 5.60932E-23
3.20816E-01 5.45159E-23
3.24896E-01 5.29922E-23
3.28990E-01 5.15199E-23
3.33097E-01 5.00969E-23
3.37216E-01 4.87214E-23
3.41348E-01 4.73913E-23
3.45492E-01 4.61048E-23
3.49647E-01 4.48604E-23
3.53814E-01 4.36564E-23
3.57992E-01 4.24910E-23
3.62181E-01 4.13630E-23
3.66381E-01 4.02708E-23
3.70590E-01 3.92131E-23
3.74810E-01 3.81885E-23
3.79039E-01 3.71959E-23
3.83277E-01 3.62340E-23
3.87524E-01 3.53018E-23
3.91780E-01 3.43981E-23
3.96044E-01 3.35218E-23
4.00316E-01 3.26720E-23
4.04596E-01 3.18478E-23
4.08882E-01 3.10482E-23
4.13176E-01 3.02723E-23
4.17476E-01 2.95193E-23
4.21783E-01 2.87884E-23
4.26095E-01 2.80788E-23
4.30413E-01 2.73897E-23
4.34737E-01 2.67205E-23
4.39065E-01 2.60705E-23
4.43398E-01 2.54391E-23
4.47736E-01 2.48255E-23
4.52077E-01 2.42293E-23
4.56422E-01 2.36497E-23
4.60770E-01 2.30863E-23
4.65122E-01 2.25385E-23
4.69476E-01 2.20058E-23
4.73832E-01 2.14878E-23
4.78190E-01 2.09838E-23
4.82550E-01 2.04936E-23
4.86912E-01 2.00166E-23
4.91274E-01 1.95524E-23
4.95637E-01 1.91005E-23
5.00000E-01 1.86608E-23
5.04363E-01 1.82326E-23
5.08726E-01 1.78157E-23
5.13088E-01 1.74097E-23
5.17450E-01 1.70144E-23
5.21810E-01 1.66292E-23
5.26168E-01 1.62540E-23
5.30524E-01 1.58884E-23
5.34878E-01 1.55322E-23
5.39230E-01 1.51851E-23
5.43578E-01 1.48467E-23
5.47923E-01 1.45169E-23
5.52264E-01 1.41953E-23
5.56602E-01 1.38817E-23
5.60935E-01 1.35760E-23
5.65263E-01 1.32778E-23
5.69587E-01 1.29870E-23
5.73905E-01 1.27033E-23
5.78217E-01 1.24265E-23
5.82524E-01 1.21565E-23
5.86824E-01 1.18930E-23
5.91118E-01 1.16358E-23
5.95404E-01 1.13849E-23
5.99684E-01 1.11399E-23
6.03956E-01 1.09007E-23
6.08220E-01 1.06673E-23
6.12476E-01 1.04393E-23
6.16723E-01 1.02167E-23
6.20961E-01 9.99933E-24
6.25190E-01 9.78702E-24
6.29410E-01 9.57964E-24
6.33619E-01 9.37708E-24
6.37819E-01 9.17918E-24
6.42008E-01 8.98583E-24
6.46186E-01 8.79690E-24
6.50353E-01 8.61229E-24
6.54508E-01 8.43187E-24
6.58652E-01 8.25555E-24
6.62784E-01 8.08320E-24
6.66903E-01 7.91473E-24
6.71010E-01 7.75004E-24
6.75104E-01 7.58902E-24
6.79184E-01 7.43159E-24
6.83251E-01 7.27765E-24
6.87303E-01 7.12712E-24
6.91342E-01 6.97991E-24
6.95366E-01 6.83594E-24
6.99375E-01 6.69512E-24
7.03368E-01 6.55738E-24
7.07347E-01 6.42264E-24
7.11309E-01 6.29082E-24
7.15256E-01 6.16186E-24
7.19186E-01 6.03569E-24
7.23099E-01 5.91224E-24
7.26995E-01 5.79144E-24
7.30874E-01 5.67322E-24
7.34736E-01 5.55753E-24
7.38579E-01 5.44431E-24
7.42405E-01 5.33349E-24
7.46212E-01 5.22503E-24
7.50000E-01 5.11886E-24
7.53769E-01 5.01494E-24
7.57519E-01 4.91320E-24
7.61249E-01 4.81360E-24
7.64960E-01 4.71609E-24
7.68650E-01 4.62063E-24
7.72320E-01 4.52716E-24
7.75968E-01 4.43564E-24
7.79596E-01 4.34603E-24
7.83203E-01 4.25827E-24
7.86788E-01 4.17234E-24
7.90351E-01 4.08819E-24
7.93893E-01 4.00579E-24
7.97411E-01 3.92508E-24
8.00908E-01 3.84605E-24
8.04381E-01 3.76864E-24
8.07831E-01 3.69283E-24
8.11257E-01 3.61858E-24
8.14660E-01 3.54585E-24
8.18039E-01 3.47461E-24
8.21394E-01 3.40484E-24
8.24724E-01 3.33651E-24
8.28030E-01 3.26957E-24
8.31310E-01 3.20400E-24
8.34565E-01 3.13978E-24
8.37795E-01 3.07687E-24
8.40999E-01 3.01525E-24
8.44177E-01 2.95490E-24
8.47329E-01 2.89578E-24
8.50455E-01 2.83788E-24
8.53553E-01 2.78116E-24
8.56625E-01 2.72560E-24
8.59670E-01 2.67119E-24
8.62687E-01 2.61789E-24
8.65677E-01 2.56569E-24
8.68639E-01 2.51457E-24
8.71572E-01 2.46451E-24
8.74478E-01 2.41547E-24
8.77355E-01 2.36745E-24
8.80203E-01 2.32043E-24
8.83022E-01 2.27438E-24
8.85812E-01 2.22929E-24
8.88573E-01 2.18515E-24
8.91304E-01 2.14193E-24
8.94005E-01 2.09961E-24
8.96677E-01 2.05818E-24
8.99318E-01 2.01763E-24
9.01928E-01 1.97793E-24
9.04508E-01 1.93908E-24
9.07058E-01 1.90107E-24
9.09576E-01 1.86386E-24
9.12063E-01 1.82746E-24
9.14519E-01 1.79184E-24
9.16943E-01 1.75699E-24
9.19335E-01 1.72290E-24
9.21696E-01 1.68957E-24
9.24024E-01 1.65696E-24
9.26320E-01 1.62509E-24
9.28584E-01 1.59392E-24
9.30815E-01 1.56346E-24
9.33013E-01 1.53368E-24
9.35178E-01 1.50458E-24
9.37310E-01 1.47615E-24
9.39409E-01 1.44838E-24
9.41474E-01 1.42126E-24
9.43505E-01 1.39478E-24
9.45503E-01 1.36892E-24
9.47467E-01 1.34369E-24
9.49397E-01 1.31906E-24
9.51293E-01 1.29504E-24
9.53154E-01 1.27161E-24
9.54981E-01 1.24877E-24
9.56773E-01 1.22651E-24
9.58530E-01 1.20482E-24
9.60252E-01 1.18369E-24
9.61940E-01 1.16311E-24
9.63592E-01 1.14308E-24
9.65209E-01 1.12360E-24
9.66790E-01 1.10465E-24
9.68336E-01 1.08623E-24
9.69846E-01 1.06833E-24
9.71321E-01 1.05095E-24
9.72759E-01 1.03407E-24
9.74162E-01 1.01770E-24
9.75528E-01 1.00183E-24
9.76858E-01 9.86461E-25
9.78152E-01 9.71576E-25
9.79410E-01 9.57174E-25
9.80631E-01 9.43249E-25
9.81815E-01 9.29799E-25
9.82963E-01 9.16819E-25
9.84074E-01 9.04305E-25
9.85148E-01 8.92255E-25
9.86185E-01 8.80661E-25
9.87185E-01 8.69521E-25
9.88148E-01 8.58830E-25
9.89074E-01 8.48584E-25
9.89962E-01 8.38782E-25
9.90814E-01 8.29421E-25
9.91627E-01 8.20498E-25
9.92404E-01 8.12010E-25
9.93143E-01 8.03952E-25
9.93844E-01 7.96322E-25
9.94508E-01 7.89117E-25
9.95134E-01 7.82336E-25
9.95722E-01 7.75978E-25
9.96273E-01 7.70041E-25
9.96786E-01 7.64523E-25
9.97261E-01 7.59420E-25
9.97698E-01 7.54730E-25
9.98097E-01 7.50451E-25
9.98459E-01 7.46583E-25
9.98782E-01 7.43126E-25
9.99067E-01 7.40081E-25
9.99315E-01 7.37445E-25
9.99524E-01 7.35217E-25
9.99695E-01 7.33392E-25
9.99829E-01 7.31971E-25
9.99924E-01 7.30954E-25
9.99981E-01 7.30342E-25
1.00000E+00 7.30128E-25
