 #
 # Subroutine ELSEPA. Elastic scattering of electrons and positrons
 #                    by neutral atoms and positive ions
 #
 # Projectile: electron
 # Kinetic energy = 8.00000E+08 eV = 2.93995E+07 a.u.
 #
 # WARNING: High-energy factorization with free-atom DF screening.
 #          Absorption, polarization and exchange corrections are
 #          switched off.
 #          Phase shifts are calculated for the bare nucleus.
 #          Scattering amplitudes are not evaluated.
 #
 # Element: Mo,  Z =  42,  atomic weight = 9.59400E+01 g/mol
 #
 # Nuclear model: Fermi distribution
 #                Average radius = 4.89836E-13 cm
 #                Skin thickness = 5.46000E-14 cm
 #
 # Number of electrons = 42
 #
 # Total elastic cross section = 4.04108E-18 cm**2 = 1.44310E-01 a0**2
 # 1st transport cross section = 5.49684E-27 cm**2 = 1.96296E-10 a0**2
 # 2nd transport cross section = 1.64878E-26 cm**2 = 5.88791E-10 a0**2
 #
 #
 # Differential cross section:                       MU=(1-COS(THETA))/2
 #
 #  THETA        MU          DCS          DCS        Sherman      error
 #  (deg)                 (cm**2/sr)   (a0**2/sr)    function
 #----------------------------------------------------------------------
0.00000E+00 2.53657E-08
7.61557E-13 2.11514E-08
1.18994E-12 1.92961E-08
1.71346E-12 1.73967E-08
2.33225E-12 1.55522E-08
3.04617E-12 1.38273E-08
3.85530E-12 1.22582E-08
4.75964E-12 1.08536E-08
5.75917E-12 9.61470E-09
6.85391E-12 8.52495E-09
8.04379E-12 7.57471E-09
9.32893E-12 6.74214E-09
1.07092E-11 6.01644E-09
1.21847E-11 5.37985E-09
1.37554E-11 4.82219E-09
1.54213E-11 4.33128E-09
1.71823E-11 3.89842E-09
1.90386E-11 3.51588E-09
2.09900E-11 3.17636E-09
2.30367E-11 2.87524E-09
2.51785E-11 2.60640E-09
2.74156E-11 2.36726E-09
2.97478E-11 2.15266E-09
3.21752E-11 1.96109E-09
3.46979E-11 1.78880E-09
3.73157E-11 1.62791E-09
4.00286E-11 1.48202E-09
4.28368E-11 1.35430E-09
4.57402E-11 1.24207E-09
4.87388E-11 1.14307E-09
5.18325E-11 1.05544E-09
5.50215E-11 9.77603E-10
5.83057E-11 9.01078E-10
6.16850E-11 8.30448E-10
6.51595E-11 7.67460E-10
6.87293E-11 7.11122E-10
7.23943E-11 6.60590E-10
7.61544E-11 6.15142E-10
1.18991E-10 3.18018E-10
1.71347E-10 1.84161E-10
2.33223E-10 1.15791E-10
3.04617E-10 7.68759E-11
3.85531E-10 5.30128E-11
4.75965E-10 3.74823E-11
5.75917E-10 2.71202E-11
6.85389E-10 1.99685E-11
8.04380E-10 1.49846E-11
9.32891E-10 1.14284E-11
1.07092E-09 8.85798E-12
1.21847E-09 6.96994E-12
1.37554E-09 5.56274E-12
1.54213E-09 4.49650E-12
1.71823E-09 3.67654E-12
1.90386E-09 3.03738E-12
2.09900E-09 2.53287E-12
2.30367E-09 2.13037E-12
2.51785E-09 1.80560E-12
2.74156E-09 1.54118E-12
2.97478E-09 1.32359E-12
3.21752E-09 1.14331E-12
3.46978E-09 9.92641E-13
3.73156E-09 8.65604E-13
4.00286E-09 7.58392E-13
4.28368E-09 6.67780E-13
4.57402E-09 5.89670E-13
4.87388E-09 5.22777E-13
5.18326E-09 4.65285E-13
5.50215E-09 4.15033E-13
5.83057E-09 3.71538E-13
6.16850E-09 3.33571E-13
6.51596E-09 3.00180E-13
6.87293E-09 2.70948E-13
7.23942E-09 2.45102E-13
7.61544E-09 2.22230E-13
1.18991E-08 9.32109E-14
1.71347E-08 4.55853E-14
2.33223E-08 2.48601E-14
3.04617E-08 1.46949E-14
3.85531E-08 9.23800E-15
4.75965E-08 6.09636E-15
5.75917E-08 4.18417E-15
6.85389E-08 2.96624E-15
8.04380E-08 2.16081E-15
9.32891E-08 1.61100E-15
1.07092E-07 1.22535E-15
1.21847E-07 9.48415E-16
1.37554E-07 7.45426E-16
1.54213E-07 5.93909E-16
1.71823E-07 4.78978E-16
1.90386E-07 3.90532E-16
2.09900E-07 3.21575E-16
2.30367E-07 2.67179E-16
2.51785E-07 2.23805E-16
2.74156E-07 1.88881E-16
2.97478E-07 1.60508E-16
3.21752E-07 1.37265E-16
3.46978E-07 1.18079E-16
3.73156E-07 1.02129E-16
4.00286E-07 8.87823E-17
4.28368E-07 7.75457E-17
4.57402E-07 6.80311E-17
4.87388E-07 5.99316E-17
5.18325E-07 5.30019E-17
5.50215E-07 4.70452E-17
5.83057E-07 4.19021E-17
6.16850E-07 3.74427E-17
6.51596E-07 3.35610E-17
6.87293E-07 3.01694E-17
7.23942E-07 2.71956E-17
7.61543E-07 2.45792E-17
1.18991E-06 1.00760E-17
1.71347E-06 4.86160E-18
2.33223E-06 2.62509E-18
3.04617E-06 1.53920E-18
3.85531E-06 9.61144E-19
4.75964E-06 6.30740E-19
5.75916E-06 4.30888E-19
6.85388E-06 3.04293E-19
8.04378E-06 2.20964E-19
9.32888E-06 1.64308E-19
1.07092E-05 1.24704E-19
1.21846E-05 9.63468E-20
1.37553E-05 7.56124E-20
1.54212E-05 6.01688E-20
1.71822E-05 4.84750E-20
1.90385E-05 3.94827E-20
2.09899E-05 3.24959E-20
2.30365E-05 2.69872E-20
2.51783E-05 2.25958E-20
2.74153E-05 1.90605E-20
2.97475E-05 1.61896E-20
3.21749E-05 1.38394E-20
3.46974E-05 1.19013E-20
3.73152E-05 1.02916E-20
4.00281E-05 8.94563E-21
4.28362E-05 7.81303E-21
4.57395E-05 6.85421E-21
4.87380E-05 6.03796E-21
5.18317E-05 5.33955E-21
5.50205E-05 4.73915E-21
5.83045E-05 4.22080E-21
6.16838E-05 3.77146E-21
6.51582E-05 3.38046E-21
6.87277E-05 3.03893E-21
7.23925E-05 2.73954E-21
7.61524E-05 2.45136E-21
9.21439E-05 1.66855E-21
1.09658E-04 1.17319E-21
1.28695E-04 8.47674E-22
1.49255E-04 6.26703E-22
1.71338E-04 4.72600E-22
1.94942E-04 3.62526E-22
2.20070E-04 2.82276E-22
2.46720E-04 2.22701E-22
2.74892E-04 1.77753E-22
3.04586E-04 1.43358E-22
3.35803E-04 1.16696E-22
3.68542E-04 9.57904E-23
4.02802E-04 7.92254E-23
4.38585E-04 6.59746E-23
4.75889E-04 5.52834E-23
5.14715E-04 4.65882E-23
5.55063E-04 3.94654E-23
5.96931E-04 3.35910E-23
6.40321E-04 2.87165E-23
6.85233E-04 2.46486E-23
7.31665E-04 2.12356E-23
7.79618E-04 1.83583E-23
8.29092E-04 1.59213E-23
8.80086E-04 1.38485E-23
9.32601E-04 1.20784E-23
9.86636E-04 1.05613E-23
1.04219E-03 9.25653E-24
1.09927E-03 8.13066E-24
1.15786E-03 7.15626E-24
1.21797E-03 6.31052E-24
1.27961E-03 5.57450E-24
1.34276E-03 4.93238E-24
1.40743E-03 4.37083E-24
1.47362E-03 3.87868E-24
1.54133E-03 3.44644E-24
1.61056E-03 3.06609E-24
1.68131E-03 2.73078E-24
1.75357E-03 2.43467E-24
1.82735E-03 2.17275E-24
1.90265E-03 1.94073E-24
1.97947E-03 1.73489E-24
2.05780E-03 1.55204E-24
2.13765E-03 1.38941E-24
2.21902E-03 1.24460E-24
2.30190E-03 1.11550E-24
2.38630E-03 1.00030E-24
2.47222E-03 8.97400E-25
2.55965E-03 8.05408E-25
2.64859E-03 7.23100E-25
2.73905E-03 6.49399E-25
2.83103E-03 5.83360E-25
2.92452E-03 5.24147E-25
3.01952E-03 4.71024E-25
3.11604E-03 4.23339E-25
3.21407E-03 3.80514E-25
3.31362E-03 3.42036E-25
3.41468E-03 3.07452E-25
3.51725E-03 2.76357E-25
3.62133E-03 2.48389E-25
3.72692E-03 2.23230E-25
3.83403E-03 2.00591E-25
3.94265E-03 1.80216E-25
4.05278E-03 1.61878E-25
4.16442E-03 1.45371E-25
4.27757E-03 1.30512E-25
4.39223E-03 1.17136E-25
4.50840E-03 1.05096E-25
4.62608E-03 9.42589E-26
4.74527E-03 8.45057E-26
4.86597E-03 7.57296E-26
4.98817E-03 6.78341E-26
5.11188E-03 6.07325E-26
5.23711E-03 5.43467E-26
5.36383E-03 4.86064E-26
5.49207E-03 4.34481E-26
5.62181E-03 3.88146E-26
5.75306E-03 3.46543E-26
5.88581E-03 3.09205E-26
6.02007E-03 2.75713E-26
6.15583E-03 2.45687E-26
6.29310E-03 2.18784E-26
6.43187E-03 1.94694E-26
6.57214E-03 1.73137E-26
6.71392E-03 1.53862E-26
6.85720E-03 1.36639E-26
7.00198E-03 1.21262E-26
7.14827E-03 1.07545E-26
7.29605E-03 9.53199E-27
7.44534E-03 8.44342E-27
7.59612E-03 7.47509E-27
7.97965E-03 5.50190E-27
8.37255E-03 4.04310E-27
8.77480E-03 2.97285E-27
9.18641E-03 2.19422E-27
9.60736E-03 1.63283E-27
1.00376E-02 1.23185E-27
1.04773E-02 9.48102E-28
1.09262E-02 7.48979E-28
1.13844E-02 6.10079E-28
1.18520E-02 5.13301E-28
1.23288E-02 4.45374E-28
1.28150E-02 3.96708E-28
1.33104E-02 3.60492E-28
1.38150E-02 3.31998E-28
1.43290E-02 3.08037E-28
1.48521E-02 2.86543E-28
1.53845E-02 2.66260E-28
1.59262E-02 2.46490E-28
1.64770E-02 2.26923E-28
1.70371E-02 2.07492E-28
1.76063E-02 1.88283E-28
1.81848E-02 1.69462E-28
1.87724E-02 1.51225E-28
1.93692E-02 1.33768E-28
1.99751E-02 1.17265E-28
2.05901E-02 1.01856E-28
2.12143E-02 8.76451E-29
2.18476E-02 7.46955E-29
2.24900E-02 6.30343E-29
2.31415E-02 5.26554E-29
2.38021E-02 4.35250E-29
2.44717E-02 3.55864E-29
2.51504E-02 2.87657E-29
2.58382E-02 2.29768E-29
2.65349E-02 1.81258E-29
2.72407E-02 1.41152E-29
2.79555E-02 1.08469E-29
2.86793E-02 8.22508E-30
2.94120E-02 6.15838E-30
3.01537E-02 4.56134E-30
3.09043E-02 3.35551E-30
3.16639E-02 2.47010E-30
3.24324E-02 1.84228E-30
3.32098E-02 1.41714E-30
3.39961E-02 1.14750E-30
3.47912E-02 9.93506E-31
3.55952E-02 9.22060E-31
3.64081E-02 9.06248E-31
3.72297E-02 9.24664E-31
3.80602E-02 9.60737E-31
3.88995E-02 1.00207E-30
3.97476E-02 1.03978E-30
4.06044E-02 1.06793E-30
4.14700E-02 1.08295E-30
4.23443E-02 1.08313E-30
4.32273E-02 1.06822E-30
4.41190E-02 1.03902E-30
4.50194E-02 9.97053E-31
4.59284E-02 9.44328E-31
4.68461E-02 8.83085E-31
4.87074E-02 7.44249E-31
5.06030E-02 5.97829E-31
5.25328E-02 4.57769E-31
5.44967E-02 3.33646E-31
5.64946E-02 2.30716E-31
5.85262E-02 1.50585E-31
6.05914E-02 9.21510E-32
6.26901E-02 5.25830E-32
6.48222E-02 2.81857E-32
6.69873E-02 1.50785E-32
6.91854E-02 9.66890E-33
7.14163E-02 8.93247E-33
7.36799E-02 1.05343E-32
7.59760E-02 1.28311E-32
7.83043E-02 1.47966E-32
8.06647E-02 1.59036E-32
8.30571E-02 1.59935E-32
8.54812E-02 1.51500E-32
8.79369E-02 1.35924E-32
9.04240E-02 1.15916E-32
9.29422E-02 9.41130E-33
9.54915E-02 7.27277E-33
9.80716E-02 5.33730E-33
1.00682E-01 3.70337E-33
1.03323E-01 2.41294E-33
1.05995E-01 1.46300E-33
1.08696E-01 8.19020E-34
1.11427E-01 4.27999E-34
1.14188E-01 2.29644E-34
1.16978E-01 1.64907E-34
1.19797E-01 1.81727E-34
1.22645E-01 2.38220E-34
1.25522E-01 3.03740E-34
1.28428E-01 3.58387E-34
1.31361E-01 3.91506E-34
1.34323E-01 3.99661E-34
1.37313E-01 3.84495E-34
1.40330E-01 3.50725E-34
1.43375E-01 3.04466E-34
1.46447E-01 2.51965E-34
1.49545E-01 1.98734E-34
1.52671E-01 1.49071E-34
1.55823E-01 1.05877E-34
1.59001E-01 7.07061E-35
1.62205E-01 4.39608E-35
1.65435E-01 2.51618E-35
1.68690E-01 1.32420E-35
1.71970E-01 6.81920E-36
1.75276E-01 4.42391E-36
1.78606E-01 4.67107E-36
1.81961E-01 6.37230E-36
1.85340E-01 8.59488E-36
1.88743E-01 1.06769E-35
1.92169E-01 1.22098E-35
1.95619E-01 1.30003E-35
1.99092E-01 1.30217E-35
2.02589E-01 1.23623E-35
2.06107E-01 1.11784E-35
2.09649E-01 9.65384E-36
2.13212E-01 7.97005E-36
2.16797E-01 6.28486E-36
2.20404E-01 4.72092E-36
2.24032E-01 3.36138E-36
2.27680E-01 2.25132E-36
2.31350E-01 1.40295E-36
2.35040E-01 8.02886E-37
2.38751E-01 4.20145E-37
2.42481E-01 2.13719E-37
2.46231E-01 1.39104E-37
2.50000E-01 1.53367E-37
2.53788E-01 2.18678E-37
2.57595E-01 3.04357E-37
2.61421E-01 3.87683E-37
2.65264E-01 4.53708E-37
2.69126E-01 4.94390E-37
2.73005E-01 5.07310E-37
2.76901E-01 4.94217E-37
2.80814E-01 4.59586E-37
2.84744E-01 4.09331E-37
2.88691E-01 3.49738E-37
2.92653E-01 2.86686E-37
2.96632E-01 2.25125E-37
3.00625E-01 1.68807E-37
3.04634E-01 1.20215E-37
3.08658E-01 8.06382E-38
3.12697E-01 5.03500E-38
3.16749E-01 1.00000E-45
3.20816E-01 1.00000E-45
3.24896E-01 1.00000E-45
3.28990E-01 1.00000E-45
3.33097E-01 1.00000E-45
3.37216E-01 1.00000E-45
3.41348E-01 1.00000E-45
3.45492E-01 1.00000E-45
3.49647E-01 1.00000E-45
3.53814E-01 1.00000E-45
3.57992E-01 1.00000E-45
3.62181E-01 1.00000E-45
3.66381E-01 1.00000E-45
3.70590E-01 1.00000E-45
3.74810E-01 1.00000E-45
3.79039E-01 1.00000E-45
3.83277E-01 1.00000E-45
3.87524E-01 1.00000E-45
3.91780E-01 1.00000E-45
3.96044E-01 1.00000E-45
4.00316E-01 1.00000E-45
4.04596E-01 1.00000E-45
4.08882E-01 1.00000E-45
4.13176E-01 1.00000E-45
4.17476E-01 1.00000E-45
4.21783E-01 1.00000E-45
4.26095E-01 1.00000E-45
4.30413E-01 1.00000E-45
4.34737E-01 1.00000E-45
4.39065E-01 1.00000E-45
4.43398E-01 1.00000E-45
4.47736E-01 1.00000E-45
4.52077E-01 1.00000E-45
4.56422E-01 1.00000E-45
4.60770E-01 1.00000E-45
4.65122E-01 1.00000E-45
4.69476E-01 1.00000E-45
4.73832E-01 1.00000E-45
4.78190E-01 1.00000E-45
4.82550E-01 1.00000E-45
4.86912E-01 1.00000E-45
4.91274E-01 1.00000E-45
4.95637E-01 1.00000E-45
5.00000E-01 1.00000E-45
5.04363E-01 1.00000E-45
5.08726E-01 1.00000E-45
5.13088E-01 1.00000E-45
5.17450E-01 1.00000E-45
5.21810E-01 1.00000E-45
5.26168E-01 1.00000E-45
5.30524E-01 1.00000E-45
5.34878E-01 1.00000E-45
5.39230E-01 1.00000E-45
5.43578E-01 1.00000E-45
5.47923E-01 1.00000E-45
5.52264E-01 1.00000E-45
5.56602E-01 1.00000E-45
5.60935E-01 1.00000E-45
5.65263E-01 1.00000E-45
5.69587E-01 1.00000E-45
5.73905E-01 1.00000E-45
5.78217E-01 1.00000E-45
5.82524E-01 1.00000E-45
5.86824E-01 1.00000E-45
5.91118E-01 1.00000E-45
5.95404E-01 1.00000E-45
5.99684E-01 1.00000E-45
6.03956E-01 1.00000E-45
6.08220E-01 1.00000E-45
6.12476E-01 1.00000E-45
6.16723E-01 1.00000E-45
6.20961E-01 1.00000E-45
6.25190E-01 1.00000E-45
6.29410E-01 1.00000E-45
6.33619E-01 1.00000E-45
6.37819E-01 1.00000E-45
6.42008E-01 1.00000E-45
6.46186E-01 1.00000E-45
6.50353E-01 1.00000E-45
6.54508E-01 1.00000E-45
6.58652E-01 1.00000E-45
6.62784E-01 1.00000E-45
6.66903E-01 1.00000E-45
6.71010E-01 1.00000E-45
6.75104E-01 1.00000E-45
6.79184E-01 1.00000E-45
6.83251E-01 1.00000E-45
6.87303E-01 1.00000E-45
6.91342E-01 1.00000E-45
6.95366E-01 1.00000E-45
6.99375E-01 1.00000E-45
7.03368E-01 1.00000E-45
7.07347E-01 1.00000E-45
7.11309E-01 1.00000E-45
7.15256E-01 1.00000E-45
7.19186E-01 1.00000E-45
7.23099E-01 1.00000E-45
7.26995E-01 1.00000E-45
7.30874E-01 1.00000E-45
7.34736E-01 1.00000E-45
7.38579E-01 1.00000E-45
7.42405E-01 1.00000E-45
7.46212E-01 1.00000E-45
7.50000E-01 1.00000E-45
7.53769E-01 1.00000E-45
7.57519E-01 1.00000E-45
7.61249E-01 1.00000E-45
7.64960E-01 1.00000E-45
7.68650E-01 1.00000E-45
7.72320E-01 1.00000E-45
7.75968E-01 1.00000E-45
7.79596E-01 1.00000E-45
7.83203E-01 1.00000E-45
7.86788E-01 1.00000E-45
7.90351E-01 1.00000E-45
7.93893E-01 1.00000E-45
7.97411E-01 1.00000E-45
8.00908E-01 1.00000E-45
8.04381E-01 1.00000E-45
8.07831E-01 1.00000E-45
8.11257E-01 1.00000E-45
8.14660E-01 1.00000E-45
8.18039E-01 1.00000E-45
8.21394E-01 1.00000E-45
8.24724E-01 1.00000E-45
8.28030E-01 1.00000E-45
8.31310E-01 1.00000E-45
8.34565E-01 1.00000E-45
8.37795E-01 1.00000E-45
8.40999E-01 1.00000E-45
8.44177E-01 1.00000E-45
8.47329E-01 1.00000E-45
8.50455E-01 1.00000E-45
8.53553E-01 1.00000E-45
8.56625E-01 1.00000E-45
8.59670E-01 1.00000E-45
8.62687E-01 1.00000E-45
8.65677E-01 1.00000E-45
8.68639E-01 1.00000E-45
8.71572E-01 1.00000E-45
8.74478E-01 1.00000E-45
8.77355E-01 1.00000E-45
8.80203E-01 1.00000E-45
8.83022E-01 1.00000E-45
8.85812E-01 1.00000E-45
8.88573E-01 1.00000E-45
8.91304E-01 1.00000E-45
8.94005E-01 1.00000E-45
8.96677E-01 1.00000E-45
8.99318E-01 1.00000E-45
9.01928E-01 1.00000E-45
9.04508E-01 1.00000E-45
9.07058E-01 1.00000E-45
9.09576E-01 1.00000E-45
9.12063E-01 1.00000E-45
9.14519E-01 1.00000E-45
9.16943E-01 1.00000E-45
9.19335E-01 1.00000E-45
9.21696E-01 1.00000E-45
9.24024E-01 1.00000E-45
9.26320E-01 1.00000E-45
9.28584E-01 1.00000E-45
9.30815E-01 1.00000E-45
9.33013E-01 1.00000E-45
9.35178E-01 1.00000E-45
9.37310E-01 1.00000E-45
9.39409E-01 1.00000E-45
9.41474E-01 1.00000E-45
9.43505E-01 1.00000E-45
9.45503E-01 1.00000E-45
9.47467E-01 1.00000E-45
9.49397E-01 1.00000E-45
9.51293E-01 1.00000E-45
9.53154E-01 1.00000E-45
9.54981E-01 1.00000E-45
9.56773E-01 1.00000E-45
9.58530E-01 1.00000E-45
9.60252E-01 1.00000E-45
9.61940E-01 1.00000E-45
9.63592E-01 1.00000E-45
9.65209E-01 1.00000E-45
9.66790E-01 1.00000E-45
9.68336E-01 1.00000E-45
9.69846E-01 1.00000E-45
9.71321E-01 1.00000E-45
9.72759E-01 1.00000E-45
9.74162E-01 1.00000E-45
9.75528E-01 1.00000E-45
9.76858E-01 1.00000E-45
9.78152E-01 1.00000E-45
9.79410E-01 1.00000E-45
9.80631E-01 1.00000E-45
9.81815E-01 1.00000E-45
9.82963E-01 1.00000E-45
9.84074E-01 1.00000E-45
9.85148E-01 1.00000E-45
9.86185E-01 1.00000E-45
9.87185E-01 1.00000E-45
9.88148E-01 1.00000E-45
9.89074E-01 1.00000E-45
9.89962E-01 1.00000E-45
9.90814E-01 1.00000E-45
9.91627E-01 1.00000E-45
9.92404E-01 1.00000E-45
9.93143E-01 1.00000E-45
9.93844E-01 1.00000E-45
9.94508E-01 1.00000E-45
9.95134E-01 1.00000E-45
9.95722E-01 1.00000E-45
9.96273E-01 1.00000E-45
9.96786E-01 1.00000E-45
9.97261E-01 1.00000E-45
9.97698E-01 1.00000E-45
9.98097E-01 1.00000E-45
9.98459E-01 1.00000E-45
9.98782E-01 1.00000E-45
9.99067E-01 1.00000E-45
9.99315E-01 1.00000E-45
9.99524E-01 1.00000E-45
9.99695E-01 1.00000E-45
9.99829E-01 1.00000E-45
9.99924E-01 1.00000E-45
9.99981E-01 1.00000E-45
1.00000E+00 1.00000E-45
