 #
 # Subroutine ELSEPA. Elastic scattering of electrons and positrons
 #                    by neutral atoms and positive ions
 #
 # Projectile: electron
 # Kinetic energy = 3.50000E+08 eV = 1.28623E+07 a.u.
 #
 # WARNING: High-energy factorization with free-atom DF screening.
 #          Absorption, polarization and exchange corrections are
 #          switched off.
 #          Phase shifts are calculated for the bare nucleus.
 #          Scattering amplitudes are not evaluated.
 #
 # Element: Mo,  Z =  42,  atomic weight = 9.59400E+01 g/mol
 #
 # Nuclear model: Fermi distribution
 #                Average radius = 4.89836E-13 cm
 #                Skin thickness = 5.46000E-14 cm
 #
 # Number of electrons = 42
 #
 # Total elastic cross section = 4.05683E-18 cm**2 = 1.44872E-01 a0**2
 # 1st transport cross section = 2.87094E-26 cm**2 = 1.02523E-09 a0**2
 # 2nd transport cross section = 8.60566E-26 cm**2 = 3.07314E-09 a0**2
 #
 #
 # Differential cross section:                       MU=(1-COS(THETA))/2
 #
 #  THETA        MU          DCS          DCS        Sherman      error
 #  (deg)                 (cm**2/sr)   (a0**2/sr)    function
 #----------------------------------------------------------------------
0.00000E+00 4.86313E-09
7.61557E-13 4.68700E-09
1.18994E-12 4.59287E-09
1.71346E-12 4.48230E-09
2.33225E-12 4.35739E-09
3.04617E-12 4.22110E-09
3.85530E-12 4.07541E-09
4.75964E-12 3.92294E-09
5.75917E-12 3.76631E-09
6.85391E-12 3.60678E-09
8.04379E-12 3.44701E-09
9.32893E-12 3.28858E-09
1.07092E-11 3.13215E-09
1.21847E-11 2.97971E-09
1.37554E-11 2.83174E-09
1.54213E-11 2.68867E-09
1.71823E-11 2.55162E-09
1.90386E-11 2.42024E-09
2.09900E-11 2.29495E-09
2.30367E-11 2.17620E-09
2.51785E-11 2.06306E-09
2.74156E-11 1.95614E-09
2.97478E-11 1.85533E-09
3.21752E-11 1.75960E-09
3.46979E-11 1.66959E-09
3.73157E-11 1.58476E-09
4.00286E-11 1.50451E-09
4.28368E-11 1.42918E-09
4.57402E-11 1.35804E-09
4.87388E-11 1.29090E-09
5.18325E-11 1.22790E-09
5.50215E-11 1.16817E-09
5.83057E-11 1.11194E-09
6.16850E-11 1.05911E-09
6.51595E-11 1.00882E-09
6.87293E-11 9.61553E-10
7.23943E-11 9.16956E-10
7.61544E-11 8.74560E-10
1.18991E-10 5.57130E-10
1.71347E-10 3.66633E-10
2.33223E-10 2.45351E-10
3.04617E-10 1.72345E-10
3.85531E-10 1.22990E-10
4.75965E-10 9.04181E-11
5.75917E-10 6.83146E-11
6.85389E-10 5.25428E-11
8.04380E-10 4.13446E-11
9.32891E-10 3.31411E-11
1.07092E-09 2.68949E-11
1.21847E-09 2.21439E-11
1.37554E-09 1.84196E-11
1.54213E-09 1.54344E-11
1.71823E-09 1.30523E-11
1.90386E-09 1.10907E-11
2.09900E-09 9.47530E-12
2.30367E-09 8.14607E-12
2.51785E-09 7.01949E-12
2.74156E-09 6.07901E-12
2.97478E-09 5.28834E-12
3.21752E-09 4.61034E-12
3.46978E-09 4.03755E-12
3.73156E-09 3.54795E-12
4.00286E-09 3.12669E-12
4.28368E-09 2.76618E-12
4.57402E-09 2.45458E-12
4.87388E-09 2.18451E-12
5.18326E-09 1.95054E-12
5.50215E-09 1.74635E-12
5.83057E-09 1.56837E-12
6.16850E-09 1.41274E-12
6.51596E-09 1.27576E-12
6.87293E-09 1.15530E-12
7.23942E-09 1.04889E-12
7.61544E-09 9.54494E-13
1.18991E-08 4.15936E-13
1.71347E-08 2.10845E-13
2.33223E-08 1.18043E-13
3.04617E-08 7.10142E-14
3.85531E-08 4.51423E-14
4.75965E-08 3.00059E-14
5.75917E-08 2.06869E-14
6.85389E-08 1.47162E-14
8.04380E-08 1.07497E-14
9.32891E-08 8.03416E-15
1.07092E-07 6.12529E-15
1.21847E-07 4.75150E-15
1.37554E-07 3.74279E-15
1.54213E-07 2.98841E-15
1.71823E-07 2.41512E-15
1.90386E-07 1.97312E-15
2.09900E-07 1.62783E-15
2.30367E-07 1.35496E-15
2.51785E-07 1.13695E-15
2.74156E-07 9.61102E-16
2.97478E-07 8.17984E-16
3.21752E-07 7.00531E-16
3.46978E-07 6.03426E-16
3.73156E-07 5.22569E-16
4.00286E-07 4.54808E-16
4.28368E-07 3.97678E-16
4.57402E-07 3.49235E-16
4.87388E-07 3.07946E-16
5.18325E-07 2.72577E-16
5.50215E-07 2.42139E-16
5.83057E-07 2.15830E-16
6.16850E-07 1.92996E-16
6.51596E-07 1.73101E-16
6.87293E-07 1.55702E-16
7.23942E-07 1.40434E-16
7.61543E-07 1.26990E-16
1.18991E-06 5.22519E-17
1.71347E-06 2.52614E-17
2.33223E-06 1.36560E-17
3.04617E-06 8.01284E-18
3.85531E-06 5.00590E-18
4.75964E-06 3.28612E-18
5.75916E-06 2.24542E-18
6.85388E-06 1.58598E-18
8.04378E-06 1.15181E-18
9.32888E-06 8.56564E-19
1.07092E-05 6.50151E-19
1.21846E-05 5.02341E-19
1.37553E-05 3.94254E-19
1.54212E-05 3.13741E-19
1.71822E-05 2.52774E-19
1.90385E-05 2.05890E-19
2.09899E-05 1.69459E-19
2.30365E-05 1.40735E-19
2.51783E-05 1.17836E-19
2.74153E-05 9.94019E-20
2.97475E-05 8.44309E-20
3.21749E-05 7.21757E-20
3.46974E-05 6.20684E-20
3.73152E-05 5.36741E-20
4.00281E-05 4.66550E-20
4.28362E-05 4.07485E-20
4.57395E-05 3.57480E-20
4.87380E-05 3.14912E-20
5.18317E-05 2.78487E-20
5.50205E-05 2.47175E-20
5.83045E-05 2.20141E-20
6.16838E-05 1.96707E-20
6.51582E-05 1.76313E-20
6.87277E-05 1.58502E-20
7.23925E-05 1.42887E-20
7.61524E-05 1.29292E-20
9.21439E-05 8.83481E-21
1.09658E-04 6.23989E-21
1.28695E-04 4.53152E-21
1.49255E-04 3.36930E-21
1.71338E-04 2.55676E-21
1.94942E-04 1.97476E-21
2.20070E-04 1.54912E-21
2.46720E-04 1.23205E-21
2.74892E-04 9.91915E-22
3.04586E-04 8.07405E-22
3.35803E-04 6.63730E-22
3.68542E-04 5.50528E-22
4.02802E-04 4.60363E-22
4.38585E-04 3.87834E-22
4.75889E-04 3.28967E-22
5.14715E-04 2.80786E-22
5.55063E-04 2.41052E-22
5.96931E-04 2.08050E-22
6.40321E-04 1.80459E-22
6.85233E-04 1.57252E-22
7.31665E-04 1.37619E-22
7.79618E-04 1.20923E-22
8.29092E-04 1.06653E-22
8.80086E-04 9.43994E-23
9.32601E-04 8.38311E-23
9.86636E-04 7.46785E-23
1.04219E-03 6.67212E-23
1.09927E-03 5.97774E-23
1.15786E-03 5.36970E-23
1.21797E-03 4.83550E-23
1.27961E-03 4.36470E-23
1.34276E-03 3.94855E-23
1.40743E-03 3.57965E-23
1.47362E-03 3.25178E-23
1.54133E-03 2.95960E-23
1.61056E-03 2.69861E-23
1.68131E-03 2.46493E-23
1.75357E-03 2.25522E-23
1.82735E-03 2.06664E-23
1.90265E-03 1.89671E-23
1.97947E-03 1.74328E-23
2.05780E-03 1.60449E-23
2.13765E-03 1.47872E-23
2.21902E-03 1.36455E-23
2.30190E-03 1.26074E-23
2.38630E-03 1.16619E-23
2.47222E-03 1.07995E-23
2.55965E-03 1.00117E-23
2.64859E-03 9.29110E-24
2.73905E-03 8.63098E-24
2.83103E-03 8.02549E-24
2.92452E-03 7.46940E-24
3.01952E-03 6.95805E-24
3.11604E-03 6.48729E-24
3.21407E-03 6.05340E-24
3.31362E-03 5.65305E-24
3.41468E-03 5.28324E-24
3.51725E-03 4.94130E-24
3.62133E-03 4.62480E-24
3.72692E-03 4.33158E-24
3.83403E-03 4.05966E-24
3.94265E-03 3.80727E-24
4.05278E-03 3.57280E-24
4.16442E-03 3.35479E-24
4.27757E-03 3.15192E-24
4.39223E-03 2.96298E-24
4.50840E-03 2.78689E-24
4.62608E-03 2.62264E-24
4.74527E-03 2.46933E-24
4.86597E-03 2.32613E-24
4.98817E-03 2.19227E-24
5.11188E-03 2.06708E-24
5.23711E-03 1.94990E-24
5.36383E-03 1.84015E-24
5.49207E-03 1.73731E-24
5.62181E-03 1.64088E-24
5.75306E-03 1.55041E-24
5.88581E-03 1.46549E-24
6.02007E-03 1.38572E-24
6.15583E-03 1.31076E-24
6.29310E-03 1.24028E-24
6.43187E-03 1.17398E-24
6.57214E-03 1.11158E-24
6.71392E-03 1.05283E-24
6.85720E-03 9.97483E-25
7.00198E-03 9.45322E-25
7.14827E-03 8.96141E-25
7.29605E-03 8.49750E-25
7.44534E-03 8.05974E-25
7.59612E-03 7.64649E-25
7.97965E-03 6.71082E-25
8.37255E-03 5.89802E-25
8.77480E-03 5.19041E-25
9.18641E-03 4.57314E-25
9.60736E-03 4.03367E-25
1.00376E-02 3.56136E-25
1.04773E-02 3.14718E-25
1.09262E-02 2.78342E-25
1.13844E-02 2.46350E-25
1.18520E-02 2.18177E-25
1.23288E-02 1.93337E-25
1.28150E-02 1.71411E-25
1.33104E-02 1.52038E-25
1.38150E-02 1.34904E-25
1.43290E-02 1.19738E-25
1.48521E-02 1.06302E-25
1.53845E-02 9.43920E-26
1.59262E-02 8.38271E-26
1.64770E-02 7.44503E-26
1.70371E-02 6.61237E-26
1.76063E-02 5.87266E-26
1.81848E-02 5.21528E-26
1.87724E-02 4.63089E-26
1.93692E-02 4.11124E-26
1.99751E-02 3.64909E-26
2.05901E-02 3.23802E-26
2.12143E-02 2.87234E-26
2.18476E-02 2.54705E-26
2.24900E-02 2.25769E-26
2.31415E-02 2.00032E-26
2.38021E-02 1.77142E-26
2.44717E-02 1.56790E-26
2.51504E-02 1.38698E-26
2.58382E-02 1.22620E-26
2.65349E-02 1.08337E-26
2.72407E-02 9.56530E-27
2.79555E-02 8.43949E-27
2.86793E-02 7.44074E-27
2.94120E-02 6.55520E-27
3.01537E-02 5.77053E-27
3.09043E-02 5.07570E-27
3.16639E-02 4.46087E-27
3.24324E-02 3.91727E-27
3.32098E-02 3.43705E-27
3.39961E-02 3.01319E-27
3.47912E-02 2.63945E-27
3.55952E-02 2.31024E-27
3.64081E-02 2.02056E-27
3.72297E-02 1.76596E-27
3.80602E-02 1.54246E-27
3.88995E-02 1.34652E-27
3.97476E-02 1.17497E-27
4.06044E-02 1.02498E-27
4.14700E-02 8.94032E-28
4.23443E-02 7.79891E-28
4.32273E-02 6.80558E-28
4.41190E-02 5.94256E-28
4.50194E-02 5.19403E-28
4.59284E-02 4.54597E-28
4.68461E-02 3.98592E-28
4.87074E-02 3.08688E-28
5.06030E-02 2.42282E-28
5.25328E-02 1.93588E-28
5.44967E-02 1.58109E-28
5.64946E-02 1.32373E-28
5.85262E-02 1.13723E-28
6.05914E-02 1.00140E-28
6.26901E-02 9.01089E-29
6.48222E-02 8.25087E-29
6.69873E-02 7.65208E-29
6.91854E-02 7.15612E-29
7.14163E-02 6.72237E-29
7.36799E-02 6.32359E-29
7.59760E-02 5.94243E-29
7.83043E-02 5.56878E-29
8.06647E-02 5.19758E-29
8.30571E-02 4.82730E-29
8.54812E-02 4.45867E-29
8.79369E-02 4.09380E-29
9.04240E-02 3.73548E-29
9.29422E-02 3.38677E-29
9.54915E-02 3.05060E-29
9.80716E-02 2.72962E-29
1.00682E-01 2.42604E-29
1.03323E-01 2.14159E-29
1.05995E-01 1.87747E-29
1.08696E-01 1.63441E-29
1.11427E-01 1.41266E-29
1.14188E-01 1.21210E-29
1.16978E-01 1.03224E-29
1.19797E-01 8.72293E-30
1.22645E-01 7.31272E-30
1.25522E-01 6.08006E-30
1.28428E-01 5.01208E-30
1.31361E-01 4.09518E-30
1.34323E-01 3.31546E-30
1.37313E-01 2.65903E-30
1.40330E-01 2.11230E-30
1.43375E-01 1.66219E-30
1.46447E-01 1.29632E-30
1.49545E-01 1.00314E-30
1.52671E-01 7.71965E-31
1.55823E-01 5.93090E-31
1.59001E-01 4.57758E-31
1.62205E-01 3.58171E-31
1.65435E-01 2.87464E-31
1.68690E-01 2.39660E-31
1.71970E-01 2.09619E-31
1.75276E-01 1.92974E-31
1.78606E-01 1.86070E-31
1.81961E-01 1.85888E-31
1.85340E-01 1.89984E-31
1.88743E-01 1.96413E-31
1.92169E-01 2.03671E-31
1.95619E-01 2.10630E-31
1.99092E-01 2.16479E-31
2.02589E-01 2.20673E-31
2.06107E-01 2.22888E-31
2.09649E-01 2.22971E-31
2.13212E-01 2.20908E-31
2.16797E-01 2.16791E-31
2.20404E-01 2.10786E-31
2.24032E-01 2.03112E-31
2.27680E-01 1.94021E-31
2.31350E-01 1.83779E-31
2.35040E-01 1.72656E-31
2.38751E-01 1.60915E-31
2.42481E-01 1.48802E-31
2.46231E-01 1.36545E-31
2.50000E-01 1.24347E-31
2.53788E-01 1.12383E-31
2.57595E-01 1.00804E-31
2.61421E-01 8.97297E-32
2.65264E-01 7.92583E-32
2.69126E-01 6.94611E-32
2.73005E-01 6.03874E-32
2.76901E-01 5.20664E-32
2.80814E-01 4.45093E-32
2.84744E-01 3.77122E-32
2.88691E-01 3.16580E-32
2.92653E-01 2.63191E-32
2.96632E-01 2.16596E-32
3.00625E-01 1.76371E-32
3.04634E-01 1.42048E-32
3.08658E-01 1.13131E-32
3.12697E-01 8.91080E-33
3.16749E-01 6.94674E-33
3.20816E-01 5.37047E-33
3.24896E-01 4.13329E-33
3.28990E-01 3.18882E-33
3.33097E-01 2.49357E-33
3.37216E-01 2.00723E-33
3.41348E-01 1.69298E-33
3.45492E-01 1.51754E-33
3.49647E-01 1.45126E-33
3.53814E-01 1.46800E-33
3.57992E-01 1.54508E-33
3.62181E-01 1.66308E-33
3.66381E-01 1.80565E-33
3.70590E-01 1.95926E-33
3.74810E-01 2.11299E-33
3.79039E-01 2.25824E-33
3.83277E-01 2.38849E-33
3.87524E-01 2.49903E-33
3.91780E-01 2.58674E-33
3.96044E-01 2.64982E-33
4.00316E-01 2.68761E-33
4.04596E-01 2.70035E-33
4.08882E-01 2.68902E-33
4.13176E-01 2.65517E-33
4.17476E-01 2.60076E-33
4.21783E-01 2.52804E-33
4.26095E-01 2.43944E-33
4.30413E-01 2.33747E-33
4.34737E-01 2.22464E-33
4.39065E-01 2.10341E-33
4.43398E-01 1.97612E-33
4.47736E-01 1.84497E-33
4.52077E-01 1.71196E-33
4.56422E-01 1.57892E-33
4.60770E-01 1.44746E-33
4.65122E-01 1.31896E-33
4.69476E-01 1.19462E-33
4.73832E-01 1.07540E-33
4.78190E-01 9.62102E-34
4.82550E-01 8.55311E-34
4.86912E-01 7.55457E-34
4.91274E-01 6.62813E-34
4.95637E-01 5.77515E-34
5.00000E-01 4.99576E-34
5.04363E-01 4.28905E-34
5.08726E-01 3.65321E-34
5.13088E-01 3.08570E-34
5.17450E-01 2.58339E-34
5.21810E-01 2.14267E-34
5.26168E-01 1.75961E-34
5.30524E-01 1.43004E-34
5.34878E-01 1.14967E-34
5.39230E-01 9.14144E-35
5.43578E-01 7.19142E-35
5.47923E-01 5.60430E-35
5.52264E-01 4.33913E-35
5.56602E-01 3.35673E-35
5.60935E-01 2.62008E-35
5.65263E-01 2.09446E-35
5.69587E-01 1.74769E-35
5.73905E-01 1.55021E-35
5.78217E-01 1.47511E-35
5.82524E-01 1.49810E-35
5.86824E-01 1.59752E-35
5.91118E-01 1.75420E-35
5.95404E-01 1.95140E-35
5.99684E-01 2.17463E-35
6.03956E-01 2.41156E-35
6.08220E-01 2.65181E-35
6.12476E-01 2.88682E-35
6.16723E-01 3.10970E-35
6.20961E-01 3.31501E-35
6.25190E-01 3.49866E-35
6.29410E-01 3.65773E-35
6.33619E-01 3.79030E-35
6.37819E-01 3.89535E-35
6.42008E-01 3.97259E-35
6.46186E-01 4.02236E-35
6.50353E-01 4.04552E-35
6.54508E-01 4.04333E-35
6.58652E-01 4.01739E-35
6.62784E-01 3.96950E-35
6.66903E-01 3.90166E-35
6.71010E-01 3.81598E-35
6.75104E-01 3.71458E-35
6.79184E-01 3.59961E-35
6.83251E-01 3.47321E-35
6.87303E-01 3.33740E-35
6.91342E-01 3.19414E-35
6.95366E-01 3.04530E-35
6.99375E-01 2.89259E-35
7.03368E-01 2.73759E-35
7.07347E-01 2.58176E-35
7.11309E-01 2.42641E-35
7.15256E-01 2.27269E-35
7.19186E-01 2.12162E-35
7.23099E-01 1.97409E-35
7.26995E-01 1.83085E-35
7.30874E-01 1.69252E-35
7.34736E-01 1.55961E-35
7.38579E-01 1.43252E-35
7.42405E-01 1.31154E-35
7.46212E-01 1.19690E-35
7.50000E-01 1.08870E-35
7.53769E-01 9.87010E-36
7.57519E-01 8.91812E-36
7.61249E-01 8.03037E-36
7.64960E-01 7.20567E-36
7.68650E-01 6.44244E-36
7.72320E-01 5.73873E-36
7.75968E-01 5.09233E-36
7.79596E-01 4.50079E-36
7.83203E-01 3.96153E-36
7.86788E-01 3.47180E-36
7.90351E-01 3.02882E-36
7.93893E-01 2.62972E-36
7.97411E-01 2.27166E-36
8.00908E-01 1.95182E-36
8.04381E-01 1.66741E-36
8.07831E-01 1.41573E-36
8.11257E-01 1.19414E-36
8.14660E-01 1.00011E-36
8.18039E-01 8.31222E-37
8.21394E-01 6.85175E-37
8.24724E-01 5.59786E-37
8.28030E-01 4.53002E-37
8.31310E-01 3.62896E-37
8.34565E-01 2.87672E-37
8.37795E-01 2.25661E-37
8.40999E-01 1.75318E-37
8.44177E-01 1.35219E-37
8.47329E-01 1.04059E-37
8.50455E-01 8.06477E-38
8.53553E-01 6.38988E-38
8.56625E-01 5.28308E-38
8.59670E-01 4.65583E-38
8.62687E-01 4.42865E-38
8.65677E-01 4.53056E-38
8.68639E-01 4.89848E-38
8.71572E-01 5.47666E-38
8.74478E-01 6.21606E-38
8.77355E-01 7.07395E-38
8.80203E-01 8.01318E-38
8.83022E-01 9.00181E-38
8.85812E-01 1.00126E-37
8.88573E-01 1.10226E-37
8.91304E-01 1.20125E-37
8.94005E-01 1.29666E-37
8.96677E-01 1.38721E-37
8.99318E-01 1.47190E-37
9.01928E-01 1.54996E-37
9.04508E-01 1.62083E-37
9.07058E-01 1.68412E-37
9.09576E-01 1.73961E-37
9.12063E-01 1.78721E-37
9.14519E-01 1.82693E-37
9.16943E-01 1.85889E-37
9.19335E-01 1.88329E-37
9.21696E-01 1.90036E-37
9.24024E-01 1.91043E-37
9.26320E-01 1.91382E-37
9.28584E-01 1.91093E-37
9.30815E-01 1.90214E-37
9.33013E-01 1.88786E-37
9.35178E-01 1.86851E-37
9.37310E-01 1.84450E-37
9.39409E-01 1.81624E-37
9.41474E-01 1.78415E-37
9.43505E-01 1.74862E-37
9.45503E-01 1.71004E-37
9.47467E-01 1.66877E-37
9.49397E-01 1.62518E-37
9.51293E-01 1.57959E-37
9.53154E-01 1.53233E-37
9.54981E-01 1.48371E-37
9.56773E-01 1.43400E-37
9.58530E-01 1.38346E-37
9.60252E-01 1.33235E-37
9.61940E-01 1.28090E-37
9.63592E-01 1.22931E-37
9.65209E-01 1.17778E-37
9.66790E-01 1.12647E-37
9.68336E-01 1.07556E-37
9.69846E-01 1.02518E-37
9.71321E-01 9.75472E-38
9.72759E-01 9.26541E-38
9.74162E-01 8.78498E-38
9.75528E-01 8.31415E-38
9.76858E-01 7.85388E-38
9.78152E-01 7.40476E-38
9.79410E-01 6.96739E-38
9.80631E-01 6.54226E-38
9.81815E-01 6.12988E-38
9.82963E-01 5.73044E-38
9.84074E-01 5.34432E-38
9.85148E-01 4.97163E-38
9.86185E-01 4.61268E-38
9.87185E-01 4.26743E-38
9.88148E-01 3.93613E-38
9.89074E-01 3.61865E-38
9.89962E-01 3.31510E-38
9.90814E-01 3.02551E-38
9.91627E-01 2.74974E-38
9.92404E-01 2.48782E-38
9.93143E-01 2.23962E-38
9.93844E-01 2.00513E-38
9.94508E-01 1.78416E-38
9.95134E-01 1.57672E-38
9.95722E-01 1.38264E-38
9.96273E-01 1.20178E-38
9.96786E-01 1.03406E-38
9.97261E-01 8.79362E-39
9.97698E-01 7.37565E-39
9.98097E-01 6.08552E-39
9.98459E-01 4.92241E-39
9.98782E-01 3.88481E-39
9.99067E-01 2.97189E-39
9.99315E-01 2.18233E-39
9.99524E-01 1.51610E-39
9.99695E-01 9.71846E-40
9.99829E-01 5.49103E-40
9.99924E-01 2.47558E-40
9.99981E-01 6.68833E-41
1.00000E+00 7.76472E-42
