 #
 # Subroutine ELSEPA. Elastic scattering of electrons and positrons
 #                    by neutral atoms and positive ions
 #
 # Projectile: electron
 # Kinetic energy = 8.00000E+06 eV = 2.93995E+05 a.u.
 #
 # WARNING: High-energy factorization with free-atom DF screening.
 #          Absorption, polarization and exchange corrections are
 #          switched off.
 #          Phase shifts are calculated for the bare nucleus.
 #          Scattering amplitudes are not evaluated.
 #
 # Element: Mo,  Z =  42,  atomic weight = 9.59400E+01 g/mol
 #
 # Nuclear model: Fermi distribution
 #                Average radius = 4.89836E-13 cm
 #                Skin thickness = 5.46000E-14 cm
 #
 # Number of electrons = 42
 #
 # Total elastic cross section = 4.07652E-18 cm**2 = 1.45575E-01 a0**2
 # 1st transport cross section = 4.12189E-23 cm**2 = 1.47195E-06 a0**2
 # 2nd transport cross section = 1.16423E-22 cm**2 = 4.15755E-06 a0**2
 #
 #
 # Differential cross section:                       MU=(1-COS(THETA))/2
 #
 #  THETA        MU          DCS          DCS        Sherman      error
 #  (deg)                 (cm**2/sr)   (a0**2/sr)    function
 #----------------------------------------------------------------------
0.00000E+00 2.86730E-12
7.61557E-13 2.86724E-12
1.18994E-12 2.86721E-12
1.71346E-12 2.86716E-12
2.33225E-12 2.86711E-12
3.04617E-12 2.86705E-12
3.85530E-12 2.86698E-12
4.75964E-12 2.86691E-12
5.75917E-12 2.86683E-12
6.85391E-12 2.86674E-12
8.04379E-12 2.86664E-12
9.32893E-12 2.86653E-12
1.07092E-11 2.86642E-12
1.21847E-11 2.86629E-12
1.37554E-11 2.86616E-12
1.54213E-11 2.86603E-12
1.71823E-11 2.86588E-12
1.90386E-11 2.86573E-12
2.09900E-11 2.86557E-12
2.30367E-11 2.86540E-12
2.51785E-11 2.86522E-12
2.74156E-11 2.86503E-12
2.97478E-11 2.86484E-12
3.21752E-11 2.86464E-12
3.46979E-11 2.86443E-12
3.73157E-11 2.86422E-12
4.00286E-11 2.86399E-12
4.28368E-11 2.86376E-12
4.57402E-11 2.86352E-12
4.87388E-11 2.86327E-12
5.18325E-11 2.86302E-12
5.50215E-11 2.86275E-12
5.83057E-11 2.86248E-12
6.16850E-11 2.86220E-12
6.51595E-11 2.86192E-12
6.87293E-11 2.86162E-12
7.23943E-11 2.86132E-12
7.61544E-11 2.86101E-12
1.18991E-10 2.85749E-12
1.71347E-10 2.85319E-12
2.33223E-10 2.84812E-12
3.04617E-10 2.84230E-12
3.85531E-10 2.83572E-12
4.75965E-10 2.82840E-12
5.75917E-10 2.82036E-12
6.85389E-10 2.81159E-12
8.04380E-10 2.80211E-12
9.32891E-10 2.79194E-12
1.07092E-09 2.78109E-12
1.21847E-09 2.76957E-12
1.37554E-09 2.75740E-12
1.54213E-09 2.74460E-12
1.71823E-09 2.73118E-12
1.90386E-09 2.71716E-12
2.09900E-09 2.70256E-12
2.30367E-09 2.68739E-12
2.51785E-09 2.67168E-12
2.74156E-09 2.65545E-12
2.97478E-09 2.63871E-12
3.21752E-09 2.62147E-12
3.46978E-09 2.60373E-12
3.73156E-09 2.58556E-12
4.00286E-09 2.56699E-12
4.28368E-09 2.54804E-12
4.57402E-09 2.52873E-12
4.87388E-09 2.50909E-12
5.18326E-09 2.48901E-12
5.50215E-09 2.46859E-12
5.83057E-09 2.44791E-12
6.16850E-09 2.42697E-12
6.51596E-09 2.40580E-12
6.87293E-09 2.38443E-12
7.23942E-09 2.36282E-12
7.61544E-09 2.34089E-12
1.18991E-08 2.11554E-12
1.71347E-08 1.88879E-12
2.33223E-08 1.67263E-12
3.04617E-08 1.47387E-12
3.85531E-08 1.29603E-12
4.75965E-08 1.13901E-12
5.75917E-08 1.00230E-12
6.85389E-08 8.83317E-13
8.04380E-08 7.80463E-13
9.32891E-08 6.91179E-13
1.07092E-07 6.13765E-13
1.21847E-07 5.46377E-13
1.37554E-07 4.87552E-13
1.54213E-07 4.36122E-13
1.71823E-07 3.90891E-13
1.90386E-07 3.51178E-13
2.09900E-07 3.16007E-13
2.30367E-07 2.84986E-13
2.51785E-07 2.57399E-13
2.74156E-07 2.32937E-13
2.97478E-07 2.11131E-13
3.21752E-07 1.91471E-13
3.46978E-07 1.73045E-13
3.73156E-07 1.57069E-13
4.00286E-07 1.43155E-13
4.28368E-07 1.30988E-13
4.57402E-07 1.20304E-13
4.87388E-07 1.10886E-13
5.18325E-07 1.01721E-13
5.50215E-07 9.32958E-14
5.83057E-07 8.58328E-14
6.16850E-07 7.92004E-14
6.51596E-07 7.32874E-14
6.87293E-07 6.79997E-14
7.23942E-07 6.31569E-14
7.61543E-07 5.85185E-14
1.18991E-06 3.01081E-14
1.71347E-06 1.74261E-14
2.33223E-06 1.09362E-14
3.04617E-06 7.22069E-15
3.85531E-06 4.94546E-15
4.75964E-06 3.47031E-15
5.75916E-06 2.49432E-15
6.85388E-06 1.82735E-15
8.04378E-06 1.36621E-15
9.32888E-06 1.03938E-15
1.07092E-05 8.04722E-16
1.21846E-05 6.33053E-16
1.37553E-05 5.05228E-16
1.54212E-05 4.08447E-16
1.71822E-05 3.34007E-16
1.90385E-05 2.75964E-16
2.09899E-05 2.30235E-16
2.30365E-05 1.93716E-16
2.51783E-05 1.64192E-16
2.74153E-05 1.40107E-16
2.97475E-05 1.20277E-16
3.21749E-05 1.03822E-16
3.46974E-05 9.00478E-17
3.73152E-05 7.85566E-17
4.00281E-05 6.88118E-17
4.28362E-05 6.05191E-17
4.57395E-05 5.34729E-17
4.87380E-05 4.73612E-17
5.18317E-05 4.21165E-17
5.50205E-05 3.75723E-17
5.83045E-05 3.36097E-17
6.16838E-05 3.01669E-17
6.51582E-05 2.71381E-17
6.87277E-05 2.44827E-17
7.23925E-05 2.21460E-17
7.61524E-05 2.00742E-17
9.21439E-05 1.38612E-17
1.09658E-04 9.86846E-18
1.28695E-04 7.21568E-18
1.49255E-04 5.39689E-18
1.71338E-04 4.11768E-18
1.94942E-04 3.19652E-18
2.20070E-04 2.51966E-18
2.46720E-04 2.01328E-18
2.74892E-04 1.62818E-18
3.04586E-04 1.33117E-18
3.35803E-04 1.09900E-18
3.68542E-04 9.15443E-19
4.02802E-04 7.68713E-19
4.38585E-04 6.50298E-19
4.75889E-04 5.53867E-19
5.14715E-04 4.74693E-19
5.55063E-04 4.09196E-19
5.96931E-04 3.54630E-19
6.40321E-04 3.08877E-19
6.85233E-04 2.70278E-19
7.31665E-04 2.37535E-19
7.79618E-04 2.09607E-19
8.29092E-04 1.85672E-19
8.80086E-04 1.65061E-19
9.32601E-04 1.47237E-19
9.86636E-04 1.31758E-19
1.04219E-03 1.18264E-19
1.09927E-03 1.06457E-19
1.15786E-03 9.60891E-20
1.21797E-03 8.69556E-20
1.27961E-03 7.88834E-20
1.34276E-03 7.17286E-20
1.40743E-03 6.53680E-20
1.47362E-03 5.96988E-20
1.54133E-03 5.46321E-20
1.61056E-03 5.00930E-20
1.68131E-03 4.60166E-20
1.75357E-03 4.23476E-20
1.82735E-03 3.90380E-20
1.90265E-03 3.60462E-20
1.97947E-03 3.33365E-20
2.05780E-03 3.08773E-20
2.13765E-03 2.86414E-20
2.21902E-03 2.66048E-20
2.30190E-03 2.47467E-20
2.38630E-03 2.30485E-20
2.47222E-03 2.14939E-20
2.55965E-03 2.00687E-20
2.64859E-03 1.87601E-20
2.73905E-03 1.75568E-20
2.83103E-03 1.64488E-20
2.92452E-03 1.54271E-20
3.01952E-03 1.44839E-20
3.11604E-03 1.36120E-20
3.21407E-03 1.28049E-20
3.31362E-03 1.20570E-20
3.41468E-03 1.13632E-20
3.51725E-03 1.07188E-20
3.62133E-03 1.01196E-20
3.72692E-03 9.56190E-21
3.83403E-03 9.04229E-21
3.94265E-03 8.55763E-21
4.05278E-03 8.10519E-21
4.16442E-03 7.68240E-21
4.27757E-03 7.28694E-21
4.39223E-03 6.91675E-21
4.50840E-03 6.56988E-21
4.62608E-03 6.24460E-21
4.74527E-03 5.93932E-21
4.86597E-03 5.65255E-21
4.98817E-03 5.38299E-21
5.11188E-03 5.12939E-21
5.23711E-03 4.89064E-21
5.36383E-03 4.66570E-21
5.49207E-03 4.45361E-21
5.62181E-03 4.25351E-21
5.75306E-03 4.06460E-21
5.88581E-03 3.88611E-21
6.02007E-03 3.71738E-21
6.15583E-03 3.55776E-21
6.29310E-03 3.40667E-21
6.43187E-03 3.26357E-21
6.57214E-03 3.12795E-21
6.71392E-03 2.99935E-21
6.85720E-03 2.87734E-21
7.00198E-03 2.76151E-21
7.14827E-03 2.65148E-21
7.29605E-03 2.54692E-21
7.44534E-03 2.44750E-21
7.59612E-03 2.35292E-21
7.97965E-03 2.13583E-21
8.37255E-03 1.94338E-21
8.77480E-03 1.77226E-21
9.18641E-03 1.61971E-21
9.60736E-03 1.48334E-21
1.00376E-02 1.36112E-21
1.04773E-02 1.25134E-21
1.09262E-02 1.15248E-21
1.13844E-02 1.06327E-21
1.18520E-02 9.82599E-22
1.23288E-02 9.09496E-22
1.28150E-02 8.43122E-22
1.33104E-02 7.82744E-22
1.38150E-02 7.27722E-22
1.43290E-02 6.77491E-22
1.48521E-02 6.31559E-22
1.53845E-02 5.89488E-22
1.59262E-02 5.50894E-22
1.64770E-02 5.15436E-22
1.70371E-02 4.82812E-22
1.76063E-02 4.52753E-22
1.81848E-02 4.25019E-22
1.87724E-02 3.99397E-22
1.93692E-02 3.75696E-22
1.99751E-02 3.53743E-22
2.05901E-02 3.33387E-22
2.12143E-02 3.14489E-22
2.18476E-02 2.96924E-22
2.24900E-02 2.80581E-22
2.31415E-02 2.65359E-22
2.38021E-02 2.51166E-22
2.44717E-02 2.37919E-22
2.51504E-02 2.25543E-22
2.58382E-02 2.13969E-22
2.65349E-02 2.03137E-22
2.72407E-02 1.92988E-22
2.79555E-02 1.83472E-22
2.86793E-02 1.74542E-22
2.94120E-02 1.66155E-22
3.01537E-02 1.58271E-22
3.09043E-02 1.50854E-22
3.16639E-02 1.43871E-22
3.24324E-02 1.37292E-22
3.32098E-02 1.31088E-22
3.39961E-02 1.25235E-22
3.47912E-02 1.19709E-22
3.55952E-02 1.14488E-22
3.64081E-02 1.09551E-22
3.72297E-02 1.04880E-22
3.80602E-02 1.00459E-22
3.88995E-02 9.62708E-23
3.97476E-02 9.23007E-23
4.06044E-02 8.85356E-23
4.14700E-02 8.49626E-23
4.23443E-02 8.15700E-23
4.32273E-02 7.83470E-23
4.41190E-02 7.52834E-23
4.50194E-02 7.23698E-23
4.59284E-02 6.95973E-23
4.68461E-02 6.69577E-23
4.87074E-02 6.20474E-23
5.06030E-02 5.75836E-23
5.25328E-02 5.35183E-23
5.44967E-02 4.98092E-23
5.64946E-02 4.64190E-23
5.85262E-02 4.33153E-23
6.05914E-02 4.04693E-23
6.26901E-02 3.78556E-23
6.48222E-02 3.54514E-23
6.69873E-02 3.32369E-23
6.91854E-02 3.11942E-23
7.14163E-02 2.93075E-23
7.36799E-02 2.75626E-23
7.59760E-02 2.59466E-23
7.83043E-02 2.44484E-23
8.06647E-02 2.30577E-23
8.30571E-02 2.17653E-23
8.54812E-02 2.05628E-23
8.79369E-02 1.94428E-23
9.04240E-02 1.83987E-23
9.29422E-02 1.74241E-23
9.54915E-02 1.65136E-23
9.80716E-02 1.56622E-23
1.00682E-01 1.48653E-23
1.03323E-01 1.41187E-23
1.05995E-01 1.34186E-23
1.08696E-01 1.27616E-23
1.11427E-01 1.21444E-23
1.14188E-01 1.15643E-23
1.16978E-01 1.10186E-23
1.19797E-01 1.05047E-23
1.22645E-01 1.00205E-23
1.25522E-01 9.56395E-24
1.28428E-01 9.13316E-24
1.31361E-01 8.72634E-24
1.34323E-01 8.34194E-24
1.37313E-01 7.97853E-24
1.40330E-01 7.63467E-24
1.43375E-01 7.30904E-24
1.46447E-01 7.00064E-24
1.49545E-01 6.70831E-24
1.52671E-01 6.43098E-24
1.55823E-01 6.16781E-24
1.59001E-01 5.91793E-24
1.62205E-01 5.68051E-24
1.65435E-01 5.45481E-24
1.68690E-01 5.24014E-24
1.71970E-01 5.03588E-24
1.75276E-01 4.84139E-24
1.78606E-01 4.65612E-24
1.81961E-01 4.47956E-24
1.85340E-01 4.31122E-24
1.88743E-01 4.15063E-24
1.92169E-01 3.99737E-24
1.95619E-01 3.85103E-24
1.99092E-01 3.71126E-24
2.02589E-01 3.57768E-24
2.06107E-01 3.44997E-24
2.09649E-01 3.32784E-24
2.13212E-01 3.21098E-24
2.16797E-01 3.09911E-24
2.20404E-01 2.99200E-24
2.24032E-01 2.88939E-24
2.27680E-01 2.79106E-24
2.31350E-01 2.69679E-24
2.35040E-01 2.60639E-24
2.38751E-01 2.51966E-24
2.42481E-01 2.43643E-24
2.46231E-01 2.35653E-24
2.50000E-01 2.27980E-24
2.53788E-01 2.20609E-24
2.57595E-01 2.13525E-24
2.61421E-01 2.06716E-24
2.65264E-01 2.00169E-24
2.69126E-01 1.93871E-24
2.73005E-01 1.87811E-24
2.76901E-01 1.81979E-24
2.80814E-01 1.76364E-24
2.84744E-01 1.70957E-24
2.88691E-01 1.65748E-24
2.92653E-01 1.60730E-24
2.96632E-01 1.55892E-24
3.00625E-01 1.51229E-24
3.04634E-01 1.46732E-24
3.08658E-01 1.42394E-24
3.12697E-01 1.38208E-24
3.16749E-01 1.34169E-24
3.20816E-01 1.30270E-24
3.24896E-01 1.26505E-24
3.28990E-01 1.22868E-24
3.33097E-01 1.19356E-24
3.37216E-01 1.15962E-24
3.41348E-01 1.12681E-24
3.45492E-01 1.09510E-24
3.49647E-01 1.06444E-24
3.53814E-01 1.03478E-24
3.57992E-01 1.00609E-24
3.62181E-01 9.78339E-25
3.66381E-01 9.51478E-25
3.70590E-01 9.25478E-25
3.74810E-01 9.00306E-25
3.79039E-01 8.75931E-25
3.83277E-01 8.52323E-25
3.87524E-01 8.29452E-25
3.91780E-01 8.07293E-25
3.96044E-01 7.85818E-25
4.00316E-01 7.65002E-25
4.04596E-01 7.44822E-25
4.08882E-01 7.25255E-25
4.13176E-01 7.06278E-25
4.17476E-01 6.87871E-25
4.21783E-01 6.70012E-25
4.26095E-01 6.52684E-25
4.30413E-01 6.35867E-25
4.34737E-01 6.19543E-25
4.39065E-01 6.03696E-25
4.43398E-01 5.88309E-25
4.47736E-01 5.73365E-25
4.52077E-01 5.58851E-25
4.56422E-01 5.44751E-25
4.60770E-01 5.31052E-25
4.65122E-01 5.17740E-25
4.69476E-01 5.04802E-25
4.73832E-01 4.92226E-25
4.78190E-01 4.80000E-25
4.82550E-01 4.68112E-25
4.86912E-01 4.56552E-25
4.91274E-01 4.45309E-25
4.95637E-01 4.34372E-25
5.00000E-01 4.23732E-25
5.04363E-01 4.13380E-25
5.08726E-01 4.03305E-25
5.13088E-01 3.93500E-25
5.17450E-01 3.83957E-25
5.21810E-01 3.74666E-25
5.26168E-01 3.65620E-25
5.30524E-01 3.56811E-25
5.34878E-01 3.48233E-25
5.39230E-01 3.39878E-25
5.43578E-01 3.31739E-25
5.47923E-01 3.23810E-25
5.52264E-01 3.16085E-25
5.56602E-01 3.08557E-25
5.60935E-01 3.01220E-25
5.65263E-01 2.94070E-25
5.69587E-01 2.87100E-25
5.73905E-01 2.80305E-25
5.78217E-01 2.73680E-25
5.82524E-01 2.67219E-25
5.86824E-01 2.60920E-25
5.91118E-01 2.54775E-25
5.95404E-01 2.48783E-25
5.99684E-01 2.42936E-25
6.03956E-01 2.37233E-25
6.08220E-01 2.31669E-25
6.12476E-01 2.26239E-25
6.16723E-01 2.20940E-25
6.20961E-01 2.15768E-25
6.25190E-01 2.10721E-25
6.29410E-01 2.05794E-25
6.33619E-01 2.00984E-25
6.37819E-01 1.96288E-25
6.42008E-01 1.91703E-25
6.46186E-01 1.87225E-25
6.50353E-01 1.82853E-25
6.54508E-01 1.78582E-25
6.58652E-01 1.74412E-25
6.62784E-01 1.70337E-25
6.66903E-01 1.66357E-25
6.71010E-01 1.62469E-25
6.75104E-01 1.58670E-25
6.79184E-01 1.54958E-25
6.83251E-01 1.51331E-25
6.87303E-01 1.47786E-25
6.91342E-01 1.44322E-25
6.95366E-01 1.40936E-25
6.99375E-01 1.37627E-25
7.03368E-01 1.34392E-25
7.07347E-01 1.31229E-25
7.11309E-01 1.28137E-25
7.15256E-01 1.25114E-25
7.19186E-01 1.22158E-25
7.23099E-01 1.19268E-25
7.26995E-01 1.16442E-25
7.30874E-01 1.13678E-25
7.34736E-01 1.10975E-25
7.38579E-01 1.08331E-25
7.42405E-01 1.05745E-25
7.46212E-01 1.03216E-25
7.50000E-01 1.00742E-25
7.53769E-01 9.83213E-26
7.57519E-01 9.59535E-26
7.61249E-01 9.36369E-26
7.64960E-01 9.13704E-26
7.68650E-01 8.91529E-26
7.72320E-01 8.69830E-26
7.75968E-01 8.48599E-26
7.79596E-01 8.27822E-26
7.83203E-01 8.07491E-26
7.86788E-01 7.87595E-26
7.90351E-01 7.68124E-26
7.93893E-01 7.49068E-26
7.97411E-01 7.30417E-26
8.00908E-01 7.12164E-26
8.04381E-01 6.94298E-26
8.07831E-01 6.76811E-26
8.11257E-01 6.59695E-26
8.14660E-01 6.42942E-26
8.18039E-01 6.26542E-26
8.21394E-01 6.10490E-26
8.24724E-01 5.94777E-26
8.28030E-01 5.79396E-26
8.31310E-01 5.64339E-26
8.34565E-01 5.49600E-26
8.37795E-01 5.35172E-26
8.40999E-01 5.21048E-26
8.44177E-01 5.07222E-26
8.47329E-01 4.93688E-26
8.50455E-01 4.80440E-26
8.53553E-01 4.67470E-26
8.56625E-01 4.54775E-26
8.59670E-01 4.42348E-26
8.62687E-01 4.30184E-26
8.65677E-01 4.18277E-26
8.68639E-01 4.06622E-26
8.71572E-01 3.95215E-26
8.74478E-01 3.84049E-26
8.77355E-01 3.73121E-26
8.80203E-01 3.62426E-26
8.83022E-01 3.51959E-26
8.85812E-01 3.41716E-26
8.88573E-01 3.31692E-26
8.91304E-01 3.21884E-26
8.94005E-01 3.12286E-26
8.96677E-01 3.02896E-26
8.99318E-01 2.93709E-26
9.01928E-01 2.84721E-26
9.04508E-01 2.75929E-26
9.07058E-01 2.67330E-26
9.09576E-01 2.58919E-26
9.12063E-01 2.50693E-26
9.14519E-01 2.42650E-26
9.16943E-01 2.34785E-26
9.19335E-01 2.27095E-26
9.21696E-01 2.19579E-26
9.24024E-01 2.12231E-26
9.26320E-01 2.05051E-26
9.28584E-01 1.98034E-26
9.30815E-01 1.91178E-26
9.33013E-01 1.84481E-26
9.35178E-01 1.77939E-26
9.37310E-01 1.71551E-26
9.39409E-01 1.65314E-26
9.41474E-01 1.59224E-26
9.43505E-01 1.53281E-26
9.45503E-01 1.47482E-26
9.47467E-01 1.41824E-26
9.49397E-01 1.36306E-26
9.51293E-01 1.30925E-26
9.53154E-01 1.25679E-26
9.54981E-01 1.20566E-26
9.56773E-01 1.15585E-26
9.58530E-01 1.10733E-26
9.60252E-01 1.06010E-26
9.61940E-01 1.01412E-26
9.63592E-01 9.69380E-27
9.65209E-01 9.25869E-27
9.66790E-01 8.83569E-27
9.68336E-01 8.42462E-27
9.69846E-01 8.02535E-27
9.71321E-01 7.63773E-27
9.72759E-01 7.26162E-27
9.74162E-01 6.89687E-27
9.75528E-01 6.54336E-27
9.76858E-01 6.20095E-27
9.78152E-01 5.86954E-27
9.79410E-01 5.54898E-27
9.80631E-01 5.23918E-27
9.81815E-01 4.94002E-27
9.82963E-01 4.65139E-27
9.84074E-01 4.37318E-27
9.85148E-01 4.10530E-27
9.86185E-01 3.84766E-27
9.87185E-01 3.60016E-27
9.88148E-01 3.36271E-27
9.89074E-01 3.13523E-27
9.89962E-01 2.91764E-27
9.90814E-01 2.70987E-27
9.91627E-01 2.51183E-27
9.92404E-01 2.32346E-27
9.93143E-01 2.14469E-27
9.93844E-01 1.97546E-27
9.94508E-01 1.81572E-27
9.95134E-01 1.66539E-27
9.95722E-01 1.52444E-27
9.96273E-01 1.39281E-27
9.96786E-01 1.27046E-27
9.97261E-01 1.15734E-27
9.97698E-01 1.05341E-27
9.98097E-01 9.58647E-28
9.98459E-01 8.73003E-28
9.98782E-01 7.96455E-28
9.99067E-01 7.28975E-28
9.99315E-01 6.70539E-28
9.99524E-01 6.21128E-28
9.99695E-01 5.80724E-28
9.99829E-01 5.49314E-28
9.99924E-01 5.26885E-28
9.99981E-01 5.13431E-28
1.00000E+00 5.08947E-28
