 #
 # Subroutine ELSEPA. Elastic scattering of electrons and positrons
 #                    by neutral atoms and positive ions
 #
 # Projectile: electron
 # Kinetic energy = 4.00000E+06 eV = 1.46997E+05 a.u.
 #
 # WARNING: High-energy factorization with free-atom DF screening.
 #          Absorption, polarization and exchange corrections are
 #          switched off.
 #          Phase shifts are calculated for the bare nucleus.
 #          Scattering amplitudes are not evaluated.
 #
 # Element: Mo,  Z =  42,  atomic weight = 9.59400E+01 g/mol
 #
 # Nuclear model: Fermi distribution
 #                Average radius = 4.89836E-13 cm
 #                Skin thickness = 5.46000E-14 cm
 #
 # Number of electrons = 42
 #
 # Total elastic cross section = 4.11557E-18 cm**2 = 1.46969E-01 a0**2
 # 1st transport cross section = 1.35263E-22 cm**2 = 4.83033E-06 a0**2
 # 2nd transport cross section = 3.78732E-22 cm**2 = 1.35248E-05 a0**2
 #
 #
 # Differential cross section:                       MU=(1-COS(THETA))/2
 #
 #  THETA        MU          DCS          DCS        Sherman      error
 #  (deg)                 (cm**2/sr)   (a0**2/sr)    function
 #----------------------------------------------------------------------
0.00000E+00 8.05486E-13
7.61557E-13 8.05482E-13
1.18994E-12 8.05479E-13
1.71346E-12 8.05476E-13
2.33225E-12 8.05472E-13
3.04617E-12 8.05467E-13
3.85530E-12 8.05462E-13
4.75964E-12 8.05456E-13
5.75917E-12 8.05449E-13
6.85391E-12 8.05442E-13
8.04379E-12 8.05435E-13
9.32893E-12 8.05427E-13
1.07092E-11 8.05418E-13
1.21847E-11 8.05408E-13
1.37554E-11 8.05398E-13
1.54213E-11 8.05387E-13
1.71823E-11 8.05376E-13
1.90386E-11 8.05364E-13
2.09900E-11 8.05351E-13
2.30367E-11 8.05338E-13
2.51785E-11 8.05324E-13
2.74156E-11 8.05310E-13
2.97478E-11 8.05295E-13
3.21752E-11 8.05279E-13
3.46979E-11 8.05263E-13
3.73157E-11 8.05246E-13
4.00286E-11 8.05228E-13
4.28368E-11 8.05210E-13
4.57402E-11 8.05192E-13
4.87388E-11 8.05172E-13
5.18325E-11 8.05152E-13
5.50215E-11 8.05132E-13
5.83057E-11 8.05111E-13
6.16850E-11 8.05089E-13
6.51595E-11 8.05066E-13
6.87293E-11 8.05043E-13
7.23943E-11 8.05020E-13
7.61544E-11 8.04995E-13
1.18991E-10 8.04719E-13
1.71347E-10 8.04382E-13
2.33223E-10 8.03983E-13
3.04617E-10 8.03524E-13
3.85531E-10 8.03003E-13
4.75965E-10 8.02423E-13
5.75917E-10 8.01782E-13
6.85389E-10 8.01080E-13
8.04380E-10 8.00320E-13
9.32891E-10 7.99499E-13
1.07092E-09 7.98620E-13
1.21847E-09 7.97682E-13
1.37554E-09 7.96685E-13
1.54213E-09 7.95630E-13
1.71823E-09 7.94518E-13
1.90386E-09 7.93349E-13
2.09900E-09 7.92123E-13
2.30367E-09 7.90840E-13
2.51785E-09 7.89502E-13
2.74156E-09 7.88109E-13
2.97478E-09 7.86661E-13
3.21752E-09 7.85159E-13
3.46978E-09 7.83603E-13
3.73156E-09 7.81995E-13
4.00286E-09 7.80334E-13
4.28368E-09 7.78621E-13
4.57402E-09 7.76857E-13
4.87388E-09 7.75043E-13
5.18326E-09 7.73179E-13
5.50215E-09 7.71266E-13
5.83057E-09 7.69305E-13
6.16850E-09 7.67296E-13
6.51596E-09 7.65240E-13
6.87293E-09 7.63138E-13
7.23942E-09 7.60990E-13
7.61544E-09 7.58798E-13
1.18991E-08 7.34584E-13
1.71347E-08 7.06808E-13
2.33223E-08 6.76298E-13
3.04617E-08 6.43924E-13
3.85531E-08 6.10479E-13
4.75965E-08 5.76668E-13
5.75917E-08 5.43079E-13
6.85389E-08 5.10120E-13
8.04380E-08 4.78239E-13
9.32891E-08 4.47709E-13
1.07092E-07 4.18708E-13
1.21847E-07 3.91342E-13
1.37554E-07 3.65600E-13
1.54213E-07 3.41502E-13
1.71823E-07 3.19043E-13
1.90386E-07 2.98162E-13
2.09900E-07 2.78782E-13
2.30367E-07 2.60802E-13
2.51785E-07 2.44082E-13
2.74156E-07 2.28594E-13
2.97478E-07 2.14248E-13
3.21752E-07 2.00956E-13
3.46978E-07 1.88636E-13
3.73156E-07 1.77167E-13
4.00286E-07 1.66507E-13
4.28368E-07 1.56607E-13
4.57402E-07 1.47406E-13
4.87388E-07 1.38845E-13
5.18325E-07 1.30863E-13
5.50215E-07 1.23395E-13
5.83057E-07 1.16431E-13
6.16850E-07 1.09932E-13
6.51596E-07 1.03861E-13
6.87293E-07 9.81856E-14
7.23942E-07 9.28535E-14
7.61543E-07 8.78573E-14
1.18991E-06 5.17616E-14
1.71347E-06 3.20437E-14
2.33223E-06 2.07100E-14
3.04617E-06 1.40173E-14
3.85531E-06 9.87813E-15
4.75964E-06 7.21101E-15
5.75916E-06 5.42332E-15
6.85388E-06 4.17030E-15
8.04378E-06 3.27068E-15
9.32888E-06 2.60573E-15
1.07092E-05 2.10229E-15
1.21846E-05 1.71355E-15
1.37553E-05 1.40678E-15
1.54212E-05 1.16306E-15
1.71822E-05 9.68373E-16
1.90385E-05 8.11349E-16
2.09899E-05 6.84170E-16
2.30365E-05 5.80079E-16
2.51783E-05 4.94206E-16
2.74153E-05 4.23403E-16
2.97475E-05 3.64608E-16
3.21749E-05 3.15531E-16
3.46974E-05 2.74421E-16
3.73152E-05 2.39785E-16
4.00281E-05 2.10490E-16
4.28362E-05 1.85588E-16
4.57395E-05 1.64306E-16
4.87380E-05 1.46023E-16
5.18317E-05 1.30239E-16
5.50205E-05 1.16546E-16
5.83045E-05 1.04631E-16
6.16838E-05 9.42241E-17
6.51582E-05 8.51010E-17
6.87277E-05 7.70755E-17
7.23925E-05 6.99864E-17
7.61524E-05 6.37066E-17
9.21439E-05 4.47099E-17
1.09658E-04 3.23188E-17
1.28695E-04 2.39254E-17
1.49255E-04 1.80948E-17
1.71338E-04 1.39324E-17
1.94942E-04 1.08946E-17
2.20070E-04 8.63440E-18
2.46720E-04 6.92746E-18
2.74892E-04 5.62080E-18
3.04586E-04 4.60737E-18
3.35803E-04 3.81174E-18
3.68542E-04 3.18028E-18
4.02802E-04 2.67396E-18
4.38585E-04 2.26457E-18
4.75889E-04 1.93072E-18
5.14715E-04 1.65629E-18
5.55063E-04 1.42903E-18
5.96931E-04 1.23949E-18
6.40321E-04 1.08045E-18
6.85233E-04 9.46204E-19
7.31665E-04 8.32250E-19
7.79618E-04 7.35013E-19
8.29092E-04 6.51616E-19
8.80086E-04 5.79753E-19
9.32601E-04 5.17569E-19
9.86636E-04 4.63537E-19
1.04219E-03 4.16405E-19
1.09927E-03 3.75138E-19
1.15786E-03 3.38871E-19
1.21797E-03 3.06900E-19
1.27961E-03 2.78626E-19
1.34276E-03 2.53548E-19
1.40743E-03 2.31240E-19
1.47362E-03 2.11340E-19
1.54133E-03 1.93541E-19
1.61056E-03 1.77584E-19
1.68131E-03 1.63244E-19
1.75357E-03 1.50328E-19
1.82735E-03 1.38670E-19
1.90265E-03 1.28122E-19
1.97947E-03 1.18562E-19
2.05780E-03 1.09881E-19
2.13765E-03 1.01982E-19
2.21902E-03 9.47835E-20
2.30190E-03 8.82107E-20
2.38630E-03 8.21995E-20
2.47222E-03 7.66936E-20
2.55965E-03 7.16428E-20
2.64859E-03 6.70026E-20
2.73905E-03 6.27334E-20
2.83103E-03 5.87997E-20
2.92452E-03 5.51707E-20
3.01952E-03 5.18185E-20
3.11604E-03 4.87180E-20
3.21407E-03 4.58470E-20
3.31362E-03 4.31850E-20
3.41468E-03 4.07142E-20
3.51725E-03 3.84183E-20
3.62133E-03 3.62826E-20
3.72692E-03 3.42939E-20
3.83403E-03 3.24403E-20
3.94265E-03 3.07105E-20
4.05278E-03 2.90951E-20
4.16442E-03 2.75850E-20
4.27757E-03 2.61720E-20
4.39223E-03 2.48489E-20
4.50840E-03 2.36085E-20
4.62608E-03 2.24450E-20
4.74527E-03 2.13527E-20
4.86597E-03 2.03263E-20
4.98817E-03 1.93611E-20
5.11188E-03 1.84529E-20
5.23711E-03 1.75975E-20
5.36383E-03 1.67914E-20
5.49207E-03 1.60312E-20
5.62181E-03 1.53137E-20
5.75306E-03 1.46362E-20
5.88581E-03 1.39959E-20
6.02007E-03 1.33904E-20
6.15583E-03 1.28176E-20
6.29310E-03 1.22752E-20
6.43187E-03 1.17613E-20
6.57214E-03 1.12742E-20
6.71392E-03 1.08123E-20
6.85720E-03 1.03739E-20
7.00198E-03 9.95758E-21
7.14827E-03 9.56211E-21
7.29605E-03 9.18621E-21
7.44534E-03 8.82870E-21
7.59612E-03 8.48854E-21
7.97965E-03 7.70756E-21
8.37255E-03 7.01492E-21
8.77480E-03 6.39887E-21
9.18641E-03 5.84942E-21
9.60736E-03 5.35811E-21
1.00376E-02 4.91767E-21
1.04773E-02 4.52189E-21
1.09262E-02 4.16544E-21
1.13844E-02 3.84369E-21
1.18520E-02 3.55264E-21
1.23288E-02 3.28885E-21
1.28150E-02 3.04929E-21
1.33104E-02 2.83134E-21
1.38150E-02 2.63267E-21
1.43290E-02 2.45128E-21
1.48521E-02 2.28538E-21
1.53845E-02 2.13340E-21
1.59262E-02 1.99396E-21
1.64770E-02 1.86584E-21
1.70371E-02 1.74794E-21
1.76063E-02 1.63929E-21
1.81848E-02 1.53903E-21
1.87724E-02 1.44640E-21
1.93692E-02 1.36070E-21
1.99751E-02 1.28132E-21
2.05901E-02 1.20770E-21
2.12143E-02 1.13935E-21
2.18476E-02 1.07581E-21
2.24900E-02 1.01669E-21
2.31415E-02 9.61621E-22
2.38021E-02 9.10267E-22
2.44717E-02 8.62332E-22
2.51504E-02 8.17545E-22
2.58382E-02 7.75660E-22
2.65349E-02 7.36454E-22
2.72407E-02 6.99720E-22
2.79555E-02 6.65274E-22
2.86793E-02 6.32946E-22
2.94120E-02 6.02580E-22
3.01537E-02 5.74034E-22
3.09043E-02 5.47178E-22
3.16639E-02 5.21892E-22
3.24324E-02 4.98067E-22
3.32098E-02 4.75602E-22
3.39961E-02 4.54404E-22
3.47912E-02 4.34388E-22
3.55952E-02 4.15475E-22
3.64081E-02 3.97592E-22
3.72297E-02 3.80673E-22
3.80602E-02 3.64655E-22
3.88995E-02 3.49480E-22
3.97476E-02 3.35096E-22
4.06044E-02 3.21453E-22
4.14700E-02 3.08506E-22
4.23443E-02 2.96213E-22
4.32273E-02 2.84532E-22
4.41190E-02 2.73429E-22
4.50194E-02 2.62869E-22
4.59284E-02 2.52820E-22
4.68461E-02 2.43252E-22
4.87074E-02 2.25452E-22
5.06030E-02 2.09270E-22
5.25328E-02 1.94530E-22
5.44967E-02 1.81080E-22
5.64946E-02 1.68785E-22
5.85262E-02 1.57528E-22
6.05914E-02 1.47205E-22
6.26901E-02 1.37723E-22
6.48222E-02 1.29001E-22
6.69873E-02 1.20966E-22
6.91854E-02 1.13554E-22
7.14163E-02 1.06707E-22
7.36799E-02 1.00373E-22
7.59760E-02 9.45077E-23
7.83043E-02 8.90687E-23
8.06647E-02 8.40194E-23
8.30571E-02 7.93264E-23
8.54812E-02 7.49596E-23
8.79369E-02 7.08920E-23
9.04240E-02 6.70992E-23
9.29422E-02 6.35588E-23
9.54915E-02 6.02509E-23
9.80716E-02 5.71571E-23
1.00682E-01 5.42610E-23
1.03323E-01 5.15475E-23
1.05995E-01 4.90027E-23
1.08696E-01 4.66142E-23
1.11427E-01 4.43704E-23
1.14188E-01 4.22609E-23
1.16978E-01 4.02759E-23
1.19797E-01 3.84068E-23
1.22645E-01 3.66454E-23
1.25522E-01 3.49844E-23
1.28428E-01 3.34168E-23
1.31361E-01 3.19364E-23
1.34323E-01 3.05373E-23
1.37313E-01 2.92143E-23
1.40330E-01 2.79623E-23
1.43375E-01 2.67768E-23
1.46447E-01 2.56535E-23
1.49545E-01 2.45886E-23
1.52671E-01 2.35784E-23
1.55823E-01 2.26196E-23
1.59001E-01 2.17090E-23
1.62205E-01 2.08437E-23
1.65435E-01 2.00210E-23
1.68690E-01 1.92384E-23
1.71970E-01 1.84935E-23
1.75276E-01 1.77842E-23
1.78606E-01 1.71084E-23
1.81961E-01 1.64643E-23
1.85340E-01 1.58501E-23
1.88743E-01 1.52640E-23
1.92169E-01 1.47046E-23
1.95619E-01 1.41704E-23
1.99092E-01 1.36600E-23
2.02589E-01 1.31722E-23
2.06107E-01 1.27058E-23
2.09649E-01 1.22596E-23
2.13212E-01 1.18326E-23
2.16797E-01 1.14238E-23
2.20404E-01 1.10322E-23
2.24032E-01 1.06571E-23
2.27680E-01 1.02976E-23
2.31350E-01 9.95281E-24
2.35040E-01 9.62212E-24
2.38751E-01 9.30481E-24
2.42481E-01 9.00024E-24
2.46231E-01 8.70780E-24
2.50000E-01 8.42691E-24
2.53788E-01 8.15702E-24
2.57595E-01 7.89761E-24
2.61421E-01 7.64819E-24
2.65264E-01 7.40830E-24
2.69126E-01 7.17751E-24
2.73005E-01 6.95540E-24
2.76901E-01 6.74159E-24
2.80814E-01 6.53570E-24
2.84744E-01 6.33740E-24
2.88691E-01 6.14633E-24
2.92653E-01 5.96218E-24
2.96632E-01 5.78466E-24
3.00625E-01 5.61347E-24
3.04634E-01 5.44835E-24
3.08658E-01 5.28903E-24
3.12697E-01 5.13528E-24
3.16749E-01 4.98687E-24
3.20816E-01 4.84358E-24
3.24896E-01 4.70518E-24
3.28990E-01 4.57149E-24
3.33097E-01 4.44231E-24
3.37216E-01 4.31746E-24
3.41348E-01 4.19677E-24
3.45492E-01 4.08006E-24
3.49647E-01 3.96718E-24
3.53814E-01 3.85799E-24
3.57992E-01 3.75234E-24
3.62181E-01 3.65010E-24
3.66381E-01 3.55113E-24
3.70590E-01 3.45531E-24
3.74810E-01 3.36252E-24
3.79039E-01 3.27263E-24
3.83277E-01 3.18556E-24
3.87524E-01 3.10118E-24
3.91780E-01 3.01940E-24
3.96044E-01 2.94013E-24
4.00316E-01 2.86328E-24
4.04596E-01 2.78876E-24
4.08882E-01 2.71648E-24
4.13176E-01 2.64636E-24
4.17476E-01 2.57832E-24
4.21783E-01 2.51230E-24
4.26095E-01 2.44822E-24
4.30413E-01 2.38601E-24
4.34737E-01 2.32561E-24
4.39065E-01 2.26696E-24
4.43398E-01 2.21000E-24
4.47736E-01 2.15466E-24
4.52077E-01 2.10091E-24
4.56422E-01 2.04867E-24
4.60770E-01 1.99790E-24
4.65122E-01 1.94854E-24
4.69476E-01 1.90057E-24
4.73832E-01 1.85391E-24
4.78190E-01 1.80855E-24
4.82550E-01 1.76443E-24
4.86912E-01 1.72151E-24
4.91274E-01 1.67977E-24
4.95637E-01 1.63914E-24
5.00000E-01 1.59961E-24
5.04363E-01 1.56113E-24
5.08726E-01 1.52367E-24
5.13088E-01 1.48721E-24
5.17450E-01 1.45170E-24
5.21810E-01 1.41713E-24
5.26168E-01 1.38346E-24
5.30524E-01 1.35067E-24
5.34878E-01 1.31872E-24
5.39230E-01 1.28759E-24
5.43578E-01 1.25726E-24
5.47923E-01 1.22770E-24
5.52264E-01 1.19889E-24
5.56602E-01 1.17080E-24
5.60935E-01 1.14343E-24
5.65263E-01 1.11674E-24
5.69587E-01 1.09072E-24
5.73905E-01 1.06534E-24
5.78217E-01 1.04059E-24
5.82524E-01 1.01645E-24
5.86824E-01 9.92897E-25
5.91118E-01 9.69920E-25
5.95404E-01 9.47502E-25
5.99684E-01 9.25626E-25
6.03956E-01 9.04278E-25
6.08220E-01 8.83443E-25
6.12476E-01 8.63106E-25
6.16723E-01 8.43254E-25
6.20961E-01 8.23873E-25
6.25190E-01 8.04950E-25
6.29410E-01 7.86472E-25
6.33619E-01 7.68427E-25
6.37819E-01 7.50804E-25
6.42008E-01 7.33591E-25
6.46186E-01 7.16778E-25
6.50353E-01 7.00353E-25
6.54508E-01 6.84307E-25
6.58652E-01 6.68630E-25
6.62784E-01 6.53311E-25
6.66903E-01 6.38342E-25
6.71010E-01 6.23713E-25
6.75104E-01 6.09415E-25
6.79184E-01 5.95439E-25
6.83251E-01 5.81778E-25
6.87303E-01 5.68423E-25
6.91342E-01 5.55367E-25
6.95366E-01 5.42603E-25
6.99375E-01 5.30121E-25
7.03368E-01 5.17917E-25
7.07347E-01 5.05982E-25
7.11309E-01 4.94311E-25
7.15256E-01 4.82896E-25
7.19186E-01 4.71730E-25
7.23099E-01 4.60809E-25
7.26995E-01 4.50126E-25
7.30874E-01 4.39674E-25
7.34736E-01 4.29450E-25
7.38579E-01 4.19446E-25
7.42405E-01 4.09659E-25
7.46212E-01 4.00082E-25
7.50000E-01 3.90711E-25
7.53769E-01 3.81540E-25
7.57519E-01 3.72566E-25
7.61249E-01 3.63783E-25
7.64960E-01 3.55188E-25
7.68650E-01 3.46775E-25
7.72320E-01 3.38540E-25
7.75968E-01 3.30479E-25
7.79596E-01 3.22589E-25
7.83203E-01 3.14866E-25
7.86788E-01 3.07305E-25
7.90351E-01 2.99903E-25
7.93893E-01 2.92657E-25
7.97411E-01 2.85562E-25
8.00908E-01 2.78617E-25
8.04381E-01 2.71817E-25
8.07831E-01 2.65158E-25
8.11257E-01 2.58639E-25
8.14660E-01 2.52256E-25
8.18039E-01 2.46006E-25
8.21394E-01 2.39886E-25
8.24724E-01 2.33893E-25
8.28030E-01 2.28025E-25
8.31310E-01 2.22279E-25
8.34565E-01 2.16653E-25
8.37795E-01 2.11143E-25
8.40999E-01 2.05748E-25
8.44177E-01 2.00465E-25
8.47329E-01 1.95292E-25
8.50455E-01 1.90227E-25
8.53553E-01 1.85267E-25
8.56625E-01 1.80410E-25
8.59670E-01 1.75654E-25
8.62687E-01 1.70997E-25
8.65677E-01 1.66438E-25
8.68639E-01 1.61974E-25
8.71572E-01 1.57603E-25
8.74478E-01 1.53323E-25
8.77355E-01 1.49134E-25
8.80203E-01 1.45032E-25
8.83022E-01 1.41017E-25
8.85812E-01 1.37086E-25
8.88573E-01 1.33238E-25
8.91304E-01 1.29472E-25
8.94005E-01 1.25786E-25
8.96677E-01 1.22179E-25
8.99318E-01 1.18649E-25
9.01928E-01 1.15194E-25
9.04508E-01 1.11814E-25
9.07058E-01 1.08506E-25
9.09576E-01 1.05271E-25
9.12063E-01 1.02105E-25
9.14519E-01 9.90092E-26
9.16943E-01 9.59811E-26
9.19335E-01 9.30199E-26
9.21696E-01 9.01244E-26
9.24024E-01 8.72934E-26
9.26320E-01 8.45259E-26
9.28584E-01 8.18209E-26
9.30815E-01 7.91774E-26
9.33013E-01 7.65942E-26
9.35178E-01 7.40706E-26
9.37310E-01 7.16055E-26
9.39409E-01 6.91979E-26
9.41474E-01 6.68471E-26
9.43505E-01 6.45522E-26
9.45503E-01 6.23122E-26
9.47467E-01 6.01264E-26
9.49397E-01 5.79940E-26
9.51293E-01 5.59143E-26
9.53154E-01 5.38863E-26
9.54981E-01 5.19095E-26
9.56773E-01 4.99831E-26
9.58530E-01 4.81064E-26
9.60252E-01 4.62787E-26
9.61940E-01 4.44994E-26
9.63592E-01 4.27679E-26
9.65209E-01 4.10835E-26
9.66790E-01 3.94456E-26
9.68336E-01 3.78537E-26
9.69846E-01 3.63071E-26
9.71321E-01 3.48055E-26
9.72759E-01 3.33481E-26
9.74162E-01 3.19346E-26
9.75528E-01 3.05644E-26
9.76858E-01 2.92370E-26
9.78152E-01 2.79520E-26
9.79410E-01 2.67090E-26
9.80631E-01 2.55074E-26
9.81815E-01 2.43470E-26
9.82963E-01 2.32273E-26
9.84074E-01 2.21478E-26
9.85148E-01 2.11083E-26
9.86185E-01 2.01084E-26
9.87185E-01 1.91477E-26
9.88148E-01 1.82260E-26
9.89074E-01 1.73428E-26
9.89962E-01 1.64979E-26
9.90814E-01 1.56911E-26
9.91627E-01 1.49220E-26
9.92404E-01 1.41904E-26
9.93143E-01 1.34960E-26
9.93844E-01 1.28386E-26
9.94508E-01 1.22179E-26
9.95134E-01 1.16339E-26
9.95722E-01 1.10862E-26
9.96273E-01 1.05747E-26
9.96786E-01 1.00992E-26
9.97261E-01 9.65961E-27
9.97698E-01 9.25569E-27
9.98097E-01 8.88735E-27
9.98459E-01 8.55446E-27
9.98782E-01 8.25691E-27
9.99067E-01 7.99459E-27
9.99315E-01 7.76743E-27
9.99524E-01 7.57534E-27
9.99695E-01 7.41827E-27
9.99829E-01 7.29615E-27
9.99924E-01 7.20896E-27
9.99981E-01 7.15665E-27
1.00000E+00 7.13922E-27
