 #
 # Subroutine ELSEPA. Elastic scattering of electrons and positrons
 #                    by neutral atoms and positive ions
 #
 # Projectile: electron
 # Kinetic energy = 7.00000E+07 eV = 2.57245E+06 a.u.
 #
 # WARNING: High-energy factorization with free-atom DF screening.
 #          Absorption, polarization and exchange corrections are
 #          switched off.
 #          Phase shifts are calculated for the bare nucleus.
 #          Scattering amplitudes are not evaluated.
 #
 # Element: Mo,  Z =  42,  atomic weight = 9.59400E+01 g/mol
 #
 # Nuclear model: Fermi distribution
 #                Average radius = 4.89836E-13 cm
 #                Skin thickness = 5.46000E-14 cm
 #
 # Number of electrons = 42
 #
 # Total elastic cross section = 4.06015E-18 cm**2 = 1.44991E-01 a0**2
 # 1st transport cross section = 7.08859E-25 cm**2 = 2.53138E-08 a0**2
 # 2nd transport cross section = 2.09486E-24 cm**2 = 7.48087E-08 a0**2
 #
 #
 # Differential cross section:                       MU=(1-COS(THETA))/2
 #
 #  THETA        MU          DCS          DCS        Sherman      error
 #  (deg)                 (cm**2/sr)   (a0**2/sr)    function
 #----------------------------------------------------------------------
0.00000E+00 1.96801E-10
7.61557E-13 1.96502E-10
1.18994E-12 1.96335E-10
1.71346E-12 1.96131E-10
2.33225E-12 1.95890E-10
3.04617E-12 1.95614E-10
3.85530E-12 1.95301E-10
4.75964E-12 1.94952E-10
5.75917E-12 1.94568E-10
6.85391E-12 1.94149E-10
8.04379E-12 1.93696E-10
9.32893E-12 1.93208E-10
1.07092E-11 1.92687E-10
1.21847E-11 1.92132E-10
1.37554E-11 1.91545E-10
1.54213E-11 1.90926E-10
1.71823E-11 1.90275E-10
1.90386E-11 1.89593E-10
2.09900E-11 1.88881E-10
2.30367E-11 1.88140E-10
2.51785E-11 1.87369E-10
2.74156E-11 1.86570E-10
2.97478E-11 1.85743E-10
3.21752E-11 1.84890E-10
3.46979E-11 1.84010E-10
3.73157E-11 1.83106E-10
4.00286E-11 1.82176E-10
4.28368E-11 1.81223E-10
4.57402E-11 1.80247E-10
4.87388E-11 1.79245E-10
5.18325E-11 1.78223E-10
5.50215E-11 1.77180E-10
5.83057E-11 1.76119E-10
6.16850E-11 1.75040E-10
6.51595E-11 1.73944E-10
6.87293E-11 1.72832E-10
7.23943E-11 1.71704E-10
7.61544E-11 1.70553E-10
1.18991E-10 1.58389E-10
1.71347E-10 1.45510E-10
2.33223E-10 1.32568E-10
3.04617E-10 1.20017E-10
3.85531E-10 1.08215E-10
4.75965E-10 9.73450E-11
5.75917E-10 8.74662E-11
6.85389E-10 7.85770E-11
8.04380E-10 7.06459E-11
9.32891E-10 6.35978E-11
1.07092E-09 5.73204E-11
1.21847E-09 5.17546E-11
1.37554E-09 4.68179E-11
1.54213E-09 4.24235E-11
1.71823E-09 3.85035E-11
1.90386E-09 3.50099E-11
2.09900E-09 3.18898E-11
2.30367E-09 2.90830E-11
2.51785E-09 2.65658E-11
2.74156E-09 2.43043E-11
2.97478E-09 2.22639E-11
3.21752E-09 2.04187E-11
3.46978E-09 1.87526E-11
3.73156E-09 1.72454E-11
4.00286E-09 1.58741E-11
4.28368E-09 1.46302E-11
4.57402E-09 1.35006E-11
4.87388E-09 1.24089E-11
5.18326E-09 1.14288E-11
5.50215E-09 1.05570E-11
5.83057E-09 9.77904E-12
6.16850E-09 9.08289E-12
6.51596E-09 8.45821E-12
6.87293E-09 7.89615E-12
7.23942E-09 7.38286E-12
7.61544E-09 6.85852E-12
1.18991E-08 3.59675E-12
1.71347E-08 2.09020E-12
2.33223E-08 1.31865E-12
3.04617E-08 8.80419E-13
3.85531E-08 6.13579E-13
4.75965E-08 4.40781E-13
5.75917E-08 3.23336E-13
6.85389E-08 2.41206E-13
8.04380E-08 1.82871E-13
9.32891E-08 1.40690E-13
1.07092E-07 1.09620E-13
1.21847E-07 8.65548E-14
1.37554E-07 6.91896E-14
1.54213E-07 5.59630E-14
1.71823E-07 4.57659E-14
1.90386E-07 3.78126E-14
2.09900E-07 3.15339E-14
2.30367E-07 2.65172E-14
2.51785E-07 2.24724E-14
2.74156E-07 1.91809E-14
2.97478E-07 1.64783E-14
3.21752E-07 1.42410E-14
3.46978E-07 1.23753E-14
3.73156E-07 1.08080E-14
4.00286E-07 9.48134E-15
4.28368E-07 8.35267E-15
4.57402E-07 7.38737E-15
4.87388E-07 6.55335E-15
5.18325E-07 5.83630E-15
5.50215E-07 5.21777E-15
5.83057E-07 4.67499E-15
6.16850E-07 4.20101E-15
6.51596E-07 3.78726E-15
6.87293E-07 3.42121E-15
7.23942E-07 3.09770E-15
7.61543E-07 2.81245E-15
1.18991E-06 1.18794E-15
1.71347E-06 5.82590E-16
2.33223E-06 3.18085E-16
3.04617E-06 1.88139E-16
3.85531E-06 1.18342E-16
4.75964E-06 7.81434E-17
5.75916E-06 5.36670E-17
6.85388E-06 3.80714E-17
8.04378E-06 2.77525E-17
9.32888E-06 2.07045E-17
1.07092E-05 1.57577E-17
1.21846E-05 1.22034E-17
1.37553E-05 9.59663E-18
1.54212E-05 7.64980E-18
1.71822E-05 6.17227E-18
1.90385E-05 5.03375E-18
2.09899E-05 4.14759E-18
2.30365E-05 3.44782E-18
2.51783E-05 2.88922E-18
2.74153E-05 2.43899E-18
2.97475E-05 2.07297E-18
3.21749E-05 1.77307E-18
3.46974E-05 1.52553E-18
3.73152E-05 1.31980E-18
4.00281E-05 1.14766E-18
4.28362E-05 1.00271E-18
4.57395E-05 8.79946E-19
4.87380E-05 7.75381E-19
5.18317E-05 6.85871E-19
5.50205E-05 6.08895E-19
5.83045E-05 5.42413E-19
6.16838E-05 4.84764E-19
6.51582E-05 4.34584E-19
6.87277E-05 3.90742E-19
7.23925E-05 3.52300E-19
7.61524E-05 3.18579E-19
9.21439E-05 2.17847E-19
1.09658E-04 1.53970E-19
1.28695E-04 1.11898E-19
1.49255E-04 8.32653E-20
1.71338E-04 6.32409E-20
1.94942E-04 4.88928E-20
2.20070E-04 3.83959E-20
2.46720E-04 3.05733E-20
2.74892E-04 2.46466E-20
3.04586E-04 2.00907E-20
3.35803E-04 1.65413E-20
3.68542E-04 1.37432E-20
4.02802E-04 1.15132E-20
4.38585E-04 9.71824E-21
4.75889E-04 8.26033E-21
5.14715E-04 7.06616E-21
5.55063E-04 6.08055E-21
5.96931E-04 5.26117E-21
6.40321E-04 4.57549E-21
6.85233E-04 3.99815E-21
7.31665E-04 3.50919E-21
7.79618E-04 3.09289E-21
8.29092E-04 2.73662E-21
8.80086E-04 2.43030E-21
9.32601E-04 2.16575E-21
9.86636E-04 1.93629E-21
1.04219E-03 1.73649E-21
1.09927E-03 1.56186E-21
1.15786E-03 1.40868E-21
1.21797E-03 1.27386E-21
1.27961E-03 1.15483E-21
1.34276E-03 1.04941E-21
1.40743E-03 9.55766E-22
1.47362E-03 8.72364E-22
1.54133E-03 7.97883E-22
1.61056E-03 7.31198E-22
1.68131E-03 6.71354E-22
1.75357E-03 6.17518E-22
1.82735E-03 5.68985E-22
1.90265E-03 5.25137E-22
1.97947E-03 4.85441E-22
2.05780E-03 4.49434E-22
2.13765E-03 4.16711E-22
2.21902E-03 3.86918E-22
2.30190E-03 3.59747E-22
2.38630E-03 3.34925E-22
2.47222E-03 3.12210E-22
2.55965E-03 2.91393E-22
2.64859E-03 2.72286E-22
2.73905E-03 2.54722E-22
2.83103E-03 2.38555E-22
2.92452E-03 2.23653E-22
3.01952E-03 2.09898E-22
3.11604E-03 1.97186E-22
3.21407E-03 1.85424E-22
3.31362E-03 1.74528E-22
3.41468E-03 1.64421E-22
3.51725E-03 1.55037E-22
3.62133E-03 1.46313E-22
3.72692E-03 1.38195E-22
3.83403E-03 1.30634E-22
3.94265E-03 1.23583E-22
4.05278E-03 1.17002E-22
4.16442E-03 1.10854E-22
4.27757E-03 1.05105E-22
4.39223E-03 9.97243E-23
4.50840E-03 9.46837E-23
4.62608E-03 8.99579E-23
4.74527E-03 8.55236E-23
4.86597E-03 8.13592E-23
4.98817E-03 7.74455E-23
5.11188E-03 7.37643E-23
5.23711E-03 7.02994E-23
5.36383E-03 6.70356E-23
5.49207E-03 6.39591E-23
5.62181E-03 6.10571E-23
5.75306E-03 5.83178E-23
5.88581E-03 5.57303E-23
6.02007E-03 5.32848E-23
6.15583E-03 5.09719E-23
6.29310E-03 4.87830E-23
6.43187E-03 4.67103E-23
6.57214E-03 4.47465E-23
6.71392E-03 4.28847E-23
6.85720E-03 4.11186E-23
7.00198E-03 3.94424E-23
7.14827E-03 3.78506E-23
7.29605E-03 3.63382E-23
7.44534E-03 3.49005E-23
7.59612E-03 3.35331E-23
7.97965E-03 3.03958E-23
8.37255E-03 2.76162E-23
8.77480E-03 2.51464E-23
9.18641E-03 2.29459E-23
9.60736E-03 2.09801E-23
1.00376E-02 1.92196E-23
1.04773E-02 1.76392E-23
1.09262E-02 1.62172E-23
1.13844E-02 1.49349E-23
1.18520E-02 1.37762E-23
1.23288E-02 1.27270E-23
1.28150E-02 1.17752E-23
1.33104E-02 1.09101E-23
1.38150E-02 1.01224E-23
1.43290E-02 9.40396E-24
1.48521E-02 8.74758E-24
1.53845E-02 8.14694E-24
1.59262E-02 7.59648E-24
1.64770E-02 7.09124E-24
1.70371E-02 6.62685E-24
1.76063E-02 6.19941E-24
1.81848E-02 5.80545E-24
1.87724E-02 5.44189E-24
1.93692E-02 5.10596E-24
1.99751E-02 4.79518E-24
2.05901E-02 4.50734E-24
2.12143E-02 4.24043E-24
2.18476E-02 3.99266E-24
2.24900E-02 3.76241E-24
2.31415E-02 3.54823E-24
2.38021E-02 3.34879E-24
2.44717E-02 3.16289E-24
2.51504E-02 2.98945E-24
2.58382E-02 2.82749E-24
2.65349E-02 2.67612E-24
2.72407E-02 2.53451E-24
2.79555E-02 2.40192E-24
2.86793E-02 2.27768E-24
2.94120E-02 2.16118E-24
3.01537E-02 2.05183E-24
3.09043E-02 1.94913E-24
3.16639E-02 1.85260E-24
3.24324E-02 1.76180E-24
3.32098E-02 1.67633E-24
3.39961E-02 1.59583E-24
3.47912E-02 1.51995E-24
3.55952E-02 1.44839E-24
3.64081E-02 1.38085E-24
3.72297E-02 1.31707E-24
3.80602E-02 1.25680E-24
3.88995E-02 1.19982E-24
3.97476E-02 1.14592E-24
4.06044E-02 1.09490E-24
4.14700E-02 1.04657E-24
4.23443E-02 1.00078E-24
4.32273E-02 9.57369E-25
4.41190E-02 9.16188E-25
4.50194E-02 8.77105E-25
4.59284E-02 8.39995E-25
4.68461E-02 8.04741E-25
4.87074E-02 7.39376E-25
5.06030E-02 6.80224E-25
5.25328E-02 6.26600E-25
5.44967E-02 5.77907E-25
5.64946E-02 5.33620E-25
5.85262E-02 4.93278E-25
6.05914E-02 4.56475E-25
6.26901E-02 4.22852E-25
6.48222E-02 3.92092E-25
6.69873E-02 3.63915E-25
6.91854E-02 3.38070E-25
7.14163E-02 3.14336E-25
7.36799E-02 2.92514E-25
7.59760E-02 2.72427E-25
7.83043E-02 2.53918E-25
8.06647E-02 2.36844E-25
8.30571E-02 2.21077E-25
8.54812E-02 2.06504E-25
8.79369E-02 1.93021E-25
9.04240E-02 1.80535E-25
9.29422E-02 1.68962E-25
9.54915E-02 1.58226E-25
9.80716E-02 1.48258E-25
1.00682E-01 1.38996E-25
1.03323E-01 1.30383E-25
1.05995E-01 1.22368E-25
1.08696E-01 1.14903E-25
1.11427E-01 1.07946E-25
1.14188E-01 1.01458E-25
1.16978E-01 9.54036E-26
1.19797E-01 8.97497E-26
1.22645E-01 8.44667E-26
1.25522E-01 7.95273E-26
1.28428E-01 7.49065E-26
1.31361E-01 7.05812E-26
1.34323E-01 6.65304E-26
1.37313E-01 6.27345E-26
1.40330E-01 5.91758E-26
1.43375E-01 5.58377E-26
1.46447E-01 5.27050E-26
1.49545E-01 4.97637E-26
1.52671E-01 4.70008E-26
1.55823E-01 4.44044E-26
1.59001E-01 4.19633E-26
1.62205E-01 3.96674E-26
1.65435E-01 3.75070E-26
1.68690E-01 3.54735E-26
1.71970E-01 3.35586E-26
1.75276E-01 3.17547E-26
1.78606E-01 3.00548E-26
1.81961E-01 2.84523E-26
1.85340E-01 2.69412E-26
1.88743E-01 2.55157E-26
1.92169E-01 2.41705E-26
1.95619E-01 2.29008E-26
1.99092E-01 2.17020E-26
2.02589E-01 2.05697E-26
2.06107E-01 1.95000E-26
2.09649E-01 1.84891E-26
2.13212E-01 1.75335E-26
2.16797E-01 1.66300E-26
2.20404E-01 1.57755E-26
2.24032E-01 1.49672E-26
2.27680E-01 1.42024E-26
2.31350E-01 1.34785E-26
2.35040E-01 1.27933E-26
2.38751E-01 1.21445E-26
2.42481E-01 1.15300E-26
2.46231E-01 1.09480E-26
2.50000E-01 1.03966E-26
2.53788E-01 9.87406E-27
2.57595E-01 9.37882E-27
2.61421E-01 8.90935E-27
2.65264E-01 8.46424E-27
2.69126E-01 8.04215E-27
2.73005E-01 7.64183E-27
2.76901E-01 7.26209E-27
2.80814E-01 6.90182E-27
2.84744E-01 6.55997E-27
2.88691E-01 6.23555E-27
2.92653E-01 5.92762E-27
2.96632E-01 5.63532E-27
3.00625E-01 5.35782E-27
3.04634E-01 5.09432E-27
3.08658E-01 4.84409E-27
3.12697E-01 4.60645E-27
3.16749E-01 4.38072E-27
3.20816E-01 4.16628E-27
3.24896E-01 3.96256E-27
3.28990E-01 3.76900E-27
3.33097E-01 3.58506E-27
3.37216E-01 3.41026E-27
3.41348E-01 3.24413E-27
3.45492E-01 3.08622E-27
3.49647E-01 2.93612E-27
3.53814E-01 2.79342E-27
3.57992E-01 2.65775E-27
3.62181E-01 2.52876E-27
3.66381E-01 2.40610E-27
3.70590E-01 2.28947E-27
3.74810E-01 2.17855E-27
3.79039E-01 2.07306E-27
3.83277E-01 1.97272E-27
3.87524E-01 1.87729E-27
3.91780E-01 1.78651E-27
3.96044E-01 1.70015E-27
4.00316E-01 1.61801E-27
4.04596E-01 1.53985E-27
4.08882E-01 1.46550E-27
4.13176E-01 1.39475E-27
4.17476E-01 1.32744E-27
4.21783E-01 1.26340E-27
4.26095E-01 1.20245E-27
4.30413E-01 1.14446E-27
4.34737E-01 1.08928E-27
4.39065E-01 1.03676E-27
4.43398E-01 9.86788E-28
4.47736E-01 9.39228E-28
4.52077E-01 8.93965E-28
4.56422E-01 8.50888E-28
4.60770E-01 8.09890E-28
4.65122E-01 7.70871E-28
4.69476E-01 7.33734E-28
4.73832E-01 6.98389E-28
4.78190E-01 6.64747E-28
4.82550E-01 6.32728E-28
4.86912E-01 6.02252E-28
4.91274E-01 5.73245E-28
4.95637E-01 5.45636E-28
5.00000E-01 5.19357E-28
5.04363E-01 4.94344E-28
5.08726E-01 4.70537E-28
5.13088E-01 4.47877E-28
5.17450E-01 4.26309E-28
5.21810E-01 4.05780E-28
5.26168E-01 3.86241E-28
5.30524E-01 3.67644E-28
5.34878E-01 3.49942E-28
5.39230E-01 3.33095E-28
5.43578E-01 3.17060E-28
5.47923E-01 3.01798E-28
5.52264E-01 2.87272E-28
5.56602E-01 2.73447E-28
5.60935E-01 2.60289E-28
5.65263E-01 2.47767E-28
5.69587E-01 2.35849E-28
5.73905E-01 2.24506E-28
5.78217E-01 2.13712E-28
5.82524E-01 2.03439E-28
5.86824E-01 1.93662E-28
5.91118E-01 1.84358E-28
5.95404E-01 1.75504E-28
5.99684E-01 1.67079E-28
6.03956E-01 1.59061E-28
6.08220E-01 1.51431E-28
6.12476E-01 1.44171E-28
6.16723E-01 1.37263E-28
6.20961E-01 1.30689E-28
6.25190E-01 1.24433E-28
6.29410E-01 1.18481E-28
6.33619E-01 1.12818E-28
6.37819E-01 1.07429E-28
6.42008E-01 1.02302E-28
6.46186E-01 9.74231E-29
6.50353E-01 9.27813E-29
6.54508E-01 8.83650E-29
6.58652E-01 8.41630E-29
6.62784E-01 8.01652E-29
6.66903E-01 7.63615E-29
6.71010E-01 7.27426E-29
6.75104E-01 6.92995E-29
6.79184E-01 6.60238E-29
6.83251E-01 6.29072E-29
6.87303E-01 5.99420E-29
6.91342E-01 5.71209E-29
6.95366E-01 5.44369E-29
6.99375E-01 5.18832E-29
7.03368E-01 4.94536E-29
7.07347E-01 4.71420E-29
7.11309E-01 4.49427E-29
7.15256E-01 4.28500E-29
7.19186E-01 4.08589E-29
7.23099E-01 3.89644E-29
7.26995E-01 3.71617E-29
7.30874E-01 3.54464E-29
7.34736E-01 3.38141E-29
7.38579E-01 3.22608E-29
7.42405E-01 3.07826E-29
7.46212E-01 2.93758E-29
7.50000E-01 2.80370E-29
7.53769E-01 2.67627E-29
7.57519E-01 2.55497E-29
7.61249E-01 2.43952E-29
7.64960E-01 2.32961E-29
7.68650E-01 2.22497E-29
7.72320E-01 2.12535E-29
7.75968E-01 2.03050E-29
7.79596E-01 1.94017E-29
7.83203E-01 1.85415E-29
7.86788E-01 1.77223E-29
7.90351E-01 1.69419E-29
7.93893E-01 1.61985E-29
7.97411E-01 1.54903E-29
8.00908E-01 1.48154E-29
8.04381E-01 1.41723E-29
8.07831E-01 1.35594E-29
8.11257E-01 1.29751E-29
8.14660E-01 1.24180E-29
8.18039E-01 1.18869E-29
8.21394E-01 1.13804E-29
8.24724E-01 1.08972E-29
8.28030E-01 1.04363E-29
8.31310E-01 9.99643E-30
8.34565E-01 9.57667E-30
8.37795E-01 9.17598E-30
8.40999E-01 8.79342E-30
8.44177E-01 8.42809E-30
8.47329E-01 8.07913E-30
8.50455E-01 7.74573E-30
8.53553E-01 7.42712E-30
8.56625E-01 7.12257E-30
8.59670E-01 6.83139E-30
8.62687E-01 6.55292E-30
8.65677E-01 6.28653E-30
8.68639E-01 6.03163E-30
8.71572E-01 5.78765E-30
8.74478E-01 5.55406E-30
8.77355E-01 5.33035E-30
8.80203E-01 5.11605E-30
8.83022E-01 4.91069E-30
8.85812E-01 4.71384E-30
8.88573E-01 4.52509E-30
8.91304E-01 4.34405E-30
8.94005E-01 4.17035E-30
8.96677E-01 4.00364E-30
8.99318E-01 3.84358E-30
9.01928E-01 3.68987E-30
9.04508E-01 3.54220E-30
9.07058E-01 3.40029E-30
9.09576E-01 3.26387E-30
9.12063E-01 3.13269E-30
9.14519E-01 3.00651E-30
9.16943E-01 2.88509E-30
9.19335E-01 2.76823E-30
9.21696E-01 2.65572E-30
9.24024E-01 2.54736E-30
9.26320E-01 2.44297E-30
9.28584E-01 2.34237E-30
9.30815E-01 2.24541E-30
9.33013E-01 2.15192E-30
9.35178E-01 2.06177E-30
9.37310E-01 1.97480E-30
9.39409E-01 1.89089E-30
9.41474E-01 1.80991E-30
9.43505E-01 1.73175E-30
9.45503E-01 1.65629E-30
9.47467E-01 1.58343E-30
9.49397E-01 1.51306E-30
9.51293E-01 1.44510E-30
9.53154E-01 1.37945E-30
9.54981E-01 1.31604E-30
9.56773E-01 1.25477E-30
9.58530E-01 1.19558E-30
9.60252E-01 1.13839E-30
9.61940E-01 1.08314E-30
9.63592E-01 1.02976E-30
9.65209E-01 9.78195E-31
9.66790E-01 9.28389E-31
9.68336E-01 8.80286E-31
9.69846E-01 8.33838E-31
9.71321E-01 7.88996E-31
9.72759E-01 7.45716E-31
9.74162E-01 7.03956E-31
9.75528E-01 6.63675E-31
9.76858E-01 6.24838E-31
9.78152E-01 5.87408E-31
9.79410E-01 5.51352E-31
9.80631E-01 5.16639E-31
9.81815E-01 4.83240E-31
9.82963E-01 4.51127E-31
9.84074E-01 4.20274E-31
9.85148E-01 3.90657E-31
9.86185E-01 3.62253E-31
9.87185E-01 3.35040E-31
9.88148E-01 3.08998E-31
9.89074E-01 2.84108E-31
9.89962E-01 2.60354E-31
9.90814E-01 2.37717E-31
9.91627E-01 2.16182E-31
9.92404E-01 1.95736E-31
9.93143E-01 1.76365E-31
9.93844E-01 1.58055E-31
9.94508E-01 1.40797E-31
9.95134E-01 1.24577E-31
9.95722E-01 1.09388E-31
9.96273E-01 9.52189E-32
9.96786E-01 8.20620E-32
9.97261E-01 6.99094E-32
9.97698E-01 5.87540E-32
9.98097E-01 4.85894E-32
9.98459E-01 3.94097E-32
9.98782E-01 3.12099E-32
9.99067E-01 2.39853E-32
9.99315E-01 1.77320E-32
9.99524E-01 1.24464E-32
9.99695E-01 8.12581E-33
9.99829E-01 4.76773E-33
9.99924E-01 2.37041E-33
9.99981E-01 9.32530E-34
1.00000E+00 4.53367E-34
