 #
 # Subroutine ELSEPA. Elastic scattering of electrons and positrons
 #                    by neutral atoms and positive ions
 #
 # Projectile: electron
 # Kinetic energy = 2.00000E+07 eV = 7.34987E+05 a.u.
 #
 # WARNING: High-energy factorization with free-atom DF screening.
 #          Absorption, polarization and exchange corrections are
 #          switched off.
 #          Phase shifts are calculated for the bare nucleus.
 #          Scattering amplitudes are not evaluated.
 #
 # Element: Mo,  Z =  42,  atomic weight = 9.59400E+01 g/mol
 #
 # Nuclear model: Fermi distribution
 #                Average radius = 4.89836E-13 cm
 #                Skin thickness = 5.46000E-14 cm
 #
 # Number of electrons = 42
 #
 # Total elastic cross section = 4.06067E-18 cm**2 = 1.45009E-01 a0**2
 # 1st transport cross section = 7.86676E-24 cm**2 = 2.80927E-07 a0**2
 # 2nd transport cross section = 2.25302E-23 cm**2 = 8.04568E-07 a0**2
 #
 #
 # Differential cross section:                       MU=(1-COS(THETA))/2
 #
 #  THETA        MU          DCS          DCS        Sherman      error
 #  (deg)                 (cm**2/sr)   (a0**2/sr)    function
 #----------------------------------------------------------------------
0.00000E+00 1.66528E-11
7.61557E-13 1.66506E-11
1.18994E-12 1.66494E-11
1.71346E-12 1.66479E-11
2.33225E-12 1.66462E-11
3.04617E-12 1.66442E-11
3.85530E-12 1.66419E-11
4.75964E-12 1.66394E-11
5.75917E-12 1.66366E-11
6.85391E-12 1.66335E-11
8.04379E-12 1.66302E-11
9.32893E-12 1.66266E-11
1.07092E-11 1.66228E-11
1.21847E-11 1.66186E-11
1.37554E-11 1.66143E-11
1.54213E-11 1.66096E-11
1.71823E-11 1.66047E-11
1.90386E-11 1.65995E-11
2.09900E-11 1.65941E-11
2.30367E-11 1.65884E-11
2.51785E-11 1.65824E-11
2.74156E-11 1.65762E-11
2.97478E-11 1.65698E-11
3.21752E-11 1.65630E-11
3.46979E-11 1.65560E-11
3.73157E-11 1.65488E-11
4.00286E-11 1.65413E-11
4.28368E-11 1.65335E-11
4.57402E-11 1.65255E-11
4.87388E-11 1.65172E-11
5.18325E-11 1.65087E-11
5.50215E-11 1.64999E-11
5.83057E-11 1.64908E-11
6.16850E-11 1.64816E-11
6.51595E-11 1.64720E-11
6.87293E-11 1.64622E-11
7.23943E-11 1.64522E-11
7.61544E-11 1.64419E-11
1.18991E-10 1.63254E-11
1.71347E-10 1.61850E-11
2.33223E-10 1.60218E-11
3.04617E-10 1.58372E-11
3.85531E-10 1.56324E-11
4.75965E-10 1.54090E-11
5.75917E-10 1.51684E-11
6.85389E-10 1.49123E-11
8.04380E-10 1.46433E-11
9.32891E-10 1.43618E-11
1.07092E-09 1.40700E-11
1.21847E-09 1.37707E-11
1.37554E-09 1.34629E-11
1.54213E-09 1.31505E-11
1.71823E-09 1.28346E-11
1.90386E-09 1.25151E-11
2.09900E-09 1.21955E-11
2.30367E-09 1.18752E-11
2.51785E-09 1.15559E-11
2.74156E-09 1.12401E-11
2.97478E-09 1.09252E-11
3.21752E-09 1.06153E-11
3.46978E-09 1.03103E-11
3.73156E-09 1.00089E-11
4.00286E-09 9.71459E-12
4.28368E-09 9.42557E-12
4.57402E-09 9.14274E-12
4.87388E-09 8.86797E-12
5.18326E-09 8.59816E-12
5.50215E-09 8.33640E-12
5.83057E-09 8.08237E-12
6.16850E-09 7.83403E-12
6.51596E-09 7.59429E-12
6.87293E-09 7.36115E-12
7.23942E-09 7.13484E-12
7.61544E-09 6.91694E-12
1.18991E-08 5.08644E-12
1.71347E-08 3.78932E-12
2.33223E-08 2.86519E-12
3.04617E-08 2.19575E-12
3.85531E-08 1.70258E-12
4.75965E-08 1.33446E-12
5.75917E-08 1.05111E-12
6.85389E-08 8.34033E-13
8.04380E-08 6.77137E-13
9.32891E-08 5.51476E-13
1.07092E-07 4.52535E-13
1.21847E-07 3.77464E-13
1.37554E-07 3.14839E-13
1.54213E-07 2.65870E-13
1.71823E-07 2.26690E-13
1.90386E-07 1.94118E-13
2.09900E-07 1.67899E-13
2.30367E-07 1.46007E-13
2.51785E-07 1.27710E-13
2.74156E-07 1.12580E-13
2.97478E-07 9.94406E-14
3.21752E-07 8.83805E-14
3.46978E-07 7.89342E-14
3.73156E-07 7.06037E-14
4.00286E-07 6.34946E-14
4.28368E-07 5.72119E-14
4.57402E-07 5.16698E-14
4.87388E-07 4.68728E-14
5.18325E-07 4.25000E-14
5.50215E-07 3.86639E-14
5.83057E-07 3.52695E-14
6.16850E-07 3.21640E-14
6.51596E-07 2.94292E-14
6.87293E-07 2.69514E-14
7.23942E-07 2.47073E-14
7.61543E-07 2.27141E-14
1.18991E-06 1.03885E-14
1.71347E-06 5.31880E-15
2.33223E-06 2.99829E-15
3.04617E-06 1.82395E-15
3.85531E-06 1.17689E-15
4.75964E-06 7.94861E-16
5.75916E-06 5.55929E-16
6.85388E-06 4.00573E-16
8.04378E-06 2.95676E-16
9.32888E-06 2.22773E-16
1.07092E-05 1.70888E-16
1.21846E-05 1.33156E-16
1.37553E-05 1.05237E-16
1.54212E-05 8.42384E-17
1.71822E-05 6.82101E-17
1.90385E-05 5.58023E-17
2.09899E-05 4.61070E-17
2.30365E-05 3.84258E-17
2.51783E-05 3.22766E-17
2.74153E-05 2.73077E-17
2.97475E-05 2.32589E-17
3.21749E-05 1.99344E-17
3.46974E-05 1.71849E-17
3.73152E-05 1.48953E-17
4.00281E-05 1.29760E-17
4.28362E-05 1.13571E-17
4.57395E-05 9.98337E-18
4.87380E-05 8.81133E-18
5.18317E-05 7.80638E-18
5.50205E-05 6.94072E-18
5.83045E-05 6.19189E-18
6.16838E-05 5.54156E-18
6.51582E-05 4.97461E-18
6.87277E-05 4.47854E-18
7.23925E-05 4.04294E-18
7.61524E-05 3.65928E-18
9.21439E-05 2.51288E-18
1.09658E-04 1.78234E-18
1.28695E-04 1.29913E-18
1.49255E-04 9.69083E-19
1.71338E-04 7.37537E-19
1.94942E-04 5.71180E-19
2.20070E-04 4.49196E-19
2.46720E-04 3.58113E-19
2.74892E-04 2.88988E-19
3.04586E-04 2.35774E-19
3.35803E-04 1.94266E-19
3.68542E-04 1.61509E-19
4.02802E-04 1.35378E-19
4.38585E-04 1.14327E-19
4.75889E-04 9.72176E-20
5.14715E-04 8.31947E-20
5.55063E-04 7.16142E-20
5.96931E-04 6.19827E-20
6.40321E-04 5.39191E-20
6.85233E-04 4.71272E-20
7.31665E-04 4.13731E-20
7.79618E-04 3.64725E-20
8.29092E-04 3.22776E-20
8.80086E-04 2.86699E-20
9.32601E-04 2.55534E-20
9.86636E-04 2.28499E-20
1.04219E-03 2.04954E-20
1.09927E-03 1.84371E-20
1.15786E-03 1.66314E-20
1.21797E-03 1.50420E-20
1.27961E-03 1.36384E-20
1.34276E-03 1.23952E-20
1.40743E-03 1.12908E-20
1.47362E-03 1.03071E-20
1.54133E-03 9.42849E-21
1.61056E-03 8.64181E-21
1.68131E-03 7.93573E-21
1.75357E-03 7.30051E-21
1.82735E-03 6.72781E-21
1.90265E-03 6.21036E-21
1.97947E-03 5.74186E-21
2.05780E-03 5.31687E-21
2.13765E-03 4.93062E-21
2.21902E-03 4.57894E-21
2.30190E-03 4.25817E-21
2.38630E-03 3.96510E-21
2.47222E-03 3.69692E-21
2.55965E-03 3.45111E-21
2.64859E-03 3.22547E-21
2.73905E-03 3.01806E-21
2.83103E-03 2.82711E-21
2.92452E-03 2.65109E-21
3.01952E-03 2.48862E-21
3.11604E-03 2.33846E-21
3.21407E-03 2.19950E-21
3.31362E-03 2.07076E-21
3.41468E-03 1.95134E-21
3.51725E-03 1.84044E-21
3.62133E-03 1.73735E-21
3.72692E-03 1.64141E-21
3.83403E-03 1.55204E-21
3.94265E-03 1.46869E-21
4.05278E-03 1.39089E-21
4.16442E-03 1.31820E-21
4.27757E-03 1.25022E-21
4.39223E-03 1.18659E-21
4.50840E-03 1.12698E-21
4.62608E-03 1.07108E-21
4.74527E-03 1.01863E-21
4.86597E-03 9.69359E-22
4.98817E-03 9.23051E-22
5.11188E-03 8.79491E-22
5.23711E-03 8.38484E-22
5.36383E-03 7.99853E-22
5.49207E-03 7.63433E-22
5.62181E-03 7.29074E-22
5.75306E-03 6.96638E-22
5.88581E-03 6.65995E-22
6.02007E-03 6.37029E-22
6.15583E-03 6.09630E-22
6.29310E-03 5.83698E-22
6.43187E-03 5.59138E-22
6.57214E-03 5.35864E-22
6.71392E-03 5.13796E-22
6.85720E-03 4.92858E-22
7.00198E-03 4.72983E-22
7.14827E-03 4.54106E-22
7.29605E-03 4.36167E-22
7.44534E-03 4.19112E-22
7.59612E-03 4.02887E-22
7.97965E-03 3.65651E-22
8.37255E-03 3.32644E-22
8.77480E-03 3.03302E-22
9.18641E-03 2.77145E-22
9.60736E-03 2.53766E-22
1.00376E-02 2.32816E-22
1.04773E-02 2.13998E-22
1.09262E-02 1.97057E-22
1.13844E-02 1.81770E-22
1.18520E-02 1.67947E-22
1.23288E-02 1.55422E-22
1.28150E-02 1.44052E-22
1.33104E-02 1.33709E-22
1.38150E-02 1.24285E-22
1.43290E-02 1.15683E-22
1.48521E-02 1.07818E-22
1.53845E-02 1.00614E-22
1.59262E-02 9.40068E-23
1.64770E-02 8.79367E-23
1.70371E-02 8.23523E-23
1.76063E-02 7.72077E-23
1.81848E-02 7.24615E-23
1.87724E-02 6.80769E-23
1.93692E-02 6.40217E-23
1.99751E-02 6.02662E-23
2.05901E-02 5.67839E-23
2.12143E-02 5.35514E-23
2.18476E-02 5.05477E-23
2.24900E-02 4.77528E-23
2.31415E-02 4.51499E-23
2.38021E-02 4.27237E-23
2.44717E-02 4.04589E-23
2.51504E-02 3.83436E-23
2.58382E-02 3.63658E-23
2.65349E-02 3.45146E-23
2.72407E-02 3.27807E-23
2.79555E-02 3.11551E-23
2.86793E-02 2.96296E-23
2.94120E-02 2.81971E-23
3.01537E-02 2.68508E-23
3.09043E-02 2.55843E-23
3.16639E-02 2.43922E-23
3.24324E-02 2.32692E-23
3.32098E-02 2.22105E-23
3.39961E-02 2.12117E-23
3.47912E-02 2.02688E-23
3.55952E-02 1.93781E-23
3.64081E-02 1.85361E-23
3.72297E-02 1.77395E-23
3.80602E-02 1.69856E-23
3.88995E-02 1.62716E-23
3.97476E-02 1.55949E-23
4.06044E-02 1.49532E-23
4.14700E-02 1.43443E-23
4.23443E-02 1.37663E-23
4.32273E-02 1.32173E-23
4.41190E-02 1.26955E-23
4.50194E-02 1.21993E-23
4.59284E-02 1.17273E-23
4.68461E-02 1.12780E-23
4.87074E-02 1.04424E-23
5.06030E-02 9.68308E-24
5.25328E-02 8.99181E-24
5.44967E-02 8.36136E-24
5.64946E-02 7.78538E-24
5.85262E-02 7.25829E-24
6.05914E-02 6.77517E-24
6.26901E-02 6.33167E-24
6.48222E-02 5.92393E-24
6.69873E-02 5.54854E-24
6.91854E-02 5.20243E-24
7.14163E-02 4.88291E-24
7.36799E-02 4.58755E-24
7.59760E-02 4.31417E-24
7.83043E-02 4.06084E-24
8.06647E-02 3.82580E-24
8.30571E-02 3.60750E-24
8.54812E-02 3.40450E-24
8.79369E-02 3.21554E-24
9.04240E-02 3.03946E-24
9.29422E-02 2.87523E-24
9.54915E-02 2.72188E-24
9.80716E-02 2.57857E-24
1.00682E-01 2.44452E-24
1.03323E-01 2.31901E-24
1.05995E-01 2.20139E-24
1.08696E-01 2.09108E-24
1.11427E-01 1.98753E-24
1.14188E-01 1.89026E-24
1.16978E-01 1.79881E-24
1.19797E-01 1.71277E-24
1.22645E-01 1.63176E-24
1.25522E-01 1.55542E-24
1.28428E-01 1.48344E-24
1.31361E-01 1.41552E-24
1.34323E-01 1.35140E-24
1.37313E-01 1.29081E-24
1.40330E-01 1.23352E-24
1.43375E-01 1.17933E-24
1.46447E-01 1.12803E-24
1.49545E-01 1.07945E-24
1.52671E-01 1.03340E-24
1.55823E-01 9.89737E-25
1.59001E-01 9.48310E-25
1.62205E-01 9.08983E-25
1.65435E-01 8.71630E-25
1.68690E-01 8.36133E-25
1.71970E-01 8.02384E-25
1.75276E-01 7.70280E-25
1.78606E-01 7.39726E-25
1.81961E-01 7.10634E-25
1.85340E-01 6.82920E-25
1.88743E-01 6.56507E-25
1.92169E-01 6.31323E-25
1.95619E-01 6.07300E-25
1.99092E-01 5.84375E-25
2.02589E-01 5.62488E-25
2.06107E-01 5.41583E-25
2.09649E-01 5.21610E-25
2.13212E-01 5.02518E-25
2.16797E-01 4.84261E-25
2.20404E-01 4.66797E-25
2.24032E-01 4.50084E-25
2.27680E-01 4.34085E-25
2.31350E-01 4.18763E-25
2.35040E-01 4.04085E-25
2.38751E-01 3.90018E-25
2.42481E-01 3.76534E-25
2.46231E-01 3.63602E-25
2.50000E-01 3.51197E-25
2.53788E-01 3.39293E-25
2.57595E-01 3.27867E-25
2.61421E-01 3.16895E-25
2.65264E-01 3.06357E-25
2.69126E-01 2.96232E-25
2.73005E-01 2.86501E-25
2.76901E-01 2.77147E-25
2.80814E-01 2.68151E-25
2.84744E-01 2.59499E-25
2.88691E-01 2.51174E-25
2.92653E-01 2.43162E-25
2.96632E-01 2.35449E-25
3.00625E-01 2.28022E-25
3.04634E-01 2.20869E-25
3.08658E-01 2.13978E-25
3.12697E-01 2.07337E-25
3.16749E-01 2.00936E-25
3.20816E-01 1.94765E-25
3.24896E-01 1.88814E-25
3.28990E-01 1.83073E-25
3.33097E-01 1.77535E-25
3.37216E-01 1.72191E-25
3.41348E-01 1.67033E-25
3.45492E-01 1.62052E-25
3.49647E-01 1.57243E-25
3.53814E-01 1.52599E-25
3.57992E-01 1.48112E-25
3.62181E-01 1.43776E-25
3.66381E-01 1.39586E-25
3.70590E-01 1.35536E-25
3.74810E-01 1.31620E-25
3.79039E-01 1.27834E-25
3.83277E-01 1.24172E-25
3.87524E-01 1.20629E-25
3.91780E-01 1.17201E-25
3.96044E-01 1.13884E-25
4.00316E-01 1.10673E-25
4.04596E-01 1.07565E-25
4.08882E-01 1.04555E-25
4.13176E-01 1.01641E-25
4.17476E-01 9.88179E-26
4.21783E-01 9.60834E-26
4.26095E-01 9.34339E-26
4.30413E-01 9.08664E-26
4.34737E-01 8.83780E-26
4.39065E-01 8.59659E-26
4.43398E-01 8.36273E-26
4.47736E-01 8.13596E-26
4.52077E-01 7.91605E-26
4.56422E-01 7.70274E-26
4.60770E-01 7.49582E-26
4.65122E-01 7.29505E-26
4.69476E-01 7.10024E-26
4.73832E-01 6.91117E-26
4.78190E-01 6.72765E-26
4.82550E-01 6.54949E-26
4.86912E-01 6.37652E-26
4.91274E-01 6.20856E-26
4.95637E-01 6.04544E-26
5.00000E-01 5.88701E-26
5.04363E-01 5.73311E-26
5.08726E-01 5.58358E-26
5.13088E-01 5.43830E-26
5.17450E-01 5.29711E-26
5.21810E-01 5.15990E-26
5.26168E-01 5.02652E-26
5.30524E-01 4.89687E-26
5.34878E-01 4.77081E-26
5.39230E-01 4.64824E-26
5.43578E-01 4.52904E-26
5.47923E-01 4.41311E-26
5.52264E-01 4.30035E-26
5.56602E-01 4.19066E-26
5.60935E-01 4.08395E-26
5.65263E-01 3.98012E-26
5.69587E-01 3.87908E-26
5.73905E-01 3.78075E-26
5.78217E-01 3.68504E-26
5.82524E-01 3.59188E-26
5.86824E-01 3.50120E-26
5.91118E-01 3.41290E-26
5.95404E-01 3.32694E-26
5.99684E-01 3.24322E-26
6.03956E-01 3.16170E-26
6.08220E-01 3.08230E-26
6.12476E-01 3.00496E-26
6.16723E-01 2.92963E-26
6.20961E-01 2.85623E-26
6.25190E-01 2.78472E-26
6.29410E-01 2.71505E-26
6.33619E-01 2.64715E-26
6.37819E-01 2.58098E-26
6.42008E-01 2.51649E-26
6.46186E-01 2.45363E-26
6.50353E-01 2.39236E-26
6.54508E-01 2.33263E-26
6.58652E-01 2.27439E-26
6.62784E-01 2.21761E-26
6.66903E-01 2.16224E-26
6.71010E-01 2.10825E-26
6.75104E-01 2.05560E-26
6.79184E-01 2.00425E-26
6.83251E-01 1.95416E-26
6.87303E-01 1.90530E-26
6.91342E-01 1.85764E-26
6.95366E-01 1.81115E-26
6.99375E-01 1.76579E-26
7.03368E-01 1.72153E-26
7.07347E-01 1.67834E-26
7.11309E-01 1.63620E-26
7.15256E-01 1.59507E-26
7.19186E-01 1.55493E-26
7.23099E-01 1.51576E-26
7.26995E-01 1.47752E-26
7.30874E-01 1.44020E-26
7.34736E-01 1.40377E-26
7.38579E-01 1.36820E-26
7.42405E-01 1.33348E-26
7.46212E-01 1.29958E-26
7.50000E-01 1.26648E-26
7.53769E-01 1.23417E-26
7.57519E-01 1.20261E-26
7.61249E-01 1.17179E-26
7.64960E-01 1.14170E-26
7.68650E-01 1.11231E-26
7.72320E-01 1.08361E-26
7.75968E-01 1.05558E-26
7.79596E-01 1.02820E-26
7.83203E-01 1.00146E-26
7.86788E-01 9.75335E-27
7.90351E-01 9.49818E-27
7.93893E-01 9.24892E-27
7.97411E-01 9.00541E-27
8.00908E-01 8.76753E-27
8.04381E-01 8.53513E-27
8.07831E-01 8.30809E-27
8.11257E-01 8.08626E-27
8.14660E-01 7.86954E-27
8.18039E-01 7.65778E-27
8.21394E-01 7.45089E-27
8.24724E-01 7.24873E-27
8.28030E-01 7.05121E-27
8.31310E-01 6.85820E-27
8.34565E-01 6.66961E-27
8.37795E-01 6.48533E-27
8.40999E-01 6.30526E-27
8.44177E-01 6.12931E-27
8.47329E-01 5.95737E-27
8.50455E-01 5.78937E-27
8.53553E-01 5.62519E-27
8.56625E-01 5.46477E-27
8.59670E-01 5.30802E-27
8.62687E-01 5.15484E-27
8.65677E-01 5.00517E-27
8.68639E-01 4.85892E-27
8.71572E-01 4.71602E-27
8.74478E-01 4.57640E-27
8.77355E-01 4.43997E-27
8.80203E-01 4.30668E-27
8.83022E-01 4.17646E-27
8.85812E-01 4.04923E-27
8.88573E-01 3.92493E-27
8.91304E-01 3.80350E-27
8.94005E-01 3.68489E-27
8.96677E-01 3.56902E-27
8.99318E-01 3.45584E-27
9.01928E-01 3.34530E-27
9.04508E-01 3.23734E-27
9.07058E-01 3.13191E-27
9.09576E-01 3.02895E-27
9.12063E-01 2.92842E-27
9.14519E-01 2.83027E-27
9.16943E-01 2.73444E-27
9.19335E-01 2.64090E-27
9.21696E-01 2.54959E-27
9.24024E-01 2.46047E-27
9.26320E-01 2.37350E-27
9.28584E-01 2.28865E-27
9.30815E-01 2.20586E-27
9.33013E-01 2.12509E-27
9.35178E-01 2.04632E-27
9.37310E-01 1.96950E-27
9.39409E-01 1.89460E-27
9.41474E-01 1.82157E-27
9.43505E-01 1.75040E-27
9.45503E-01 1.68104E-27
9.47467E-01 1.61346E-27
9.49397E-01 1.54763E-27
9.51293E-01 1.48352E-27
9.53154E-01 1.42110E-27
9.54981E-01 1.36034E-27
9.56773E-01 1.30122E-27
9.58530E-01 1.24370E-27
9.60252E-01 1.18776E-27
9.61940E-01 1.13338E-27
9.63592E-01 1.08052E-27
9.65209E-01 1.02917E-27
9.66790E-01 9.79307E-28
9.68336E-01 9.30901E-28
9.69846E-01 8.83933E-28
9.71321E-01 8.38382E-28
9.72759E-01 7.94228E-28
9.74162E-01 7.51450E-28
9.75528E-01 7.10030E-28
9.76858E-01 6.69949E-28
9.78152E-01 6.31190E-28
9.79410E-01 5.93735E-28
9.80631E-01 5.57567E-28
9.81815E-01 5.22671E-28
9.82963E-01 4.89031E-28
9.84074E-01 4.56632E-28
9.85148E-01 4.25460E-28
9.86185E-01 3.95501E-28
9.87185E-01 3.66743E-28
9.88148E-01 3.39171E-28
9.89074E-01 3.12775E-28
9.89962E-01 2.87543E-28
9.90814E-01 2.63464E-28
9.91627E-01 2.40527E-28
9.92404E-01 2.18722E-28
9.93143E-01 1.98040E-28
9.93844E-01 1.78472E-28
9.94508E-01 1.60009E-28
9.95134E-01 1.42644E-28
9.95722E-01 1.26368E-28
9.96273E-01 1.11175E-28
9.96786E-01 9.70576E-29
9.97261E-01 8.40106E-29
9.97698E-01 7.20280E-29
9.98097E-01 6.11045E-29
9.98459E-01 5.12356E-29
9.98782E-01 4.24168E-29
9.99067E-01 3.46445E-29
9.99315E-01 2.79153E-29
9.99524E-01 2.22262E-29
9.99695E-01 1.75748E-29
9.99829E-01 1.39591E-29
9.99924E-01 1.13776E-29
9.99981E-01 9.82918E-30
1.00000E+00 9.31311E-30
