 #
 # Subroutine ELSEPA. Elastic scattering of electrons and positrons
 #                    by neutral atoms and positive ions
 #
 # Projectile: electron
 # Kinetic energy = 8.00000E+07 eV = 2.93995E+06 a.u.
 #
 # WARNING: High-energy factorization with free-atom DF screening.
 #          Absorption, polarization and exchange corrections are
 #          switched off.
 #          Phase shifts are calculated for the bare nucleus.
 #          Scattering amplitudes are not evaluated.
 #
 # Element: Mo,  Z =  42,  atomic weight = 9.59400E+01 g/mol
 #
 # Nuclear model: Fermi distribution
 #                Average radius = 4.89836E-13 cm
 #                Skin thickness = 5.46000E-14 cm
 #
 # Number of electrons = 42
 #
 # Total elastic cross section = 4.05989E-18 cm**2 = 1.44981E-01 a0**2
 # 1st transport cross section = 5.44398E-25 cm**2 = 1.94408E-08 a0**2
 # 2nd transport cross section = 1.61334E-24 cm**2 = 5.76136E-08 a0**2
 #
 #
 # Differential cross section:                       MU=(1-COS(THETA))/2
 #
 #  THETA        MU          DCS          DCS        Sherman      error
 #  (deg)                 (cm**2/sr)   (a0**2/sr)    function
 #----------------------------------------------------------------------
0.00000E+00 2.56580E-10
7.61557E-13 2.56073E-10
1.18994E-12 2.55789E-10
1.71346E-12 2.55443E-10
2.33225E-12 2.55035E-10
3.04617E-12 2.54566E-10
3.85530E-12 2.54037E-10
4.75964E-12 2.53447E-10
5.75917E-12 2.52798E-10
6.85391E-12 2.52091E-10
8.04379E-12 2.51326E-10
9.32893E-12 2.50505E-10
1.07092E-11 2.49628E-10
1.21847E-11 2.48696E-10
1.37554E-11 2.47712E-10
1.54213E-11 2.46675E-10
1.71823E-11 2.45587E-10
1.90386E-11 2.44450E-10
2.09900E-11 2.43265E-10
2.30367E-11 2.42032E-10
2.51785E-11 2.40754E-10
2.74156E-11 2.39432E-10
2.97478E-11 2.38068E-10
3.21752E-11 2.36662E-10
3.46979E-11 2.35217E-10
3.73157E-11 2.33730E-10
4.00286E-11 2.32206E-10
4.28368E-11 2.30650E-10
4.57402E-11 2.29061E-10
4.87388E-11 2.27443E-10
5.18325E-11 2.25797E-10
5.50215E-11 2.24124E-10
5.83057E-11 2.22413E-10
6.16850E-11 2.20679E-10
6.51595E-11 2.18922E-10
6.87293E-11 2.17145E-10
7.23943E-11 2.15351E-10
7.61544E-11 2.13539E-10
1.18991E-10 1.94636E-10
1.71347E-10 1.75320E-10
2.33223E-10 1.56588E-10
3.04617E-10 1.39107E-10
3.85531E-10 1.23219E-10
4.75965E-10 1.09028E-10
5.75917E-10 9.65139E-11
6.85389E-10 8.55306E-11
8.04380E-10 7.59532E-11
9.32891E-10 6.75735E-11
1.07092E-09 6.02777E-11
1.21847E-09 5.38704E-11
1.37554E-09 4.82720E-11
1.54213E-09 4.33342E-11
1.71823E-09 3.89934E-11
1.90386E-09 3.51484E-11
2.09900E-09 3.17468E-11
2.30367E-09 2.87224E-11
2.51785E-09 2.60314E-11
2.74156E-09 2.36312E-11
2.97478E-09 2.14850E-11
3.21752E-09 1.95657E-11
3.46978E-09 1.78421E-11
3.73156E-09 1.62171E-11
4.00286E-09 1.47652E-11
4.28368E-09 1.34942E-11
4.57402E-09 1.23774E-11
4.87388E-09 1.13924E-11
5.18326E-09 1.05206E-11
5.50215E-09 9.74624E-12
5.83057E-09 8.96517E-12
6.16850E-09 8.26331E-12
6.51596E-09 7.63741E-12
6.87293E-09 7.07761E-12
7.23942E-09 6.57551E-12
7.61544E-09 6.12394E-12
1.18991E-08 3.16205E-12
1.71347E-08 1.83174E-12
2.33223E-08 1.15101E-12
3.04617E-08 7.64166E-13
3.85531E-08 5.26356E-13
4.75965E-08 3.72052E-13
5.75917E-08 2.68922E-13
6.85389E-08 1.97962E-13
8.04380E-08 1.48486E-13
9.32891E-08 1.13218E-13
1.07092E-07 8.77492E-14
1.21847E-07 6.90363E-14
1.37554E-07 5.51009E-14
1.54213E-07 4.45370E-14
1.71823E-07 3.64176E-14
1.90386E-07 3.00855E-14
2.09900E-07 2.50898E-14
2.30367E-07 2.11023E-14
2.51785E-07 1.78862E-14
2.74156E-07 1.52659E-14
2.97478E-07 1.31110E-14
3.21752E-07 1.13245E-14
3.46978E-07 9.83192E-15
3.73156E-07 8.57251E-15
4.00286E-07 7.51148E-15
4.28368E-07 6.61451E-15
4.57402E-07 5.83926E-15
4.87388E-07 5.17728E-15
5.18325E-07 4.60675E-15
5.50215E-07 4.10948E-15
5.83057E-07 3.67907E-15
6.16850E-07 3.30242E-15
6.51596E-07 2.97201E-15
6.87293E-07 2.68274E-15
7.23942E-07 2.42639E-15
7.61543E-07 2.20008E-15
1.18991E-06 9.22642E-16
1.71347E-06 4.51263E-16
2.33223E-06 2.46120E-16
3.04617E-06 1.45499E-16
3.85531E-06 9.14807E-17
4.75964E-06 6.03767E-17
5.75916E-06 4.14433E-17
6.85388E-06 2.93837E-17
8.04378E-06 2.14074E-17
9.32888E-06 1.59622E-17
1.07092E-05 1.21426E-17
1.21846E-05 9.39944E-18
1.37553E-05 7.38857E-18
1.54212E-05 5.88752E-18
1.71822E-05 4.74879E-18
1.90385E-05 3.87172E-18
2.09899E-05 3.18930E-18
2.30365E-05 2.65060E-18
2.51783E-05 2.22070E-18
2.74153E-05 1.87430E-18
2.97475E-05 1.59277E-18
3.21749E-05 1.36214E-18
3.46974E-05 1.17182E-18
3.73152E-05 1.01367E-18
4.00281E-05 8.81361E-19
4.28362E-05 7.69980E-19
4.57395E-05 6.75647E-19
4.87380E-05 5.95316E-19
5.18317E-05 5.26556E-19
5.50205E-05 4.67430E-19
5.83045E-05 4.16370E-19
6.16838E-05 3.72098E-19
6.51582E-05 3.33564E-19
6.87277E-05 2.99900E-19
7.23925E-05 2.70384E-19
7.61524E-05 2.44511E-19
9.21439E-05 1.67180E-19
1.09658E-04 1.18150E-19
1.28695E-04 8.58607E-20
1.49255E-04 6.38877E-20
1.71338E-04 4.85217E-20
1.94942E-04 3.75121E-20
2.20070E-04 2.94579E-20
2.46720E-04 2.34559E-20
2.74892E-04 1.89086E-20
3.04586E-04 1.54131E-20
3.35803E-04 1.26900E-20
3.68542E-04 1.05432E-20
4.02802E-04 8.83236E-21
4.38585E-04 7.45526E-21
4.75889E-04 6.33675E-21
5.14715E-04 5.42062E-21
5.55063E-04 4.66445E-21
5.96931E-04 4.03584E-21
6.40321E-04 3.50979E-21
6.85233E-04 3.06687E-21
7.31665E-04 2.69176E-21
7.79618E-04 2.37237E-21
8.29092E-04 2.09906E-21
8.80086E-04 1.86406E-21
9.32601E-04 1.66110E-21
9.86636E-04 1.48507E-21
1.04219E-03 1.33180E-21
1.09927E-03 1.19782E-21
1.15786E-03 1.08032E-21
1.21797E-03 9.76892E-22
1.27961E-03 8.85578E-22
1.34276E-03 8.04703E-22
1.40743E-03 7.32872E-22
1.47362E-03 6.68890E-22
1.54133E-03 6.11758E-22
1.61056E-03 5.60600E-22
1.68131E-03 5.14696E-22
1.75357E-03 4.73399E-22
1.82735E-03 4.36171E-22
1.90265E-03 4.02537E-22
1.97947E-03 3.72088E-22
2.05780E-03 3.44469E-22
2.13765E-03 3.19370E-22
2.21902E-03 2.96519E-22
2.30190E-03 2.75678E-22
2.38630E-03 2.56640E-22
2.47222E-03 2.39219E-22
2.55965E-03 2.23253E-22
2.64859E-03 2.08599E-22
2.73905E-03 1.95128E-22
2.83103E-03 1.82729E-22
2.92452E-03 1.71301E-22
3.01952E-03 1.60752E-22
3.11604E-03 1.51005E-22
3.21407E-03 1.41985E-22
3.31362E-03 1.33629E-22
3.41468E-03 1.25880E-22
3.51725E-03 1.18684E-22
3.62133E-03 1.11996E-22
3.72692E-03 1.05772E-22
3.83403E-03 9.99749E-23
3.94265E-03 9.45695E-23
4.05278E-03 8.95246E-23
4.16442E-03 8.48115E-23
4.27757E-03 8.04046E-23
4.39223E-03 7.62800E-23
4.50840E-03 7.24165E-23
4.62608E-03 6.87944E-23
4.74527E-03 6.53957E-23
4.86597E-03 6.22042E-23
4.98817E-03 5.92048E-23
5.11188E-03 5.63839E-23
5.23711E-03 5.37287E-23
5.36383E-03 5.12278E-23
5.49207E-03 4.88706E-23
5.62181E-03 4.66471E-23
5.75306E-03 4.45484E-23
5.88581E-03 4.25662E-23
6.02007E-03 4.06927E-23
6.15583E-03 3.89210E-23
6.29310E-03 3.72444E-23
6.43187E-03 3.56569E-23
6.57214E-03 3.41528E-23
6.71392E-03 3.27270E-23
6.85720E-03 3.13745E-23
7.00198E-03 3.00910E-23
7.14827E-03 2.88722E-23
7.29605E-03 2.77142E-23
7.44534E-03 2.66135E-23
7.59612E-03 2.55666E-23
7.97965E-03 2.31652E-23
8.37255E-03 2.10379E-23
8.77480E-03 1.91481E-23
9.18641E-03 1.74646E-23
9.60736E-03 1.59610E-23
1.00376E-02 1.46147E-23
1.04773E-02 1.34064E-23
1.09262E-02 1.23194E-23
1.13844E-02 1.13395E-23
1.18520E-02 1.04542E-23
1.23288E-02 9.65278E-24
1.28150E-02 8.92593E-24
1.33104E-02 8.26546E-24
1.38150E-02 7.66425E-24
1.43290E-02 7.11605E-24
1.48521E-02 6.61534E-24
1.53845E-02 6.15730E-24
1.59262E-02 5.73764E-24
1.64770E-02 5.35258E-24
1.70371E-02 4.99876E-24
1.76063E-02 4.67321E-24
1.81848E-02 4.37325E-24
1.87724E-02 4.09654E-24
1.93692E-02 3.84094E-24
1.99751E-02 3.60456E-24
2.05901E-02 3.38571E-24
2.12143E-02 3.18284E-24
2.18476E-02 2.99460E-24
2.24900E-02 2.81974E-24
2.31415E-02 2.65715E-24
2.38021E-02 2.50580E-24
2.44717E-02 2.36479E-24
2.51504E-02 2.23329E-24
2.58382E-02 2.11055E-24
2.65349E-02 1.99587E-24
2.72407E-02 1.88864E-24
2.79555E-02 1.78830E-24
2.86793E-02 1.69431E-24
2.94120E-02 1.60621E-24
3.01537E-02 1.52357E-24
3.09043E-02 1.44599E-24
3.16639E-02 1.37310E-24
3.24324E-02 1.30458E-24
3.32098E-02 1.24012E-24
3.39961E-02 1.17943E-24
3.47912E-02 1.12226E-24
3.55952E-02 1.06837E-24
3.64081E-02 1.01753E-24
3.72297E-02 9.69557E-25
3.80602E-02 9.24249E-25
3.88995E-02 8.81436E-25
3.97476E-02 8.40958E-25
4.06044E-02 8.02666E-25
4.14700E-02 7.66423E-25
4.23443E-02 7.32100E-25
4.32273E-02 6.99579E-25
4.41190E-02 6.68750E-25
4.50194E-02 6.39511E-25
4.59284E-02 6.11765E-25
4.68461E-02 5.85425E-25
4.87074E-02 5.36635E-25
5.06030E-02 4.92543E-25
5.25328E-02 4.52628E-25
5.44967E-02 4.16436E-25
5.64946E-02 3.83567E-25
5.85262E-02 3.53672E-25
6.05914E-02 3.26441E-25
6.26901E-02 3.01603E-25
6.48222E-02 2.78918E-25
6.69873E-02 2.58171E-25
6.91854E-02 2.39175E-25
7.14163E-02 2.21760E-25
7.36799E-02 2.05777E-25
7.59760E-02 1.91093E-25
7.83043E-02 1.77586E-25
8.06647E-02 1.65150E-25
8.30571E-02 1.53689E-25
8.54812E-02 1.43117E-25
8.79369E-02 1.33355E-25
9.04240E-02 1.24334E-25
9.29422E-02 1.15990E-25
9.54915E-02 1.08266E-25
9.80716E-02 1.01111E-25
1.00682E-01 9.44768E-26
1.03323E-01 8.83217E-26
1.05995E-01 8.26070E-26
1.08696E-01 7.72975E-26
1.11427E-01 7.23611E-26
1.14188E-01 6.77686E-26
1.16978E-01 6.34936E-26
1.19797E-01 5.95116E-26
1.22645E-01 5.58004E-26
1.25522E-01 5.23396E-26
1.28428E-01 4.91107E-26
1.31361E-01 4.60965E-26
1.34323E-01 4.32813E-26
1.37313E-01 4.06507E-26
1.40330E-01 3.81915E-26
1.43375E-01 3.58913E-26
1.46447E-01 3.37390E-26
1.49545E-01 3.17243E-26
1.52671E-01 2.98374E-26
1.55823E-01 2.80697E-26
1.59001E-01 2.64130E-26
1.62205E-01 2.48597E-26
1.65435E-01 2.34028E-26
1.68690E-01 2.20359E-26
1.71970E-01 2.07530E-26
1.75276E-01 1.95485E-26
1.78606E-01 1.84173E-26
1.81961E-01 1.73546E-26
1.85340E-01 1.63560E-26
1.88743E-01 1.54174E-26
1.92169E-01 1.45348E-26
1.95619E-01 1.37048E-26
1.99092E-01 1.29240E-26
2.02589E-01 1.21893E-26
2.06107E-01 1.14978E-26
2.09649E-01 1.08469E-26
2.13212E-01 1.02340E-26
2.16797E-01 9.65679E-27
2.20404E-01 9.11307E-27
2.24032E-01 8.60081E-27
2.27680E-01 8.11810E-27
2.31350E-01 7.66315E-27
2.35040E-01 7.23429E-27
2.38751E-01 6.82996E-27
2.42481E-01 6.44869E-27
2.46231E-01 6.08912E-27
2.50000E-01 5.74996E-27
2.53788E-01 5.43000E-27
2.57595E-01 5.12813E-27
2.61421E-01 4.84329E-27
2.65264E-01 4.57447E-27
2.69126E-01 4.32076E-27
2.73005E-01 4.08127E-27
2.76901E-01 3.85519E-27
2.80814E-01 3.64174E-27
2.84744E-01 3.44020E-27
2.88691E-01 3.24989E-27
2.92653E-01 3.07017E-27
2.96632E-01 2.90043E-27
3.00625E-01 2.74012E-27
3.04634E-01 2.58869E-27
3.08658E-01 2.44564E-27
3.12697E-01 2.31051E-27
3.16749E-01 2.18285E-27
3.20816E-01 2.06224E-27
3.24896E-01 1.94828E-27
3.28990E-01 1.84061E-27
3.33097E-01 1.73887E-27
3.37216E-01 1.64274E-27
3.41348E-01 1.55189E-27
3.45492E-01 1.46605E-27
3.49647E-01 1.38493E-27
3.53814E-01 1.30827E-27
3.57992E-01 1.23582E-27
3.62181E-01 1.16736E-27
3.66381E-01 1.10266E-27
3.70590E-01 1.04152E-27
3.74810E-01 9.83735E-28
3.79039E-01 9.29129E-28
3.83277E-01 8.77525E-28
3.87524E-01 8.28758E-28
3.91780E-01 7.82674E-28
3.96044E-01 7.39125E-28
4.00316E-01 6.97973E-28
4.04596E-01 6.59087E-28
4.08882E-01 6.22343E-28
4.13176E-01 5.87624E-28
4.17476E-01 5.54819E-28
4.21783E-01 5.23824E-28
4.26095E-01 4.94540E-28
4.30413E-01 4.66875E-28
4.34737E-01 4.40738E-28
4.39065E-01 4.16048E-28
4.43398E-01 3.92726E-28
4.47736E-01 3.70695E-28
4.52077E-01 3.49887E-28
4.56422E-01 3.30234E-28
4.60770E-01 3.11674E-28
4.65122E-01 2.94146E-28
4.69476E-01 2.77594E-28
4.73832E-01 2.61965E-28
4.78190E-01 2.47208E-28
4.82550E-01 2.33276E-28
4.86912E-01 2.20123E-28
4.91274E-01 2.07707E-28
4.95637E-01 1.95987E-28
5.00000E-01 1.84926E-28
5.04363E-01 1.74486E-28
5.08726E-01 1.64633E-28
5.13088E-01 1.55336E-28
5.17450E-01 1.46564E-28
5.21810E-01 1.38287E-28
5.26168E-01 1.30479E-28
5.30524E-01 1.23113E-28
5.34878E-01 1.16166E-28
5.39230E-01 1.09613E-28
5.43578E-01 1.03433E-28
5.47923E-01 9.76046E-29
5.52264E-01 9.21092E-29
5.56602E-01 8.69278E-29
5.60935E-01 8.20430E-29
5.65263E-01 7.74380E-29
5.69587E-01 7.30973E-29
5.73905E-01 6.90059E-29
5.78217E-01 6.51500E-29
5.82524E-01 6.15161E-29
5.86824E-01 5.80919E-29
5.91118E-01 5.48655E-29
5.95404E-01 5.18256E-29
5.99684E-01 4.89618E-29
6.03956E-01 4.62639E-29
6.08220E-01 4.37226E-29
6.12476E-01 4.13289E-29
6.16723E-01 3.90743E-29
6.20961E-01 3.69510E-29
6.25190E-01 3.49514E-29
6.29410E-01 3.30683E-29
6.33619E-01 3.12950E-29
6.37819E-01 2.96253E-29
6.42008E-01 2.80530E-29
6.46186E-01 2.65726E-29
6.50353E-01 2.51787E-29
6.54508E-01 2.38663E-29
6.58652E-01 2.26306E-29
6.62784E-01 2.14671E-29
6.66903E-01 2.03715E-29
6.71010E-01 1.93399E-29
6.75104E-01 1.83685E-29
6.79184E-01 1.74537E-29
6.83251E-01 1.65922E-29
6.87303E-01 1.57809E-29
6.91342E-01 1.50166E-29
6.95366E-01 1.42967E-29
6.99375E-01 1.36184E-29
7.03368E-01 1.29792E-29
7.07347E-01 1.23769E-29
7.11309E-01 1.18092E-29
7.15256E-01 1.12739E-29
7.19186E-01 1.07692E-29
7.23099E-01 1.02931E-29
7.26995E-01 9.84394E-30
7.30874E-01 9.42007E-30
7.34736E-01 9.01994E-30
7.38579E-01 8.64208E-30
7.42405E-01 8.28514E-30
7.46212E-01 7.94781E-30
7.50000E-01 7.62890E-30
7.53769E-01 7.32727E-30
7.57519E-01 7.04184E-30
7.61249E-01 6.77161E-30
7.64960E-01 6.51564E-30
7.68650E-01 6.27303E-30
7.72320E-01 6.04297E-30
7.75968E-01 5.82466E-30
7.79596E-01 5.61737E-30
7.83203E-01 5.42041E-30
7.86788E-01 5.23314E-30
7.90351E-01 5.05495E-30
7.93893E-01 4.88528E-30
7.97411E-01 4.72359E-30
8.00908E-01 4.56938E-30
8.04381E-01 4.42218E-30
8.07831E-01 4.28157E-30
8.11257E-01 4.14712E-30
8.14660E-01 4.01845E-30
8.18039E-01 3.89522E-30
8.21394E-01 3.77707E-30
8.24724E-01 3.66370E-30
8.28030E-01 3.55482E-30
8.31310E-01 3.45014E-30
8.34565E-01 3.34942E-30
8.37795E-01 3.25241E-30
8.40999E-01 3.15890E-30
8.44177E-01 3.06867E-30
8.47329E-01 2.98154E-30
8.50455E-01 2.89731E-30
8.53553E-01 2.81582E-30
8.56625E-01 2.73692E-30
8.59670E-01 2.66046E-30
8.62687E-01 2.58630E-30
8.65677E-01 2.51431E-30
8.68639E-01 2.44438E-30
8.71572E-01 2.37640E-30
8.74478E-01 2.31027E-30
8.77355E-01 2.24589E-30
8.80203E-01 2.18318E-30
8.83022E-01 2.12205E-30
8.85812E-01 2.06243E-30
8.88573E-01 2.00425E-30
8.91304E-01 1.94744E-30
8.94005E-01 1.89194E-30
8.96677E-01 1.83771E-30
8.99318E-01 1.78468E-30
9.01928E-01 1.73282E-30
9.04508E-01 1.68207E-30
9.07058E-01 1.63240E-30
9.09576E-01 1.58376E-30
9.12063E-01 1.53613E-30
9.14519E-01 1.48948E-30
9.16943E-01 1.44377E-30
9.19335E-01 1.39898E-30
9.21696E-01 1.35508E-30
9.24024E-01 1.31205E-30
9.26320E-01 1.26986E-30
9.28584E-01 1.22851E-30
9.30815E-01 1.18798E-30
9.33013E-01 1.14824E-30
9.35178E-01 1.10928E-30
9.37310E-01 1.07109E-30
9.39409E-01 1.03366E-30
9.41474E-01 9.96967E-31
9.43505E-01 9.61013E-31
9.45503E-01 9.25785E-31
9.47467E-01 8.91273E-31
9.49397E-01 8.57470E-31
9.51293E-01 8.24369E-31
9.53154E-01 7.91963E-31
9.54981E-01 7.60247E-31
9.56773E-01 7.29214E-31
9.58530E-01 6.98861E-31
9.60252E-01 6.69182E-31
9.61940E-01 6.40173E-31
9.63592E-01 6.11832E-31
9.65209E-01 5.84153E-31
9.66790E-01 5.57135E-31
9.68336E-01 5.30775E-31
9.69846E-01 5.05070E-31
9.71321E-01 4.80017E-31
9.72759E-01 4.55615E-31
9.74162E-01 4.31862E-31
9.75528E-01 4.08756E-31
9.76858E-01 3.86295E-31
9.78152E-01 3.64478E-31
9.79410E-01 3.43304E-31
9.80631E-01 3.22771E-31
9.81815E-01 3.02879E-31
9.82963E-01 2.83625E-31
9.84074E-01 2.65011E-31
9.85148E-01 2.47033E-31
9.86185E-01 2.29692E-31
9.87185E-01 2.12987E-31
9.88148E-01 1.96918E-31
9.89074E-01 1.81482E-31
9.89962E-01 1.66681E-31
9.90814E-01 1.52514E-31
9.91627E-01 1.38979E-31
9.92404E-01 1.26076E-31
9.93143E-01 1.13806E-31
9.93844E-01 1.02167E-31
9.94508E-01 9.11598E-32
9.95134E-01 8.07832E-32
9.95722E-01 7.10370E-32
9.96273E-01 6.19210E-32
9.96786E-01 5.34350E-32
9.97261E-01 4.55786E-32
9.97698E-01 3.83516E-32
9.98097E-01 3.17537E-32
9.98459E-01 2.57849E-32
9.98782E-01 2.04448E-32
9.99067E-01 1.57334E-32
9.99315E-01 1.16504E-32
9.99524E-01 8.19585E-33
9.99695E-01 5.36951E-33
9.99829E-01 3.17133E-33
9.99924E-01 1.60125E-33
9.99981E-01 6.59220E-34
1.00000E+00 3.45240E-34
