 #
 # Subroutine ELSEPA. Elastic scattering of electrons and positrons
 #                    by neutral atoms and positive ions
 #
 # Projectile: electron
 # Kinetic energy = 4.00000E+06 eV = 1.46997E+05 a.u.
 #
 # WARNING: High-energy factorization with free-atom DF screening.
 #          Absorption, polarization and exchange corrections are
 #          switched off.
 #          Phase shifts are calculated for the bare nucleus.
 #          Scattering amplitudes are not evaluated.
 #
 # Element: Te,  Z =  52,  atomic weight = 1.27600E+02 g/mol
 #
 # Nuclear model: Fermi distribution
 #                Average radius = 5.38684E-13 cm
 #                Skin thickness = 5.46000E-14 cm
 #
 # Number of electrons = 52
 #
 # Total elastic cross section = 5.60097E-18 cm**2 = 2.00014E-01 a0**2
 # 1st transport cross section = 2.10327E-22 cm**2 = 7.51090E-06 a0**2
 # 2nd transport cross section = 5.83429E-22 cm**2 = 2.08346E-05 a0**2
 #
 #
 # Differential cross section:                       MU=(1-COS(THETA))/2
 #
 #  THETA        MU          DCS          DCS        Sherman      error
 #  (deg)                 (cm**2/sr)   (a0**2/sr)    function
 #----------------------------------------------------------------------
0.00000E+00 9.16663E-13
7.61557E-13 9.16659E-13
1.18994E-12 9.16657E-13
1.71346E-12 9.16655E-13
2.33225E-12 9.16652E-13
3.04617E-12 9.16648E-13
3.85530E-12 9.16644E-13
4.75964E-12 9.16640E-13
5.75917E-12 9.16635E-13
6.85391E-12 9.16629E-13
8.04379E-12 9.16623E-13
9.32893E-12 9.16617E-13
1.07092E-11 9.16610E-13
1.21847E-11 9.16603E-13
1.37554E-11 9.16595E-13
1.54213E-11 9.16587E-13
1.71823E-11 9.16578E-13
1.90386E-11 9.16569E-13
2.09900E-11 9.16559E-13
2.30367E-11 9.16549E-13
2.51785E-11 9.16538E-13
2.74156E-11 9.16527E-13
2.97478E-11 9.16516E-13
3.21752E-11 9.16504E-13
3.46979E-11 9.16491E-13
3.73157E-11 9.16478E-13
4.00286E-11 9.16465E-13
4.28368E-11 9.16451E-13
4.57402E-11 9.16436E-13
4.87388E-11 9.16421E-13
5.18325E-11 9.16406E-13
5.50215E-11 9.16390E-13
5.83057E-11 9.16374E-13
6.16850E-11 9.16357E-13
6.51595E-11 9.16340E-13
6.87293E-11 9.16322E-13
7.23943E-11 9.16304E-13
7.61544E-11 9.16285E-13
1.18991E-10 9.16072E-13
1.71347E-10 9.15812E-13
2.33223E-10 9.15505E-13
3.04617E-10 9.15150E-13
3.85531E-10 9.14749E-13
4.75965E-10 9.14300E-13
5.75917E-10 9.13805E-13
6.85389E-10 9.13263E-13
8.04380E-10 9.12675E-13
9.32891E-10 9.12040E-13
1.07092E-09 9.11358E-13
1.21847E-09 9.10631E-13
1.37554E-09 9.09857E-13
1.54213E-09 9.09038E-13
1.71823E-09 9.08173E-13
1.90386E-09 9.07263E-13
2.09900E-09 9.06308E-13
2.30367E-09 9.05307E-13
2.51785E-09 9.04262E-13
2.74156E-09 9.03172E-13
2.97478E-09 9.02038E-13
3.21752E-09 9.00861E-13
3.46978E-09 8.99639E-13
3.73156E-09 8.98374E-13
4.00286E-09 8.97066E-13
4.28368E-09 8.95715E-13
4.57402E-09 8.94321E-13
4.87388E-09 8.92886E-13
5.18326E-09 8.91409E-13
5.50215E-09 8.89889E-13
5.83057E-09 8.88329E-13
6.16850E-09 8.86727E-13
6.51596E-09 8.85086E-13
6.87293E-09 8.83404E-13
7.23942E-09 8.81682E-13
7.61544E-09 8.79921E-13
1.18991E-08 8.60200E-13
1.71347E-08 8.37031E-13
2.33223E-08 8.10790E-13
3.04617E-08 7.82084E-13
3.85531E-08 7.51462E-13
4.75965E-08 7.19456E-13
5.75917E-08 6.86537E-13
6.85389E-08 6.52848E-13
8.04380E-08 6.19131E-13
9.32891E-08 5.85757E-13
1.07092E-07 5.53035E-13
1.21847E-07 5.21212E-13
1.37554E-07 4.90292E-13
1.54213E-07 4.60534E-13
1.71823E-07 4.32162E-13
1.90386E-07 4.05240E-13
2.09900E-07 3.79794E-13
2.30367E-07 3.55795E-13
2.51785E-07 3.33126E-13
2.74156E-07 3.11919E-13
2.97478E-07 2.92120E-13
3.21752E-07 2.73664E-13
3.46978E-07 2.56483E-13
3.73156E-07 2.40443E-13
4.00286E-07 2.25527E-13
4.28368E-07 2.11689E-13
4.57402E-07 1.98852E-13
4.87388E-07 1.86945E-13
5.18325E-07 1.75887E-13
5.50215E-07 1.65597E-13
5.83057E-07 1.56053E-13
6.16850E-07 1.47195E-13
6.51596E-07 1.38968E-13
6.87293E-07 1.31322E-13
7.23942E-07 1.24191E-13
7.61543E-07 1.17550E-13
1.18991E-06 7.07300E-14
1.71347E-06 4.54889E-14
2.33223E-06 3.04136E-14
3.04617E-06 2.10140E-14
3.85531E-06 1.48908E-14
4.75964E-06 1.07802E-14
5.75916E-06 7.95965E-15
6.85388E-06 5.98332E-15
8.04378E-06 4.59324E-15
9.32888E-06 3.59380E-15
1.07092E-05 2.86054E-15
1.21846E-05 2.31217E-15
1.37553E-05 1.89340E-15
1.54212E-05 1.56830E-15
1.71822E-05 1.31225E-15
1.90385E-05 1.10731E-15
2.09899E-05 9.42092E-16
2.30365E-05 8.06573E-16
2.51783E-05 6.93906E-16
2.74153E-05 6.00105E-16
2.97475E-05 5.21274E-16
3.21749E-05 4.54636E-16
3.46974E-05 3.98146E-16
3.73152E-05 3.49910E-16
4.00281E-05 3.08637E-16
4.28362E-05 2.73195E-16
4.57395E-05 2.42616E-16
4.87380E-05 2.16120E-16
5.18317E-05 1.93062E-16
5.50205E-05 1.72916E-16
5.83045E-05 1.55303E-16
6.16838E-05 1.39863E-16
6.51582E-05 1.26292E-16
6.87277E-05 1.14330E-16
7.23925E-05 1.03750E-16
7.61524E-05 9.43740E-17
9.21439E-05 6.60323E-17
1.09658E-04 4.76238E-17
1.28695E-04 3.52345E-17
1.49255E-04 2.66601E-17
1.71338E-04 2.05581E-17
1.94942E-04 1.61117E-17
2.20070E-04 1.28040E-17
2.46720E-04 1.03019E-17
2.74892E-04 8.38221E-18
3.04586E-04 6.88933E-18
3.35803E-04 5.71380E-18
3.68542E-04 4.77789E-18
4.02802E-04 4.02488E-18
4.38585E-04 3.41433E-18
4.75889E-04 2.91518E-18
5.14715E-04 2.50389E-18
5.55063E-04 2.16258E-18
5.96931E-04 1.87732E-18
6.40321E-04 1.63756E-18
6.85233E-04 1.43492E-18
7.31665E-04 1.26271E-18
7.79618E-04 1.11562E-18
8.29092E-04 9.89360E-19
8.80086E-04 8.80477E-19
9.32601E-04 7.86210E-19
9.86636E-04 7.04266E-19
1.04219E-03 6.32759E-19
1.09927E-03 5.70133E-19
1.15786E-03 5.15082E-19
1.21797E-03 4.66543E-19
1.27961E-03 4.23612E-19
1.34276E-03 3.85530E-19
1.40743E-03 3.51650E-19
1.47362E-03 3.21427E-19
1.54133E-03 2.94393E-19
1.61056E-03 2.70157E-19
1.68131E-03 2.48376E-19
1.75357E-03 2.28757E-19
1.82735E-03 2.11048E-19
1.90265E-03 1.95025E-19
1.97947E-03 1.80503E-19
2.05780E-03 1.67314E-19
2.13765E-03 1.55315E-19
2.21902E-03 1.44378E-19
2.30190E-03 1.34392E-19
2.38630E-03 1.25258E-19
2.47222E-03 1.16892E-19
2.55965E-03 1.09216E-19
2.64859E-03 1.02164E-19
2.73905E-03 9.56748E-20
2.83103E-03 8.96951E-20
2.92452E-03 8.41781E-20
3.01952E-03 7.90813E-20
3.11604E-03 7.43667E-20
3.21407E-03 7.00004E-20
3.31362E-03 6.59515E-20
3.41468E-03 6.21928E-20
3.51725E-03 5.86997E-20
3.62133E-03 5.54499E-20
3.72692E-03 5.24234E-20
3.83403E-03 4.96018E-20
3.94265E-03 4.69685E-20
4.05278E-03 4.45088E-20
4.16442E-03 4.22091E-20
4.27757E-03 4.00569E-20
4.39223E-03 3.80412E-20
4.50840E-03 3.61514E-20
4.62608E-03 3.43782E-20
4.74527E-03 3.27132E-20
4.86597E-03 3.11485E-20
4.98817E-03 2.96769E-20
5.11188E-03 2.82918E-20
5.23711E-03 2.69870E-20
5.36383E-03 2.57572E-20
5.49207E-03 2.45971E-20
5.62181E-03 2.35022E-20
5.75306E-03 2.24679E-20
5.88581E-03 2.14903E-20
6.02007E-03 2.05657E-20
6.15583E-03 1.96907E-20
6.29310E-03 1.88621E-20
6.43187E-03 1.80770E-20
6.57214E-03 1.73326E-20
6.71392E-03 1.66265E-20
6.85720E-03 1.59562E-20
7.00198E-03 1.53197E-20
7.14827E-03 1.47149E-20
7.29605E-03 1.41399E-20
7.44534E-03 1.35929E-20
7.59612E-03 1.30723E-20
7.97965E-03 1.18768E-20
8.37255E-03 1.08161E-20
8.77480E-03 9.87215E-21
9.18641E-03 9.02990E-21
9.60736E-03 8.27639E-21
1.00376E-02 7.60062E-21
1.04773E-02 6.99309E-21
1.09262E-02 6.44566E-21
1.13844E-02 5.95132E-21
1.18520E-02 5.50394E-21
1.23288E-02 5.09829E-21
1.28150E-02 4.72974E-21
1.33104E-02 4.39427E-21
1.38150E-02 4.08837E-21
1.43290E-02 3.80893E-21
1.48521E-02 3.55325E-21
1.53845E-02 3.31893E-21
1.59262E-02 3.10385E-21
1.64770E-02 2.90613E-21
1.70371E-02 2.72411E-21
1.76063E-02 2.55631E-21
1.81848E-02 2.40140E-21
1.87724E-02 2.25821E-21
1.93692E-02 2.12569E-21
1.99751E-02 2.00288E-21
2.05901E-02 1.88893E-21
2.12143E-02 1.78310E-21
2.18476E-02 1.68468E-21
2.24900E-02 1.59305E-21
2.31415E-02 1.50767E-21
2.38021E-02 1.42802E-21
2.44717E-02 1.35364E-21
2.51504E-02 1.28412E-21
2.58382E-02 1.21907E-21
2.65349E-02 1.15815E-21
2.72407E-02 1.10106E-21
2.79555E-02 1.04750E-21
2.86793E-02 9.97204E-22
2.94120E-02 9.49945E-22
3.01537E-02 9.05499E-22
3.09043E-02 8.63667E-22
3.16639E-02 8.24263E-22
3.24324E-02 7.87120E-22
3.32098E-02 7.52082E-22
3.39961E-02 7.19006E-22
3.47912E-02 6.87760E-22
3.55952E-02 6.58225E-22
3.64081E-02 6.30284E-22
3.72297E-02 6.03838E-22
3.80602E-02 5.78790E-22
3.88995E-02 5.55050E-22
3.97476E-02 5.32538E-22
4.06044E-02 5.11176E-22
4.14700E-02 4.90895E-22
4.23443E-02 4.71628E-22
4.32273E-02 4.53315E-22
4.41190E-02 4.35898E-22
4.50194E-02 4.19327E-22
4.59284E-02 4.03549E-22
4.68461E-02 3.88521E-22
4.87074E-02 3.60545E-22
5.06030E-02 3.35087E-22
5.25328E-02 3.11878E-22
5.44967E-02 2.90680E-22
5.64946E-02 2.71287E-22
5.85262E-02 2.53513E-22
6.05914E-02 2.37199E-22
6.26901E-02 2.22200E-22
6.48222E-02 2.08391E-22
6.69873E-02 1.95657E-22
6.91854E-02 1.83899E-22
7.14163E-02 1.73028E-22
7.36799E-02 1.62963E-22
7.59760E-02 1.53632E-22
7.83043E-02 1.44972E-22
8.06647E-02 1.36925E-22
8.30571E-02 1.29438E-22
8.54812E-02 1.22466E-22
8.79369E-02 1.15964E-22
9.04240E-02 1.09897E-22
9.29422E-02 1.04227E-22
9.54915E-02 9.89247E-23
9.80716E-02 9.39609E-23
1.00682E-01 8.93097E-23
1.03323E-01 8.49475E-23
1.05995E-01 8.08527E-23
1.08696E-01 7.70056E-23
1.11427E-01 7.33880E-23
1.14188E-01 6.99836E-23
1.16978E-01 6.67771E-23
1.19797E-01 6.37548E-23
1.22645E-01 6.09040E-23
1.25522E-01 5.82129E-23
1.28428E-01 5.56707E-23
1.31361E-01 5.32676E-23
1.34323E-01 5.09943E-23
1.37313E-01 4.88424E-23
1.40330E-01 4.68041E-23
1.43375E-01 4.48721E-23
1.46447E-01 4.30399E-23
1.49545E-01 4.13010E-23
1.52671E-01 3.96499E-23
1.55823E-01 3.80812E-23
1.59001E-01 3.65900E-23
1.62205E-01 3.51716E-23
1.65435E-01 3.38217E-23
1.68690E-01 3.25363E-23
1.71970E-01 3.13117E-23
1.75276E-01 3.01444E-23
1.78606E-01 2.90313E-23
1.81961E-01 2.79692E-23
1.85340E-01 2.69554E-23
1.88743E-01 2.59872E-23
1.92169E-01 2.50622E-23
1.95619E-01 2.41779E-23
1.99092E-01 2.33323E-23
2.02589E-01 2.25233E-23
2.06107E-01 2.17489E-23
2.09649E-01 2.10075E-23
2.13212E-01 2.02972E-23
2.16797E-01 1.96166E-23
2.20404E-01 1.89642E-23
2.24032E-01 1.83384E-23
2.27680E-01 1.77381E-23
2.31350E-01 1.71619E-23
2.35040E-01 1.66087E-23
2.38751E-01 1.60774E-23
2.42481E-01 1.55669E-23
2.46231E-01 1.50763E-23
2.50000E-01 1.46046E-23
2.53788E-01 1.41509E-23
2.57595E-01 1.37145E-23
2.61421E-01 1.32944E-23
2.65264E-01 1.28901E-23
2.69126E-01 1.25007E-23
2.73005E-01 1.21256E-23
2.76901E-01 1.17642E-23
2.80814E-01 1.14158E-23
2.84744E-01 1.10800E-23
2.88691E-01 1.07561E-23
2.92653E-01 1.04436E-23
2.96632E-01 1.01422E-23
3.00625E-01 9.85116E-24
3.04634E-01 9.57021E-24
3.08658E-01 9.29890E-24
3.12697E-01 9.03683E-24
3.16749E-01 8.78363E-24
3.20816E-01 8.53892E-24
3.24896E-01 8.30238E-24
3.28990E-01 8.07367E-24
3.33097E-01 7.85247E-24
3.37216E-01 7.63848E-24
3.41348E-01 7.43143E-24
3.45492E-01 7.23105E-24
3.49647E-01 7.03707E-24
3.53814E-01 6.84925E-24
3.57992E-01 6.66737E-24
3.62181E-01 6.49119E-24
3.66381E-01 6.32050E-24
3.70590E-01 6.15509E-24
3.74810E-01 5.99476E-24
3.79039E-01 5.83933E-24
3.83277E-01 5.68861E-24
3.87524E-01 5.54244E-24
3.91780E-01 5.40066E-24
3.96044E-01 5.26310E-24
4.00316E-01 5.12961E-24
4.04596E-01 5.00006E-24
4.08882E-01 4.87430E-24
4.13176E-01 4.75220E-24
4.17476E-01 4.63362E-24
4.21783E-01 4.51845E-24
4.26095E-01 4.40657E-24
4.30413E-01 4.29787E-24
4.34737E-01 4.19224E-24
4.39065E-01 4.08958E-24
4.43398E-01 3.98979E-24
4.47736E-01 3.89277E-24
4.52077E-01 3.79844E-24
4.56422E-01 3.70669E-24
4.60770E-01 3.61745E-24
4.65122E-01 3.53063E-24
4.69476E-01 3.44615E-24
4.73832E-01 3.36395E-24
4.78190E-01 3.28394E-24
4.82550E-01 3.20607E-24
4.86912E-01 3.13026E-24
4.91274E-01 3.05645E-24
4.95637E-01 2.98457E-24
5.00000E-01 2.91457E-24
5.04363E-01 2.84637E-24
5.08726E-01 2.77993E-24
5.13088E-01 2.71520E-24
5.17450E-01 2.65212E-24
5.21810E-01 2.59065E-24
5.26168E-01 2.53074E-24
5.30524E-01 2.47234E-24
5.34878E-01 2.41540E-24
5.39230E-01 2.35988E-24
5.43578E-01 2.30573E-24
5.47923E-01 2.25293E-24
5.52264E-01 2.20142E-24
5.56602E-01 2.15118E-24
5.60935E-01 2.10216E-24
5.65263E-01 2.05433E-24
5.69587E-01 2.00766E-24
5.73905E-01 1.96212E-24
5.78217E-01 1.91766E-24
5.82524E-01 1.87426E-24
5.86824E-01 1.83190E-24
5.91118E-01 1.79053E-24
5.95404E-01 1.75014E-24
5.99684E-01 1.71070E-24
6.03956E-01 1.67218E-24
6.08220E-01 1.63456E-24
6.12476E-01 1.59781E-24
6.16723E-01 1.56192E-24
6.20961E-01 1.52684E-24
6.25190E-01 1.49257E-24
6.29410E-01 1.45908E-24
6.33619E-01 1.42636E-24
6.37819E-01 1.39437E-24
6.42008E-01 1.36311E-24
6.46186E-01 1.33255E-24
6.50353E-01 1.30267E-24
6.54508E-01 1.27347E-24
6.58652E-01 1.24491E-24
6.62784E-01 1.21699E-24
6.66903E-01 1.18968E-24
6.71010E-01 1.16298E-24
6.75104E-01 1.13686E-24
6.79184E-01 1.11132E-24
6.83251E-01 1.08633E-24
6.87303E-01 1.06188E-24
6.91342E-01 1.03797E-24
6.95366E-01 1.01457E-24
6.99375E-01 9.91680E-25
7.03368E-01 9.69280E-25
7.07347E-01 9.47360E-25
7.11309E-01 9.25909E-25
7.15256E-01 9.04915E-25
7.19186E-01 8.84368E-25
7.23099E-01 8.64256E-25
7.26995E-01 8.44569E-25
7.30874E-01 8.25297E-25
7.34736E-01 8.06431E-25
7.38579E-01 7.87961E-25
7.42405E-01 7.69878E-25
7.46212E-01 7.52173E-25
7.50000E-01 7.34837E-25
7.53769E-01 7.17862E-25
7.57519E-01 7.01239E-25
7.61249E-01 6.84961E-25
7.64960E-01 6.69020E-25
7.68650E-01 6.53408E-25
7.72320E-01 6.38117E-25
7.75968E-01 6.23141E-25
7.79596E-01 6.08472E-25
7.83203E-01 5.94104E-25
7.86788E-01 5.80031E-25
7.90351E-01 5.66245E-25
7.93893E-01 5.52741E-25
7.97411E-01 5.39512E-25
8.00908E-01 5.26553E-25
8.04381E-01 5.13858E-25
8.07831E-01 5.01421E-25
8.11257E-01 4.89237E-25
8.14660E-01 4.77300E-25
8.18039E-01 4.65605E-25
8.21394E-01 4.54147E-25
8.24724E-01 4.42921E-25
8.28030E-01 4.31923E-25
8.31310E-01 4.21147E-25
8.34565E-01 4.10590E-25
8.37795E-01 4.00247E-25
8.40999E-01 3.90113E-25
8.44177E-01 3.80185E-25
8.47329E-01 3.70457E-25
8.50455E-01 3.60927E-25
8.53553E-01 3.51591E-25
8.56625E-01 3.42444E-25
8.59670E-01 3.33483E-25
8.62687E-01 3.24704E-25
8.65677E-01 3.16104E-25
8.68639E-01 3.07679E-25
8.71572E-01 2.99426E-25
8.74478E-01 2.91343E-25
8.77355E-01 2.83425E-25
8.80203E-01 2.75669E-25
8.83022E-01 2.68073E-25
8.85812E-01 2.60634E-25
8.88573E-01 2.53349E-25
8.91304E-01 2.46215E-25
8.94005E-01 2.39229E-25
8.96677E-01 2.32389E-25
8.99318E-01 2.25692E-25
9.01928E-01 2.19136E-25
9.04508E-01 2.12718E-25
9.07058E-01 2.06436E-25
9.09576E-01 2.00287E-25
9.12063E-01 1.94270E-25
9.14519E-01 1.88381E-25
9.16943E-01 1.82620E-25
9.19335E-01 1.76984E-25
9.21696E-01 1.71470E-25
9.24024E-01 1.66077E-25
9.26320E-01 1.60803E-25
9.28584E-01 1.55646E-25
9.30815E-01 1.50604E-25
9.33013E-01 1.45676E-25
9.35178E-01 1.40859E-25
9.37310E-01 1.36153E-25
9.39409E-01 1.31554E-25
9.41474E-01 1.27063E-25
9.43505E-01 1.22677E-25
9.45503E-01 1.18394E-25
9.47467E-01 1.14213E-25
9.49397E-01 1.10133E-25
9.51293E-01 1.06153E-25
9.53154E-01 1.02270E-25
9.54981E-01 9.84846E-26
9.56773E-01 9.47941E-26
9.58530E-01 9.11978E-26
9.60252E-01 8.76944E-26
9.61940E-01 8.42827E-26
9.63592E-01 8.09616E-26
9.65209E-01 7.77301E-26
9.66790E-01 7.45869E-26
9.68336E-01 7.15311E-26
9.69846E-01 6.85617E-26
9.71321E-01 6.56776E-26
9.72759E-01 6.28780E-26
9.74162E-01 6.01619E-26
9.75528E-01 5.75284E-26
9.76858E-01 5.49766E-26
9.78152E-01 5.25058E-26
9.79410E-01 5.01151E-26
9.80631E-01 4.78037E-26
9.81815E-01 4.55709E-26
9.82963E-01 4.34159E-26
9.84074E-01 4.13382E-26
9.85148E-01 3.93369E-26
9.86185E-01 3.74115E-26
9.87185E-01 3.55613E-26
9.88148E-01 3.37858E-26
9.89074E-01 3.20843E-26
9.89962E-01 3.04564E-26
9.90814E-01 2.89015E-26
9.91627E-01 2.74191E-26
9.92404E-01 2.60087E-26
9.93143E-01 2.46700E-26
9.93844E-01 2.34024E-26
9.94508E-01 2.22056E-26
9.95134E-01 2.10791E-26
9.95722E-01 2.00227E-26
9.96273E-01 1.90361E-26
9.96786E-01 1.81187E-26
9.97261E-01 1.72705E-26
9.97698E-01 1.64912E-26
9.98097E-01 1.57804E-26
9.98459E-01 1.51380E-26
9.98782E-01 1.45637E-26
9.99067E-01 1.40575E-26
9.99315E-01 1.36190E-26
9.99524E-01 1.32482E-26
9.99695E-01 1.29451E-26
9.99829E-01 1.27093E-26
9.99924E-01 1.25410E-26
9.99981E-01 1.24401E-26
1.00000E+00 1.24064E-26
