 #
 # Subroutine ELSEPA. Elastic scattering of electrons and positrons
 #                    by neutral atoms and positive ions
 #
 # Projectile: electron
 # Kinetic energy = 1.50000E+08 eV = 5.51240E+06 a.u.
 #
 # WARNING: High-energy factorization with free-atom DF screening.
 #          Absorption, polarization and exchange corrections are
 #          switched off.
 #          Phase shifts are calculated for the bare nucleus.
 #          Scattering amplitudes are not evaluated.
 #
 # Element: Te,  Z =  52,  atomic weight = 1.27600E+02 g/mol
 #
 # Nuclear model: Fermi distribution
 #                Average radius = 5.38684E-13 cm
 #                Skin thickness = 5.46000E-14 cm
 #
 # Number of electrons = 52
 #
 # Total elastic cross section = 5.52093E-18 cm**2 = 1.97156E-01 a0**2
 # 1st transport cross section = 2.35015E-25 cm**2 = 8.39254E-09 a0**2
 # 2nd transport cross section = 7.02322E-25 cm**2 = 2.50804E-08 a0**2
 #
 #
 # Differential cross section:                       MU=(1-COS(THETA))/2
 #
 #  THETA        MU          DCS          DCS        Sherman      error
 #  (deg)                 (cm**2/sr)   (a0**2/sr)    function
 #----------------------------------------------------------------------
0.00000E+00 1.02047E-09
7.61557E-13 1.01571E-09
1.18994E-12 1.01305E-09
1.71346E-12 1.00982E-09
2.33225E-12 1.00602E-09
3.04617E-12 1.00166E-09
3.85530E-12 9.96760E-10
4.75964E-12 9.91325E-10
5.75917E-12 9.85371E-10
6.85391E-12 9.78913E-10
8.04379E-12 9.71966E-10
9.32893E-12 9.64549E-10
1.07092E-11 9.56630E-10
1.21847E-11 9.48253E-10
1.37554E-11 9.39538E-10
1.54213E-11 9.30513E-10
1.71823E-11 9.20947E-10
1.90386E-11 9.11047E-10
2.09900E-11 9.00922E-10
2.30367E-11 8.90548E-10
2.51785E-11 8.79629E-10
2.74156E-11 8.68569E-10
2.97478E-11 8.57398E-10
3.21752E-11 8.45900E-10
3.46979E-11 8.34078E-10
3.73157E-11 8.22226E-10
4.00286E-11 8.10368E-10
4.28368E-11 7.98056E-10
4.57402E-11 7.85693E-10
4.87388E-11 7.73395E-10
5.18325E-11 7.61067E-10
5.50215E-11 7.48361E-10
5.83057E-11 7.35783E-10
6.16850E-11 7.23346E-10
6.51595E-11 7.10738E-10
6.87293E-11 6.98030E-10
7.23943E-11 6.85515E-10
7.61544E-11 6.73202E-10
1.18991E-10 5.52660E-10
1.71347E-10 4.46641E-10
2.33223E-10 3.58574E-10
3.04617E-10 2.87909E-10
3.85531E-10 2.32270E-10
4.75965E-10 1.88923E-10
5.75917E-10 1.55151E-10
6.85389E-10 1.28688E-10
8.04380E-10 1.07766E-10
9.32891E-10 9.10638E-11
1.07092E-09 7.72368E-11
1.21847E-09 6.58735E-11
1.37554E-09 5.69004E-11
1.54213E-09 4.97238E-11
1.71823E-09 4.31783E-11
1.90386E-09 3.76769E-11
2.09900E-09 3.31777E-11
2.30367E-09 2.93961E-11
2.51785E-09 2.58382E-11
2.74156E-09 2.28761E-11
2.97478E-09 2.03907E-11
3.21752E-09 1.81740E-11
3.46978E-09 1.61811E-11
3.73156E-09 1.44856E-11
4.00286E-09 1.30345E-11
4.28368E-09 1.16987E-11
4.57402E-09 1.05315E-11
4.87388E-09 9.52093E-12
5.18326E-09 8.63297E-12
5.50215E-09 7.82235E-12
5.83057E-09 7.11303E-12
6.16850E-09 6.48988E-12
6.51596E-09 5.92964E-12
6.87293E-09 5.42593E-12
7.23942E-09 4.97933E-12
7.61544E-09 4.58208E-12
1.18991E-08 2.18902E-12
1.71347E-08 1.19912E-12
2.33223E-08 7.14315E-13
3.04617E-08 4.49257E-13
3.85531E-08 2.94654E-13
4.75965E-08 2.00382E-13
5.75917E-08 1.40615E-13
6.85389E-08 1.01516E-13
8.04380E-08 7.51633E-14
9.32891E-08 5.68767E-14
1.07092E-07 4.38433E-14
1.21847E-07 3.43890E-14
1.37554E-07 2.73455E-14
1.54213E-07 2.20308E-14
1.71823E-07 1.79545E-14
1.90386E-07 1.47713E-14
2.09900E-07 1.22653E-14
2.30367E-07 1.02701E-14
2.51785E-07 8.66087E-15
2.74156E-07 7.35411E-15
2.97478E-07 6.28489E-15
3.21752E-07 5.40154E-15
3.46978E-07 4.66726E-15
3.73156E-07 4.05363E-15
4.00286E-07 3.53705E-15
4.28368E-07 3.09965E-15
4.57402E-07 2.72784E-15
4.87388E-07 2.41001E-15
5.18325E-07 2.13681E-15
5.50215E-07 1.90129E-15
5.83057E-07 1.69734E-15
6.16850E-07 1.51982E-15
6.51596E-07 1.36495E-15
6.87293E-07 1.22933E-15
7.23942E-07 1.11007E-15
7.61543E-07 1.00494E-15
1.18991E-06 4.17440E-16
1.71347E-06 2.03325E-16
2.33223E-06 1.10581E-16
3.04617E-06 6.51994E-17
3.85531E-06 4.08889E-17
4.75964E-06 2.69232E-17
5.75916E-06 1.84412E-17
6.85388E-06 1.30505E-17
8.04378E-06 9.49260E-18
9.32888E-06 7.06826E-18
1.07092E-05 5.37051E-18
1.21846E-05 4.15310E-18
1.37553E-05 3.26182E-18
1.54212E-05 2.59726E-18
1.71822E-05 2.09363E-18
1.90385E-05 1.70584E-18
2.09899E-05 1.40469E-18
2.30365E-05 1.16706E-18
2.51783E-05 9.77459E-19
2.74153E-05 8.24721E-19
2.97475E-05 7.00623E-19
3.21749E-05 5.99009E-19
3.46974E-05 5.15199E-19
3.73152E-05 4.45589E-19
4.00281E-05 3.87381E-19
4.28362E-05 3.38391E-19
4.57395E-05 2.96907E-19
4.87380E-05 2.61582E-19
5.18317E-05 2.31347E-19
5.50205E-05 2.05350E-19
5.83045E-05 1.82902E-19
6.16838E-05 1.63442E-19
6.51582E-05 1.46507E-19
6.87277E-05 1.31715E-19
7.23925E-05 1.18747E-19
7.61524E-05 1.07505E-19
9.21439E-05 7.35102E-20
1.09658E-04 5.19574E-20
1.28695E-04 3.77642E-20
1.49255E-04 2.81046E-20
1.71338E-04 2.13491E-20
1.94942E-04 1.65082E-20
2.20070E-04 1.29662E-20
2.46720E-04 1.03264E-20
2.74892E-04 8.32606E-21
3.04586E-04 6.78814E-21
3.35803E-04 5.58980E-21
3.68542E-04 4.64496E-21
4.02802E-04 3.89180E-21
4.38585E-04 3.28546E-21
4.75889E-04 2.79290E-21
5.14715E-04 2.38936E-21
5.55063E-04 2.05624E-21
5.96931E-04 1.77926E-21
6.40321E-04 1.54743E-21
6.85233E-04 1.35220E-21
7.31665E-04 1.18683E-21
7.79618E-04 1.04601E-21
8.29092E-04 9.25479E-22
8.80086E-04 8.21832E-22
9.32601E-04 7.32300E-22
9.86636E-04 6.54634E-22
1.04219E-03 5.86998E-22
1.09927E-03 5.27874E-22
1.15786E-03 4.76009E-22
1.21797E-03 4.30357E-22
1.27961E-03 3.90045E-22
1.34276E-03 3.54340E-22
1.40743E-03 3.22624E-22
1.47362E-03 2.94374E-22
1.54133E-03 2.69144E-22
1.61056E-03 2.46554E-22
1.68131E-03 2.26281E-22
1.75357E-03 2.08044E-22
1.82735E-03 1.91602E-22
1.90265E-03 1.76748E-22
1.97947E-03 1.63301E-22
2.05780E-03 1.51104E-22
2.13765E-03 1.40020E-22
2.21902E-03 1.29930E-22
2.30190E-03 1.20727E-22
2.38630E-03 1.12321E-22
2.47222E-03 1.04630E-22
2.55965E-03 9.75818E-23
2.64859E-03 9.11134E-23
2.73905E-03 8.51685E-23
2.83103E-03 7.96971E-23
2.92452E-03 7.46546E-23
3.01952E-03 7.00013E-23
3.11604E-03 6.57018E-23
3.21407E-03 6.17244E-23
3.31362E-03 5.80405E-23
3.41468E-03 5.46245E-23
3.51725E-03 5.14535E-23
3.62133E-03 4.85066E-23
3.72692E-03 4.57652E-23
3.83403E-03 4.32124E-23
3.94265E-03 4.08329E-23
4.05278E-03 3.86126E-23
4.16442E-03 3.65391E-23
4.27757E-03 3.46009E-23
4.39223E-03 3.27876E-23
4.50840E-03 3.10896E-23
4.62608E-03 2.94984E-23
4.74527E-03 2.80059E-23
4.86597E-03 2.66049E-23
4.98817E-03 2.52889E-23
5.11188E-03 2.40517E-23
5.23711E-03 2.28877E-23
5.36383E-03 2.17919E-23
5.49207E-03 2.07596E-23
5.62181E-03 1.97863E-23
5.75306E-03 1.88681E-23
5.88581E-03 1.80014E-23
6.02007E-03 1.71826E-23
6.15583E-03 1.64088E-23
6.29310E-03 1.56770E-23
6.43187E-03 1.49844E-23
6.57214E-03 1.43287E-23
6.71392E-03 1.37074E-23
6.85720E-03 1.31186E-23
7.00198E-03 1.25601E-23
7.14827E-03 1.20301E-23
7.29605E-03 1.15270E-23
7.44534E-03 1.10491E-23
7.59612E-03 1.05949E-23
7.97965E-03 9.55439E-24
8.37255E-03 8.63451E-24
8.77480E-03 7.81905E-24
9.18641E-03 7.09424E-24
9.60736E-03 6.44838E-24
1.00376E-02 5.87152E-24
1.04773E-02 5.35510E-24
1.09262E-02 4.89180E-24
1.13844E-02 4.47527E-24
1.18520E-02 4.10007E-24
1.23288E-02 3.76145E-24
1.28150E-02 3.45529E-24
1.33104E-02 3.17800E-24
1.38150E-02 2.92644E-24
1.43290E-02 2.69786E-24
1.48521E-02 2.48984E-24
1.53845E-02 2.30025E-24
1.59262E-02 2.12721E-24
1.64770E-02 1.96908E-24
1.70371E-02 1.82437E-24
1.76063E-02 1.69178E-24
1.81848E-02 1.57015E-24
1.87724E-02 1.45844E-24
1.93692E-02 1.35573E-24
1.99751E-02 1.26119E-24
2.05901E-02 1.17408E-24
2.12143E-02 1.09374E-24
2.18476E-02 1.01957E-24
2.24900E-02 9.51034E-25
2.31415E-02 8.87645E-25
2.38021E-02 8.28966E-25
2.44717E-02 7.74601E-25
2.51504E-02 7.24194E-25
2.58382E-02 6.77420E-25
2.65349E-02 6.33983E-25
2.72407E-02 5.93617E-25
2.79555E-02 5.56078E-25
2.86793E-02 5.21144E-25
2.94120E-02 4.88614E-25
3.01537E-02 4.58302E-25
3.09043E-02 4.30040E-25
3.16639E-02 4.03675E-25
3.24324E-02 3.79063E-25
3.32098E-02 3.56077E-25
3.39961E-02 3.34597E-25
3.47912E-02 3.14515E-25
3.55952E-02 2.95729E-25
3.64081E-02 2.78148E-25
3.72297E-02 2.61687E-25
3.80602E-02 2.46267E-25
3.88995E-02 2.31816E-25
3.97476E-02 2.18269E-25
4.06044E-02 2.05562E-25
4.14700E-02 1.93639E-25
4.23443E-02 1.82448E-25
4.32273E-02 1.71940E-25
4.41190E-02 1.62070E-25
4.50194E-02 1.52795E-25
4.59284E-02 1.44077E-25
4.68461E-02 1.35881E-25
4.87074E-02 1.20918E-25
5.06030E-02 1.07667E-25
5.25328E-02 9.59186E-26
5.44967E-02 8.54926E-26
5.64946E-02 7.62314E-26
5.85262E-02 6.79979E-26
6.05914E-02 6.06724E-26
6.26901E-02 5.41501E-26
6.48222E-02 4.83391E-26
6.69873E-02 4.31589E-26
6.91854E-02 3.85386E-26
7.14163E-02 3.44156E-26
7.36799E-02 3.07350E-26
7.59760E-02 2.74481E-26
7.83043E-02 2.45119E-26
8.06647E-02 2.18882E-26
8.30571E-02 1.95434E-26
8.54812E-02 1.74474E-26
8.79369E-02 1.55735E-26
9.04240E-02 1.38982E-26
9.29422E-02 1.24004E-26
9.54915E-02 1.10612E-26
9.80716E-02 9.86392E-27
1.00682E-01 8.79365E-27
1.03323E-01 7.83702E-27
1.05995E-01 6.98213E-27
1.08696E-01 6.21831E-27
1.11427E-01 5.53604E-27
1.14188E-01 4.92679E-27
1.16978E-01 4.38293E-27
1.19797E-01 3.89761E-27
1.22645E-01 3.46471E-27
1.25522E-01 3.07874E-27
1.28428E-01 2.73477E-27
1.31361E-01 2.42838E-27
1.34323E-01 2.15563E-27
1.37313E-01 1.91296E-27
1.40330E-01 1.69718E-27
1.43375E-01 1.50543E-27
1.46447E-01 1.33516E-27
1.49545E-01 1.18407E-27
1.52671E-01 1.05009E-27
1.55823E-01 9.31373E-28
1.59001E-01 8.26265E-28
1.62205E-01 7.33279E-28
1.65435E-01 6.51085E-28
1.68690E-01 5.78490E-28
1.71970E-01 5.14427E-28
1.75276E-01 4.57940E-28
1.78606E-01 4.08175E-28
1.81961E-01 3.64367E-28
1.85340E-01 3.25834E-28
1.88743E-01 2.91966E-28
1.92169E-01 2.62219E-28
1.95619E-01 2.36109E-28
1.99092E-01 2.13201E-28
2.02589E-01 1.93114E-28
2.06107E-01 1.75503E-28
2.09649E-01 1.60065E-28
2.13212E-01 1.46532E-28
2.16797E-01 1.34663E-28
2.20404E-01 1.24247E-28
2.24032E-01 1.15098E-28
2.27680E-01 1.07050E-28
2.31350E-01 9.99585E-29
2.35040E-01 9.36950E-29
2.38751E-01 8.81474E-29
2.42481E-01 8.32173E-29
2.46231E-01 7.88186E-29
2.50000E-01 7.48763E-29
2.53788E-01 7.13250E-29
2.57595E-01 6.81079E-29
2.61421E-01 6.51760E-29
2.65264E-01 6.24869E-29
2.69126E-01 6.00041E-29
2.73005E-01 5.76966E-29
2.76901E-01 5.55376E-29
2.80814E-01 5.35046E-29
2.84744E-01 5.15784E-29
2.88691E-01 4.97431E-29
2.92653E-01 4.79853E-29
2.96632E-01 4.62939E-29
3.00625E-01 4.46599E-29
3.04634E-01 4.30757E-29
3.08658E-01 4.15356E-29
3.12697E-01 4.00348E-29
3.16749E-01 3.85697E-29
3.20816E-01 3.71375E-29
3.24896E-01 3.57362E-29
3.28990E-01 3.43643E-29
3.33097E-01 3.30210E-29
3.37216E-01 3.17056E-29
3.41348E-01 3.04179E-29
3.45492E-01 2.91580E-29
3.49647E-01 2.79260E-29
3.53814E-01 2.67222E-29
3.57992E-01 2.55471E-29
3.62181E-01 2.44010E-29
3.66381E-01 2.32845E-29
3.70590E-01 2.21980E-29
3.74810E-01 2.11418E-29
3.79039E-01 2.01165E-29
3.83277E-01 1.91222E-29
3.87524E-01 1.81593E-29
3.91780E-01 1.72279E-29
3.96044E-01 1.63281E-29
4.00316E-01 1.54601E-29
4.04596E-01 1.46236E-29
4.08882E-01 1.38186E-29
4.13176E-01 1.30449E-29
4.17476E-01 1.23023E-29
4.21783E-01 1.15903E-29
4.26095E-01 1.09085E-29
4.30413E-01 1.02565E-29
4.34737E-01 9.63377E-30
4.39065E-01 9.03971E-30
4.43398E-01 8.47370E-30
4.47736E-01 7.93507E-30
4.52077E-01 7.42313E-30
4.56422E-01 6.93713E-30
4.60770E-01 6.47632E-30
4.65122E-01 6.03993E-30
4.69476E-01 5.62715E-30
4.73832E-01 5.23718E-30
4.78190E-01 4.86919E-30
4.82550E-01 4.52238E-30
4.86912E-01 4.19590E-30
4.91274E-01 3.88895E-30
4.95637E-01 3.60070E-30
5.00000E-01 3.33034E-30
5.04363E-01 3.07707E-30
5.08726E-01 2.84010E-30
5.13088E-01 2.61867E-30
5.17450E-01 2.41200E-30
5.21810E-01 2.21937E-30
5.26168E-01 2.04004E-30
5.30524E-01 1.87331E-30
5.34878E-01 1.71851E-30
5.39230E-01 1.57497E-30
5.43578E-01 1.44205E-30
5.47923E-01 1.31914E-30
5.52264E-01 1.20564E-30
5.56602E-01 1.10098E-30
5.60935E-01 1.00462E-30
5.65263E-01 9.16025E-31
5.69587E-01 8.34703E-31
5.73905E-01 7.60172E-31
5.78217E-01 6.91976E-31
5.82524E-01 6.29681E-31
5.86824E-01 5.72874E-31
5.91118E-01 5.21164E-31
5.95404E-01 4.74180E-31
5.99684E-01 4.31571E-31
6.03956E-01 3.93007E-31
6.08220E-01 3.58175E-31
6.12476E-01 3.26781E-31
6.16723E-01 2.98549E-31
6.20961E-01 2.73218E-31
6.25190E-01 2.50547E-31
6.29410E-01 2.30306E-31
6.33619E-01 2.12284E-31
6.37819E-01 1.96283E-31
6.42008E-01 1.82116E-31
6.46186E-01 1.69612E-31
6.50353E-01 1.58613E-31
6.54508E-01 1.48968E-31
6.58652E-01 1.40542E-31
6.62784E-01 1.33209E-31
6.66903E-01 1.26851E-31
6.71010E-01 1.21361E-31
6.75104E-01 1.16641E-31
6.79184E-01 1.12600E-31
6.83251E-01 1.09156E-31
6.87303E-01 1.06233E-31
6.91342E-01 1.03763E-31
6.95366E-01 1.01684E-31
6.99375E-01 9.99390E-32
7.03368E-01 9.84769E-32
7.07347E-01 9.72522E-32
7.11309E-01 9.62236E-32
7.15256E-01 9.53545E-32
7.19186E-01 9.46119E-32
7.23099E-01 9.39671E-32
7.26995E-01 9.33943E-32
7.30874E-01 9.28710E-32
7.34736E-01 9.23778E-32
7.38579E-01 9.18977E-32
7.42405E-01 9.14160E-32
7.46212E-01 9.09205E-32
7.50000E-01 9.04008E-32
7.53769E-01 8.98482E-32
7.57519E-01 8.92558E-32
7.61249E-01 8.86180E-32
7.64960E-01 8.79306E-32
7.68650E-01 8.71906E-32
7.72320E-01 8.63959E-32
7.75968E-01 8.55454E-32
7.79596E-01 8.46386E-32
7.83203E-01 8.36761E-32
7.86788E-01 8.26586E-32
7.90351E-01 8.15878E-32
7.93893E-01 8.04655E-32
7.97411E-01 7.92940E-32
8.00908E-01 7.80759E-32
8.04381E-01 7.68140E-32
8.07831E-01 7.55114E-32
8.11257E-01 7.41712E-32
8.14660E-01 7.27968E-32
8.18039E-01 7.13914E-32
8.21394E-01 6.99585E-32
8.24724E-01 6.85014E-32
8.28030E-01 6.70236E-32
8.31310E-01 6.55283E-32
8.34565E-01 6.40189E-32
8.37795E-01 6.24985E-32
8.40999E-01 6.09701E-32
8.44177E-01 5.94368E-32
8.47329E-01 5.79015E-32
8.50455E-01 5.63669E-32
8.53553E-01 5.48356E-32
8.56625E-01 5.33101E-32
8.59670E-01 5.17928E-32
8.62687E-01 5.02858E-32
8.65677E-01 4.87913E-32
8.68639E-01 4.73111E-32
8.71572E-01 4.58470E-32
8.74478E-01 4.44008E-32
8.77355E-01 4.29738E-32
8.80203E-01 4.15676E-32
8.83022E-01 4.01833E-32
8.85812E-01 3.88222E-32
8.88573E-01 3.74851E-32
8.91304E-01 3.61731E-32
8.94005E-01 3.48868E-32
8.96677E-01 3.36270E-32
8.99318E-01 3.23943E-32
9.01928E-01 3.11891E-32
9.04508E-01 3.00118E-32
9.07058E-01 2.88627E-32
9.09576E-01 2.77421E-32
9.12063E-01 2.66502E-32
9.14519E-01 2.55868E-32
9.16943E-01 2.45522E-32
9.19335E-01 2.35462E-32
9.21696E-01 2.25687E-32
9.24024E-01 2.16195E-32
9.26320E-01 2.06985E-32
9.28584E-01 1.98053E-32
9.30815E-01 1.89398E-32
9.33013E-01 1.81014E-32
9.35178E-01 1.72899E-32
9.37310E-01 1.65049E-32
9.39409E-01 1.57459E-32
9.41474E-01 1.50125E-32
9.43505E-01 1.43042E-32
9.45503E-01 1.36206E-32
9.47467E-01 1.29610E-32
9.49397E-01 1.23251E-32
9.51293E-01 1.17122E-32
9.53154E-01 1.11219E-32
9.54981E-01 1.05535E-32
9.56773E-01 1.00066E-32
9.58530E-01 9.48066E-33
9.60252E-01 8.97504E-33
9.61940E-01 8.48923E-33
9.63592E-01 8.02269E-33
9.65209E-01 7.57488E-33
9.66790E-01 7.14525E-33
9.68336E-01 6.73329E-33
9.69846E-01 6.33846E-33
9.71321E-01 5.96026E-33
9.72759E-01 5.59817E-33
9.74162E-01 5.25171E-33
9.75528E-01 4.92038E-33
9.76858E-01 4.60371E-33
9.78152E-01 4.30123E-33
9.79410E-01 4.01249E-33
9.80631E-01 3.73705E-33
9.81815E-01 3.47449E-33
9.82963E-01 3.22438E-33
9.84074E-01 2.98632E-33
9.85148E-01 2.75993E-33
9.86185E-01 2.54483E-33
9.87185E-01 2.34065E-33
9.88148E-01 2.14705E-33
9.89074E-01 1.96368E-33
9.89962E-01 1.79024E-33
9.90814E-01 1.62640E-33
9.91627E-01 1.47188E-33
9.92404E-01 1.32640E-33
9.93143E-01 1.18968E-33
9.93844E-01 1.06148E-33
9.94508E-01 9.41551E-34
9.95134E-01 8.29671E-34
9.95722E-01 7.25628E-34
9.96273E-01 6.29222E-34
9.96786E-01 5.40265E-34
9.97261E-01 4.58586E-34
9.97698E-01 3.84024E-34
9.98097E-01 3.16435E-34
9.98459E-01 2.55682E-34
9.98782E-01 2.01647E-34
9.99067E-01 1.54222E-34
9.99315E-01 1.13311E-34
9.99524E-01 7.88327E-35
9.99695E-01 5.07176E-35
9.99829E-01 2.89091E-35
9.99924E-01 1.33630E-35
9.99981E-01 4.04800E-36
1.00000E+00 9.45207E-37
