 #
 # Subroutine ELSEPA. Elastic scattering of electrons and positrons
 #                    by neutral atoms and positive ions
 #
 # Projectile: electron
 # Kinetic energy = 7.00000E+07 eV = 2.57245E+06 a.u.
 #
 # WARNING: High-energy factorization with free-atom DF screening.
 #          Absorption, polarization and exchange corrections are
 #          switched off.
 #          Phase shifts are calculated for the bare nucleus.
 #          Scattering amplitudes are not evaluated.
 #
 # Element: Te,  Z =  52,  atomic weight = 1.27600E+02 g/mol
 #
 # Nuclear model: Fermi distribution
 #                Average radius = 5.38684E-13 cm
 #                Skin thickness = 5.46000E-14 cm
 #
 # Number of electrons = 52
 #
 # Total elastic cross section = 5.52181E-18 cm**2 = 1.97187E-01 a0**2
 # 1st transport cross section = 1.07123E-24 cm**2 = 3.82544E-08 a0**2
 # 2nd transport cross section = 3.16841E-24 cm**2 = 1.13146E-07 a0**2
 #
 #
 # Differential cross section:                       MU=(1-COS(THETA))/2
 #
 #  THETA        MU          DCS          DCS        Sherman      error
 #  (deg)                 (cm**2/sr)   (a0**2/sr)    function
 #----------------------------------------------------------------------
0.00000E+00 2.23964E-10
7.61557E-13 2.23733E-10
1.18994E-12 2.23604E-10
1.71346E-12 2.23446E-10
2.33225E-12 2.23260E-10
3.04617E-12 2.23046E-10
3.85530E-12 2.22804E-10
4.75964E-12 2.22533E-10
5.75917E-12 2.22235E-10
6.85391E-12 2.21909E-10
8.04379E-12 2.21556E-10
9.32893E-12 2.21176E-10
1.07092E-11 2.20768E-10
1.21847E-11 2.20334E-10
1.37554E-11 2.19873E-10
1.54213E-11 2.19385E-10
1.71823E-11 2.18872E-10
1.90386E-11 2.18333E-10
2.09900E-11 2.17769E-10
2.30367E-11 2.17179E-10
2.51785E-11 2.16565E-10
2.74156E-11 2.15926E-10
2.97478E-11 2.15263E-10
3.21752E-11 2.14577E-10
3.46979E-11 2.13867E-10
3.73157E-11 2.13134E-10
4.00286E-11 2.12378E-10
4.28368E-11 2.11600E-10
4.57402E-11 2.10801E-10
4.87388E-11 2.09969E-10
5.18325E-11 2.09118E-10
5.50215E-11 2.08250E-10
5.83057E-11 2.07365E-10
6.16850E-11 2.06465E-10
6.51595E-11 2.05549E-10
6.87293E-11 2.04619E-10
7.23943E-11 2.03672E-10
7.61544E-11 2.02681E-10
1.18991E-10 1.92030E-10
1.71347E-10 1.80175E-10
2.33223E-10 1.67612E-10
3.04617E-10 1.54651E-10
3.85531E-10 1.41802E-10
4.75965E-10 1.29369E-10
5.75917E-10 1.17512E-10
6.85389E-10 1.06384E-10
8.04380E-10 9.61256E-11
9.32891E-10 8.67628E-11
1.07092E-09 7.82258E-11
1.21847E-09 7.05503E-11
1.37554E-09 6.36813E-11
1.54213E-09 5.75377E-11
1.71823E-09 5.20553E-11
1.90386E-09 4.71842E-11
2.09900E-09 4.28569E-11
2.30367E-09 3.89963E-11
2.51785E-09 3.55637E-11
2.74156E-09 3.25078E-11
2.97478E-09 2.97782E-11
3.21752E-09 2.73344E-11
3.46978E-09 2.51463E-11
3.73156E-09 2.31822E-11
4.00286E-09 2.14094E-11
4.28368E-09 1.98100E-11
4.57402E-09 1.83636E-11
4.87388E-09 1.69772E-11
5.18326E-09 1.57306E-11
5.50215E-09 1.46182E-11
5.83057E-09 1.36226E-11
6.16850E-09 1.27291E-11
6.51596E-09 1.19249E-11
6.87293E-09 1.11991E-11
7.23942E-09 1.05328E-11
7.61544E-09 9.83600E-12
1.18991E-08 5.38144E-12
1.71347E-08 3.14252E-12
2.33223E-08 1.93462E-12
3.04617E-08 1.24701E-12
3.85531E-08 8.44002E-13
4.75965E-08 5.95750E-13
5.75917E-08 4.35109E-13
6.85389E-08 3.26528E-13
8.04380E-08 2.50511E-13
9.32891E-08 1.95600E-13
1.07092E-07 1.54732E-13
1.21847E-07 1.23880E-13
1.37554E-07 1.00187E-13
1.54213E-07 8.17785E-14
1.71823E-07 6.73220E-14
1.90386E-07 5.58774E-14
2.09900E-07 4.67292E-14
2.30367E-07 3.93400E-14
2.51785E-07 3.33436E-14
2.74156E-07 2.84440E-14
2.97478E-07 2.44122E-14
3.21752E-07 2.10725E-14
3.46978E-07 1.82893E-14
3.73156E-07 1.59542E-14
4.00286E-07 1.39813E-14
4.28368E-07 1.23064E-14
4.57402E-07 1.08770E-14
4.87388E-07 9.64704E-15
5.18325E-07 8.59023E-15
5.50215E-07 7.67868E-15
5.83057E-07 6.88196E-15
6.16850E-07 6.18700E-15
6.51596E-07 5.58022E-15
6.87293E-07 5.04439E-15
7.23942E-07 4.57122E-15
7.61543E-07 4.15382E-15
1.18991E-06 1.77331E-15
1.71347E-06 8.76904E-16
2.33223E-06 4.80966E-16
3.04617E-06 2.85075E-16
3.85531E-06 1.79463E-16
4.75964E-06 1.18539E-16
5.75916E-06 8.14221E-17
6.85388E-06 5.77711E-17
8.04378E-06 4.21234E-17
9.32888E-06 3.14362E-17
1.07092E-05 2.39349E-17
1.21846E-05 1.85444E-17
1.37553E-05 1.45899E-17
1.54212E-05 1.16357E-17
1.71822E-05 9.39276E-18
1.90385E-05 7.66280E-18
2.09899E-05 6.31735E-18
2.30365E-05 5.25413E-18
2.51783E-05 4.40471E-18
2.74153E-05 3.71959E-18
2.97475E-05 3.16232E-18
3.21749E-05 2.70556E-18
3.46974E-05 2.32849E-18
3.73152E-05 2.01503E-18
4.00281E-05 1.75271E-18
4.28362E-05 1.53178E-18
4.57395E-05 1.34458E-18
4.87380E-05 1.18507E-18
5.18317E-05 1.04847E-18
5.50205E-05 9.30963E-19
5.83045E-05 8.29447E-19
6.16838E-05 7.41400E-19
6.51582E-05 6.64752E-19
6.87277E-05 5.97778E-19
7.23925E-05 5.39043E-19
7.61524E-05 4.87598E-19
9.21439E-05 3.33585E-19
1.09658E-04 2.35864E-19
1.28695E-04 1.71475E-19
1.49255E-04 1.27635E-19
1.71338E-04 9.69667E-20
1.94942E-04 7.49854E-20
2.20070E-04 5.89003E-20
2.46720E-04 4.69106E-20
2.74892E-04 3.78249E-20
3.04586E-04 3.08392E-20
3.35803E-04 2.53960E-20
3.68542E-04 2.11043E-20
4.02802E-04 1.76834E-20
4.38585E-04 1.49294E-20
4.75889E-04 1.26922E-20
5.14715E-04 1.08595E-20
5.55063E-04 9.34658E-21
5.96931E-04 8.08868E-21
6.40321E-04 7.03589E-21
6.85233E-04 6.14931E-21
7.31665E-04 5.39836E-21
7.79618E-04 4.75891E-21
8.29092E-04 4.21159E-21
8.80086E-04 3.74093E-21
9.32601E-04 3.33439E-21
9.86636E-04 2.98173E-21
1.04219E-03 2.67462E-21
1.09927E-03 2.40614E-21
1.15786E-03 2.17062E-21
1.21797E-03 1.96330E-21
1.27961E-03 1.78022E-21
1.34276E-03 1.61805E-21
1.40743E-03 1.47399E-21
1.47362E-03 1.34566E-21
1.54133E-03 1.23103E-21
1.61056E-03 1.12839E-21
1.68131E-03 1.03626E-21
1.75357E-03 9.53373E-22
1.82735E-03 8.78637E-22
1.90265E-03 8.11103E-22
1.97947E-03 7.49955E-22
2.05780E-03 6.94481E-22
2.13765E-03 6.44058E-22
2.21902E-03 5.98143E-22
2.30190E-03 5.56261E-22
2.38630E-03 5.17993E-22
2.47222E-03 4.82969E-22
2.55965E-03 4.50867E-22
2.64859E-03 4.21394E-22
2.73905E-03 3.94300E-22
2.83103E-03 3.69354E-22
2.92452E-03 3.46357E-22
3.01952E-03 3.25127E-22
3.11604E-03 3.05504E-22
3.21407E-03 2.87343E-22
3.31362E-03 2.70517E-22
3.41468E-03 2.54907E-22
3.51725E-03 2.40410E-22
3.62133E-03 2.26933E-22
3.72692E-03 2.14389E-22
3.83403E-03 2.02702E-22
3.94265E-03 1.91803E-22
4.05278E-03 1.81628E-22
4.16442E-03 1.72121E-22
4.27757E-03 1.63229E-22
4.39223E-03 1.54905E-22
4.50840E-03 1.47106E-22
4.62608E-03 1.39792E-22
4.74527E-03 1.32929E-22
4.86597E-03 1.26482E-22
4.98817E-03 1.20422E-22
5.11188E-03 1.14721E-22
5.23711E-03 1.09355E-22
5.36383E-03 1.04298E-22
5.49207E-03 9.95315E-23
5.62181E-03 9.50342E-23
5.75306E-03 9.07883E-23
5.88581E-03 8.67771E-23
6.02007E-03 8.29851E-23
6.15583E-03 7.93982E-23
6.29310E-03 7.60031E-23
6.43187E-03 7.27876E-23
6.57214E-03 6.97405E-23
6.71392E-03 6.68511E-23
6.85720E-03 6.41098E-23
7.00198E-03 6.15076E-23
7.14827E-03 5.90360E-23
7.29605E-03 5.66873E-23
7.44534E-03 5.44541E-23
7.59612E-03 5.23297E-23
7.97965E-03 4.74544E-23
8.37255E-03 4.31330E-23
8.77480E-03 3.92916E-23
9.18641E-03 3.58675E-23
9.60736E-03 3.28074E-23
1.00376E-02 3.00657E-23
1.04773E-02 2.76035E-23
1.09262E-02 2.53871E-23
1.13844E-02 2.33877E-23
1.18520E-02 2.15802E-23
1.23288E-02 1.99430E-23
1.28150E-02 1.84570E-23
1.33104E-02 1.71060E-23
1.38150E-02 1.58753E-23
1.43290E-02 1.47524E-23
1.48521E-02 1.37261E-23
1.53845E-02 1.27866E-23
1.59262E-02 1.19253E-23
1.64770E-02 1.11345E-23
1.70371E-02 1.04073E-23
1.76063E-02 9.73780E-24
1.81848E-02 9.12052E-24
1.87724E-02 8.55068E-24
1.93692E-02 8.02397E-24
1.99751E-02 7.53654E-24
2.05901E-02 7.08494E-24
2.12143E-02 6.66605E-24
2.18476E-02 6.27710E-24
2.24900E-02 5.91554E-24
2.31415E-02 5.57912E-24
2.38021E-02 5.26576E-24
2.44717E-02 4.97360E-24
2.51504E-02 4.70096E-24
2.58382E-02 4.44630E-24
2.65349E-02 4.20821E-24
2.72407E-02 3.98544E-24
2.79555E-02 3.77682E-24
2.86793E-02 3.58129E-24
2.94120E-02 3.39788E-24
3.01537E-02 3.22571E-24
3.09043E-02 3.06398E-24
3.16639E-02 2.91193E-24
3.24324E-02 2.76889E-24
3.32098E-02 2.63423E-24
3.39961E-02 2.50736E-24
3.47912E-02 2.38777E-24
3.55952E-02 2.27496E-24
3.64081E-02 2.16848E-24
3.72297E-02 2.06792E-24
3.80602E-02 1.97288E-24
3.88995E-02 1.88302E-24
3.97476E-02 1.79800E-24
4.06044E-02 1.71751E-24
4.14700E-02 1.64128E-24
4.23443E-02 1.56904E-24
4.32273E-02 1.50054E-24
4.41190E-02 1.43557E-24
4.50194E-02 1.37390E-24
4.59284E-02 1.31534E-24
4.68461E-02 1.25971E-24
4.87074E-02 1.15656E-24
5.06030E-02 1.06322E-24
5.25328E-02 9.78608E-25
5.44967E-02 9.01781E-25
5.64946E-02 8.31914E-25
5.85262E-02 7.68281E-25
6.05914E-02 7.10241E-25
6.26901E-02 6.57229E-25
6.48222E-02 6.08746E-25
6.69873E-02 5.64347E-25
6.91854E-02 5.23637E-25
7.14163E-02 4.86267E-25
7.36799E-02 4.51923E-25
7.59760E-02 4.20326E-25
7.83043E-02 3.91224E-25
8.06647E-02 3.64393E-25
8.30571E-02 3.39633E-25
8.54812E-02 3.16761E-25
8.79369E-02 2.95614E-25
9.04240E-02 2.76045E-25
9.29422E-02 2.57920E-25
9.54915E-02 2.41120E-25
9.80716E-02 2.25535E-25
1.00682E-01 2.11066E-25
1.03323E-01 1.97624E-25
1.05995E-01 1.85126E-25
1.08696E-01 1.73498E-25
1.11427E-01 1.62673E-25
1.14188E-01 1.52588E-25
1.16978E-01 1.43188E-25
1.19797E-01 1.34420E-25
1.22645E-01 1.26237E-25
1.25522E-01 1.18596E-25
1.28428E-01 1.11456E-25
1.31361E-01 1.04783E-25
1.34323E-01 9.85410E-26
1.37313E-01 9.27004E-26
1.40330E-01 8.72327E-26
1.43375E-01 8.21116E-26
1.46447E-01 7.73130E-26
1.49545E-01 7.28147E-26
1.52671E-01 6.85961E-26
1.55823E-01 6.46383E-26
1.59001E-01 6.09236E-26
1.62205E-01 5.74359E-26
1.65435E-01 5.41600E-26
1.68690E-01 5.10820E-26
1.71970E-01 4.81890E-26
1.75276E-01 4.54690E-26
1.78606E-01 4.29108E-26
1.81961E-01 4.05040E-26
1.85340E-01 3.82390E-26
1.88743E-01 3.61068E-26
1.92169E-01 3.40991E-26
1.95619E-01 3.22082E-26
1.99092E-01 3.04266E-26
2.02589E-01 2.87478E-26
2.06107E-01 2.71654E-26
2.09649E-01 2.56735E-26
2.13212E-01 2.42666E-26
2.16797E-01 2.29396E-26
2.20404E-01 2.16877E-26
2.24032E-01 2.05064E-26
2.27680E-01 1.93915E-26
2.31350E-01 1.83391E-26
2.35040E-01 1.73454E-26
2.38751E-01 1.64072E-26
2.42481E-01 1.55210E-26
2.46231E-01 1.46839E-26
2.50000E-01 1.38930E-26
2.53788E-01 1.31458E-26
2.57595E-01 1.24396E-26
2.61421E-01 1.17721E-26
2.65264E-01 1.11412E-26
2.69126E-01 1.05447E-26
2.73005E-01 9.98071E-27
2.76901E-01 9.44739E-27
2.80814E-01 8.94301E-27
2.84744E-01 8.46596E-27
2.88691E-01 8.01471E-27
2.92653E-01 7.58782E-27
2.96632E-01 7.18394E-27
3.00625E-01 6.80181E-27
3.04634E-01 6.44021E-27
3.08658E-01 6.09802E-27
3.12697E-01 5.77417E-27
3.16749E-01 5.46767E-27
3.20816E-01 5.17756E-27
3.24896E-01 4.90295E-27
3.28990E-01 4.64299E-27
3.33097E-01 4.39690E-27
3.37216E-01 4.16392E-27
3.41348E-01 3.94334E-27
3.45492E-01 3.73449E-27
3.49647E-01 3.53675E-27
3.53814E-01 3.34951E-27
3.57992E-01 3.17222E-27
3.62181E-01 3.00433E-27
3.66381E-01 2.84535E-27
3.70590E-01 2.69480E-27
3.74810E-01 2.55223E-27
3.79039E-01 2.41721E-27
3.83277E-01 2.28935E-27
3.87524E-01 2.16826E-27
3.91780E-01 2.05358E-27
3.96044E-01 1.94498E-27
4.00316E-01 1.84213E-27
4.04596E-01 1.74472E-27
4.08882E-01 1.65247E-27
4.13176E-01 1.56511E-27
4.17476E-01 1.48237E-27
4.21783E-01 1.40402E-27
4.26095E-01 1.32981E-27
4.30413E-01 1.25954E-27
4.34737E-01 1.19300E-27
4.39065E-01 1.12998E-27
4.43398E-01 1.07030E-27
4.47736E-01 1.01379E-27
4.52077E-01 9.60283E-28
4.56422E-01 9.09614E-28
4.60770E-01 8.61636E-28
4.65122E-01 8.16207E-28
4.69476E-01 7.73194E-28
4.73832E-01 7.32469E-28
4.78190E-01 6.93911E-28
4.82550E-01 6.57406E-28
4.86912E-01 6.22845E-28
4.91274E-01 5.90127E-28
4.95637E-01 5.59153E-28
5.00000E-01 5.29832E-28
5.04363E-01 5.02077E-28
5.08726E-01 4.75804E-28
5.13088E-01 4.50935E-28
5.17450E-01 4.27396E-28
5.21810E-01 4.05117E-28
5.26168E-01 3.84030E-28
5.30524E-01 3.64073E-28
5.34878E-01 3.45186E-28
5.39230E-01 3.27311E-28
5.43578E-01 3.10395E-28
5.47923E-01 2.94387E-28
5.52264E-01 2.79238E-28
5.56602E-01 2.64903E-28
5.60935E-01 2.51339E-28
5.65263E-01 2.38504E-28
5.69587E-01 2.26358E-28
5.73905E-01 2.14866E-28
5.78217E-01 2.03992E-28
5.82524E-01 1.93704E-28
5.86824E-01 1.83969E-28
5.91118E-01 1.74757E-28
5.95404E-01 1.66042E-28
5.99684E-01 1.57795E-28
6.03956E-01 1.49992E-28
6.08220E-01 1.42609E-28
6.12476E-01 1.35623E-28
6.16723E-01 1.29012E-28
6.20961E-01 1.22756E-28
6.25190E-01 1.16836E-28
6.29410E-01 1.11234E-28
6.33619E-01 1.05931E-28
6.37819E-01 1.00913E-28
6.42008E-01 9.61631E-29
6.46186E-01 9.16668E-29
6.50353E-01 8.74103E-29
6.54508E-01 8.33804E-29
6.58652E-01 7.95648E-29
6.62784E-01 7.59516E-29
6.66903E-01 7.25296E-29
6.71010E-01 6.92884E-29
6.75104E-01 6.62180E-29
6.79184E-01 6.33089E-29
6.83251E-01 6.05521E-29
6.87303E-01 5.79394E-29
6.91342E-01 5.54625E-29
6.95366E-01 5.31142E-29
6.99375E-01 5.08870E-29
7.03368E-01 4.87744E-29
7.07347E-01 4.67700E-29
7.11309E-01 4.48677E-29
7.15256E-01 4.30618E-29
7.19186E-01 4.13469E-29
7.23099E-01 3.97179E-29
7.26995E-01 3.81701E-29
7.30874E-01 3.66989E-29
7.34736E-01 3.53000E-29
7.38579E-01 3.39694E-29
7.42405E-01 3.27032E-29
7.46212E-01 3.14978E-29
7.50000E-01 3.03498E-29
7.53769E-01 2.92560E-29
7.57519E-01 2.82133E-29
7.61249E-01 2.72190E-29
7.64960E-01 2.62703E-29
7.68650E-01 2.53646E-29
7.72320E-01 2.44995E-29
7.75968E-01 2.36728E-29
7.79596E-01 2.28824E-29
7.83203E-01 2.21261E-29
7.86788E-01 2.14022E-29
7.90351E-01 2.07089E-29
7.93893E-01 2.00443E-29
7.97411E-01 1.94071E-29
8.00908E-01 1.87955E-29
8.04381E-01 1.82084E-29
8.07831E-01 1.76442E-29
8.11257E-01 1.71019E-29
8.14660E-01 1.65801E-29
8.18039E-01 1.60778E-29
8.21394E-01 1.55940E-29
8.24724E-01 1.51276E-29
8.28030E-01 1.46778E-29
8.31310E-01 1.42437E-29
8.34565E-01 1.38244E-29
8.37795E-01 1.34192E-29
8.40999E-01 1.30274E-29
8.44177E-01 1.26483E-29
8.47329E-01 1.22813E-29
8.50455E-01 1.19257E-29
8.53553E-01 1.15811E-29
8.56625E-01 1.12468E-29
8.59670E-01 1.09224E-29
8.62687E-01 1.06075E-29
8.65677E-01 1.03015E-29
8.68639E-01 1.00040E-29
8.71572E-01 9.71481E-30
8.74478E-01 9.43341E-30
8.77355E-01 9.15949E-30
8.80203E-01 8.89275E-30
8.83022E-01 8.63288E-30
8.85812E-01 8.37960E-30
8.88573E-01 8.13265E-30
8.91304E-01 7.89179E-30
8.94005E-01 7.65679E-30
8.96677E-01 7.42743E-30
8.99318E-01 7.20350E-30
9.01928E-01 6.98483E-30
9.04508E-01 6.77122E-30
9.07058E-01 6.56252E-30
9.09576E-01 6.35858E-30
9.12063E-01 6.15923E-30
9.14519E-01 5.96435E-30
9.16943E-01 5.77381E-30
9.19335E-01 5.58748E-30
9.21696E-01 5.40526E-30
9.24024E-01 5.22704E-30
9.26320E-01 5.05273E-30
9.28584E-01 4.88222E-30
9.30815E-01 4.71543E-30
9.33013E-01 4.55228E-30
9.35178E-01 4.39270E-30
9.37310E-01 4.23661E-30
9.39409E-01 4.08395E-30
9.41474E-01 3.93465E-30
9.43505E-01 3.78865E-30
9.45503E-01 3.64590E-30
9.47467E-01 3.50635E-30
9.49397E-01 3.36995E-30
9.51293E-01 3.23665E-30
9.53154E-01 3.10641E-30
9.54981E-01 2.97920E-30
9.56773E-01 2.85496E-30
9.58530E-01 2.73367E-30
9.60252E-01 2.61529E-30
9.61940E-01 2.49979E-30
9.63592E-01 2.38715E-30
9.65209E-01 2.27732E-30
9.66790E-01 2.17030E-30
9.68336E-01 2.06605E-30
9.69846E-01 1.96455E-30
9.71321E-01 1.86577E-30
9.72759E-01 1.76970E-30
9.74162E-01 1.67632E-30
9.75528E-01 1.58561E-30
9.76858E-01 1.49755E-30
9.78152E-01 1.41212E-30
9.79410E-01 1.32932E-30
9.80631E-01 1.24911E-30
9.81815E-01 1.17150E-30
9.82963E-01 1.09647E-30
9.84074E-01 1.02400E-30
9.85148E-01 9.54080E-31
9.86185E-01 8.86706E-31
9.87185E-01 8.21863E-31
9.88148E-01 7.59542E-31
9.89074E-01 6.99733E-31
9.89962E-01 6.42427E-31
9.90814E-01 5.87617E-31
9.91627E-01 5.35294E-31
9.92404E-01 4.85451E-31
9.93143E-01 4.38081E-31
9.93844E-01 3.93177E-31
9.94508E-01 3.50734E-31
9.95134E-01 3.10746E-31
9.95722E-01 2.73206E-31
9.96273E-01 2.38111E-31
9.96786E-01 2.05456E-31
9.97261E-01 1.75237E-31
9.97698E-01 1.47449E-31
9.98097E-01 1.22089E-31
9.98459E-01 9.91538E-32
9.98782E-01 7.86406E-32
9.99067E-01 6.05468E-32
9.99315E-01 4.48700E-32
9.99524E-01 3.16084E-32
9.99695E-01 2.07602E-32
9.99829E-01 1.23241E-32
9.99924E-01 6.29905E-33
9.99981E-01 2.68433E-33
1.00000E+00 1.47946E-33
