 #
 # Subroutine ELSEPA. Elastic scattering of electrons and positrons
 #                    by neutral atoms and positive ions
 #
 # Projectile: electron
 # Kinetic energy = 3.00000E+07 eV = 1.10248E+06 a.u.
 #
 # WARNING: High-energy factorization with free-atom DF screening.
 #          Absorption, polarization and exchange corrections are
 #          switched off.
 #          Phase shifts are calculated for the bare nucleus.
 #          Scattering amplitudes are not evaluated.
 #
 # Element: Te,  Z =  52,  atomic weight = 1.27600E+02 g/mol
 #
 # Nuclear model: Fermi distribution
 #                Average radius = 5.38684E-13 cm
 #                Skin thickness = 5.46000E-14 cm
 #
 # Number of electrons = 52
 #
 # Total elastic cross section = 5.52429E-18 cm**2 = 1.97276E-01 a0**2
 # 1st transport cross section = 5.60899E-24 cm**2 = 2.00301E-07 a0**2
 # 2nd transport cross section = 1.61840E-23 cm**2 = 5.77942E-07 a0**2
 #
 #
 # Differential cross section:                       MU=(1-COS(THETA))/2
 #
 #  THETA        MU          DCS          DCS        Sherman      error
 #  (deg)                 (cm**2/sr)   (a0**2/sr)    function
 #----------------------------------------------------------------------
0.00000E+00 4.19350E-11
7.61557E-13 4.19269E-11
1.18994E-12 4.19223E-11
1.71346E-12 4.19168E-11
2.33225E-12 4.19102E-11
3.04617E-12 4.19027E-11
3.85530E-12 4.18941E-11
4.75964E-12 4.18845E-11
5.75917E-12 4.18740E-11
6.85391E-12 4.18624E-11
8.04379E-12 4.18499E-11
9.32893E-12 4.18363E-11
1.07092E-11 4.18218E-11
1.21847E-11 4.18062E-11
1.37554E-11 4.17897E-11
1.54213E-11 4.17722E-11
1.71823E-11 4.17537E-11
1.90386E-11 4.17342E-11
2.09900E-11 4.17137E-11
2.30367E-11 4.16923E-11
2.51785E-11 4.16699E-11
2.74156E-11 4.16465E-11
2.97478E-11 4.16221E-11
3.21752E-11 4.15967E-11
3.46979E-11 4.15704E-11
3.73157E-11 4.15432E-11
4.00286E-11 4.15149E-11
4.28368E-11 4.14857E-11
4.57402E-11 4.14556E-11
4.87388E-11 4.14245E-11
5.18325E-11 4.13924E-11
5.50215E-11 4.13594E-11
5.83057E-11 4.13254E-11
6.16850E-11 4.12906E-11
6.51595E-11 4.12547E-11
6.87293E-11 4.12180E-11
7.23943E-11 4.11803E-11
7.61544E-11 4.11417E-11
1.18991E-10 4.07059E-11
1.71347E-10 4.01828E-11
2.33223E-10 3.95779E-11
3.04617E-10 3.88918E-11
3.85531E-10 3.81471E-11
4.75965E-10 3.73279E-11
5.75917E-10 3.64645E-11
6.85389E-10 3.55457E-11
8.04380E-10 3.45923E-11
9.32891E-10 3.36056E-11
1.07092E-09 3.25906E-11
1.21847E-09 3.15660E-11
1.37554E-09 3.05167E-11
1.54213E-09 2.94800E-11
1.71823E-09 2.84217E-11
1.90386E-09 2.73860E-11
2.09900E-09 2.63489E-11
2.30367E-09 2.53329E-11
2.51785E-09 2.43334E-11
2.74156E-09 2.33521E-11
2.97478E-09 2.24019E-11
3.21752E-09 2.14665E-11
3.46978E-09 2.05725E-11
3.73156E-09 1.96914E-11
4.00286E-09 1.88522E-11
4.28368E-09 1.80358E-11
4.57402E-09 1.72548E-11
4.87388E-09 1.65037E-11
5.18326E-09 1.57818E-11
5.50215E-09 1.50946E-11
5.83057E-09 1.44314E-11
6.16850E-09 1.38047E-11
6.51596E-09 1.31987E-11
6.87293E-09 1.26265E-11
7.23942E-09 1.20777E-11
7.61544E-09 1.15569E-11
1.18991E-08 7.55725E-12
1.71347E-08 5.13585E-12
2.33223E-08 3.62940E-12
3.04617E-08 2.62063E-12
3.85531E-08 1.98064E-12
4.75965E-08 1.49515E-12
5.75917E-08 1.16203E-12
6.85389E-08 9.05318E-13
8.04380E-08 7.16791E-13
9.32891E-08 5.71853E-13
1.07092E-07 4.60641E-13
1.21847E-07 3.75183E-13
1.37554E-07 3.07721E-13
1.54213E-07 2.55455E-13
1.71823E-07 2.13379E-13
1.90386E-07 1.80143E-13
2.09900E-07 1.53174E-13
2.30367E-07 1.31325E-13
2.51785E-07 1.13377E-13
2.74156E-07 9.85077E-14
2.97478E-07 8.61359E-14
3.21752E-07 7.56686E-14
3.46978E-07 6.68614E-14
3.73156E-07 5.92664E-14
4.00286E-07 5.27913E-14
4.28368E-07 4.71602E-14
4.57402E-07 4.22820E-14
4.87388E-07 3.80165E-14
5.18325E-07 3.42670E-14
5.50215E-07 3.09779E-14
5.83057E-07 2.80531E-14
6.16850E-07 2.54815E-14
6.51596E-07 2.31605E-14
6.87293E-07 2.11074E-14
7.23942E-07 1.92628E-14
7.61543E-07 1.76156E-14
1.18991E-06 7.84348E-15
1.71347E-06 3.97091E-15
2.33223E-06 2.22482E-15
3.04617E-06 1.34502E-15
3.85531E-06 8.61694E-16
4.75964E-06 5.77814E-16
5.75916E-06 4.01548E-16
6.85388E-06 2.87544E-16
8.04378E-06 2.11183E-16
9.32888E-06 1.58453E-16
1.07092E-05 1.21171E-16
1.21846E-05 9.42025E-17
1.37553E-05 7.43218E-17
1.54212E-05 5.94158E-17
1.71822E-05 4.80592E-17
1.90385E-05 3.92801E-17
2.09899E-05 3.24375E-17
2.30365E-05 2.70199E-17
2.51783E-05 2.26853E-17
2.74153E-05 1.91833E-17
2.97475E-05 1.63312E-17
3.21749E-05 1.39904E-17
3.46974E-05 1.20555E-17
3.73152E-05 1.04452E-17
4.00281E-05 9.09595E-18
4.28362E-05 7.95832E-18
4.57395E-05 6.99331E-18
4.87380E-05 6.17008E-18
5.18317E-05 5.46440E-18
5.50205E-05 4.85663E-18
5.83045E-05 4.33105E-18
6.16838E-05 3.87478E-18
6.51582E-05 3.47714E-18
6.87277E-05 3.12939E-18
7.23925E-05 2.82412E-18
7.61524E-05 2.55557E-18
9.21439E-05 1.75296E-18
1.09658E-04 1.24214E-18
1.28695E-04 9.04665E-19
1.49255E-04 6.74376E-19
1.71338E-04 5.12966E-19
1.94942E-04 3.97086E-19
2.20070E-04 3.12171E-19
2.46720E-04 2.48801E-19
2.74892E-04 2.00731E-19
3.04586E-04 1.63740E-19
3.35803E-04 1.34896E-19
3.68542E-04 1.12139E-19
4.02802E-04 9.39891E-20
4.38585E-04 7.93711E-20
4.75889E-04 6.74916E-20
5.14715E-04 5.77564E-20
5.55063E-04 4.97176E-20
5.96931E-04 4.30321E-20
6.40321E-04 3.74354E-20
6.85233E-04 3.27214E-20
7.31665E-04 2.87280E-20
7.79618E-04 2.53269E-20
8.29092E-04 2.24155E-20
8.80086E-04 1.99117E-20
9.32601E-04 1.77487E-20
9.86636E-04 1.58724E-20
1.04219E-03 1.42382E-20
1.09927E-03 1.28096E-20
1.15786E-03 1.15562E-20
1.21797E-03 1.04529E-20
1.27961E-03 9.47855E-21
1.34276E-03 8.61550E-21
1.40743E-03 7.84879E-21
1.47362E-03 7.16579E-21
1.54133E-03 6.55573E-21
1.61056E-03 6.00946E-21
1.68131E-03 5.51913E-21
1.75357E-03 5.07799E-21
1.82735E-03 4.68022E-21
1.90265E-03 4.32080E-21
1.97947E-03 3.99537E-21
2.05780E-03 3.70013E-21
2.13765E-03 3.43177E-21
2.21902E-03 3.18742E-21
2.30190E-03 2.96452E-21
2.38630E-03 2.76086E-21
2.47222E-03 2.57448E-21
2.55965E-03 2.40362E-21
2.64859E-03 2.24678E-21
2.73905E-03 2.10258E-21
2.83103E-03 1.96983E-21
2.92452E-03 1.84744E-21
3.01952E-03 1.73446E-21
3.11604E-03 1.63003E-21
3.21407E-03 1.53338E-21
3.31362E-03 1.44383E-21
3.41468E-03 1.36076E-21
3.51725E-03 1.28361E-21
3.62133E-03 1.21188E-21
3.72692E-03 1.14512E-21
3.83403E-03 1.08291E-21
3.94265E-03 1.02490E-21
4.05278E-03 9.70751E-22
4.16442E-03 9.20149E-22
4.27757E-03 8.72820E-22
4.39223E-03 8.28513E-22
4.50840E-03 7.86999E-22
4.62608E-03 7.48070E-22
4.74527E-03 7.11534E-22
4.86597E-03 6.77216E-22
4.98817E-03 6.44954E-22
5.11188E-03 6.14603E-22
5.23711E-03 5.86028E-22
5.36383E-03 5.59106E-22
5.49207E-03 5.33723E-22
5.62181E-03 5.09773E-22
5.75306E-03 4.87161E-22
5.88581E-03 4.65796E-22
6.02007E-03 4.45599E-22
6.15583E-03 4.26492E-22
6.29310E-03 4.08406E-22
6.43187E-03 3.91275E-22
6.57214E-03 3.75038E-22
6.71392E-03 3.59641E-22
6.85720E-03 3.45032E-22
7.00198E-03 3.31163E-22
7.14827E-03 3.17989E-22
7.29605E-03 3.05468E-22
7.44534E-03 2.93561E-22
7.59612E-03 2.82233E-22
7.97965E-03 2.56232E-22
8.37255E-03 2.33177E-22
8.77480E-03 2.12676E-22
9.18641E-03 1.94395E-22
9.60736E-03 1.78050E-22
1.00376E-02 1.63401E-22
1.04773E-02 1.50237E-22
1.09262E-02 1.38384E-22
1.13844E-02 1.27684E-22
1.18520E-02 1.18007E-22
1.23288E-02 1.09236E-22
1.28150E-02 1.01271E-22
1.33104E-02 9.40241E-23
1.38150E-02 8.74188E-23
1.43290E-02 8.13878E-23
1.48521E-02 7.58718E-23
1.53845E-02 7.08187E-23
1.59262E-02 6.61823E-23
1.64770E-02 6.19221E-23
1.70371E-02 5.80015E-23
1.76063E-02 5.43887E-23
1.81848E-02 5.10547E-23
1.87724E-02 4.79741E-23
1.93692E-02 4.51240E-23
1.99751E-02 4.24839E-23
2.05901E-02 4.00354E-23
2.12143E-02 3.77618E-23
2.18476E-02 3.56485E-23
2.24900E-02 3.36818E-23
2.31415E-02 3.18496E-23
2.38021E-02 3.01411E-23
2.44717E-02 2.85463E-23
2.51504E-02 2.70562E-23
2.58382E-02 2.56626E-23
2.65349E-02 2.43581E-23
2.72407E-02 2.31358E-23
2.79555E-02 2.19896E-23
2.86793E-02 2.09139E-23
2.94120E-02 1.99035E-23
3.01537E-02 1.89536E-23
3.09043E-02 1.80599E-23
3.16639E-02 1.72185E-23
3.24324E-02 1.64257E-23
3.32098E-02 1.56782E-23
3.39961E-02 1.49729E-23
3.47912E-02 1.43068E-23
3.55952E-02 1.36776E-23
3.64081E-02 1.30826E-23
3.72297E-02 1.25197E-23
3.80602E-02 1.19868E-23
3.88995E-02 1.14820E-23
3.97476E-02 1.10035E-23
4.06044E-02 1.05497E-23
4.14700E-02 1.01191E-23
4.23443E-02 9.71023E-24
4.32273E-02 9.32182E-24
4.41190E-02 8.95262E-24
4.50194E-02 8.60152E-24
4.59284E-02 8.26744E-24
4.68461E-02 7.94940E-24
4.87074E-02 7.35783E-24
5.06030E-02 6.82016E-24
5.25328E-02 6.33058E-24
5.44967E-02 5.88399E-24
5.64946E-02 5.47592E-24
5.85262E-02 5.10244E-24
6.05914E-02 4.76008E-24
6.26901E-02 4.44577E-24
6.48222E-02 4.15678E-24
6.69873E-02 3.89071E-24
6.91854E-02 3.64539E-24
7.14163E-02 3.41891E-24
7.36799E-02 3.20956E-24
7.59760E-02 3.01580E-24
7.83043E-02 2.83626E-24
8.06647E-02 2.66971E-24
8.30571E-02 2.51502E-24
8.54812E-02 2.37121E-24
8.79369E-02 2.23736E-24
9.04240E-02 2.11266E-24
9.29422E-02 1.99637E-24
9.54915E-02 1.88782E-24
9.80716E-02 1.78639E-24
1.00682E-01 1.69155E-24
1.03323E-01 1.60277E-24
1.05995E-01 1.51961E-24
1.08696E-01 1.44164E-24
1.11427E-01 1.36848E-24
1.14188E-01 1.29978E-24
1.16978E-01 1.23522E-24
1.19797E-01 1.17450E-24
1.22645E-01 1.11736E-24
1.25522E-01 1.06355E-24
1.28428E-01 1.01283E-24
1.31361E-01 9.65001E-25
1.34323E-01 9.19867E-25
1.37313E-01 8.77249E-25
1.40330E-01 8.36982E-25
1.43375E-01 7.98913E-25
1.46447E-01 7.62902E-25
1.49545E-01 7.28816E-25
1.52671E-01 6.96537E-25
1.55823E-01 6.65950E-25
1.59001E-01 6.36953E-25
1.62205E-01 6.09447E-25
1.65435E-01 5.83344E-25
1.68690E-01 5.58559E-25
1.71970E-01 5.35014E-25
1.75276E-01 5.12637E-25
1.78606E-01 4.91361E-25
1.81961E-01 4.71121E-25
1.85340E-01 4.51858E-25
1.88743E-01 4.33519E-25
1.92169E-01 4.16050E-25
1.95619E-01 3.99404E-25
1.99092E-01 3.83535E-25
2.02589E-01 3.68402E-25
2.06107E-01 3.53965E-25
2.09649E-01 3.40185E-25
2.13212E-01 3.27030E-25
2.16797E-01 3.14464E-25
2.20404E-01 3.02459E-25
2.24032E-01 2.90985E-25
2.27680E-01 2.80014E-25
2.31350E-01 2.69522E-25
2.35040E-01 2.59483E-25
2.38751E-01 2.49875E-25
2.42481E-01 2.40677E-25
2.46231E-01 2.31869E-25
2.50000E-01 2.23431E-25
2.53788E-01 2.15346E-25
2.57595E-01 2.07596E-25
2.61421E-01 2.00166E-25
2.65264E-01 1.93040E-25
2.69126E-01 1.86203E-25
2.73005E-01 1.79644E-25
2.76901E-01 1.73347E-25
2.80814E-01 1.67302E-25
2.84744E-01 1.61497E-25
2.88691E-01 1.55921E-25
2.92653E-01 1.50563E-25
2.96632E-01 1.45414E-25
3.00625E-01 1.40464E-25
3.04634E-01 1.35705E-25
3.08658E-01 1.31128E-25
3.12697E-01 1.26726E-25
3.16749E-01 1.22490E-25
3.20816E-01 1.18413E-25
3.24896E-01 1.14489E-25
3.28990E-01 1.10712E-25
3.33097E-01 1.07074E-25
3.37216E-01 1.03570E-25
3.41348E-01 1.00194E-25
3.45492E-01 9.69418E-26
3.49647E-01 9.38073E-26
3.53814E-01 9.07860E-26
3.57992E-01 8.78731E-26
3.62181E-01 8.50643E-26
3.66381E-01 8.23554E-26
3.70590E-01 7.97423E-26
3.74810E-01 7.72212E-26
3.79039E-01 7.47884E-26
3.83277E-01 7.24406E-26
3.87524E-01 7.01742E-26
3.91780E-01 6.79862E-26
3.96044E-01 6.58735E-26
4.00316E-01 6.38331E-26
4.04596E-01 6.18623E-26
4.08882E-01 5.99585E-26
4.13176E-01 5.81190E-26
4.17476E-01 5.63414E-26
4.21783E-01 5.46234E-26
4.26095E-01 5.29627E-26
4.30413E-01 5.13573E-26
4.34737E-01 4.98050E-26
4.39065E-01 4.83038E-26
4.43398E-01 4.68520E-26
4.47736E-01 4.54477E-26
4.52077E-01 4.40891E-26
4.56422E-01 4.27746E-26
4.60770E-01 4.15026E-26
4.65122E-01 4.02716E-26
4.69476E-01 3.90801E-26
4.73832E-01 3.79267E-26
4.78190E-01 3.68100E-26
4.82550E-01 3.57287E-26
4.86912E-01 3.46817E-26
4.91274E-01 3.36676E-26
4.95637E-01 3.26854E-26
5.00000E-01 3.17339E-26
5.04363E-01 3.08120E-26
5.08726E-01 2.99189E-26
5.13088E-01 2.90533E-26
5.17450E-01 2.82145E-26
5.21810E-01 2.74015E-26
5.26168E-01 2.66135E-26
5.30524E-01 2.58495E-26
5.34878E-01 2.51088E-26
5.39230E-01 2.43906E-26
5.43578E-01 2.36941E-26
5.47923E-01 2.30186E-26
5.52264E-01 2.23635E-26
5.56602E-01 2.17280E-26
5.60935E-01 2.11116E-26
5.65263E-01 2.05135E-26
5.69587E-01 1.99332E-26
5.73905E-01 1.93700E-26
5.78217E-01 1.88236E-26
5.82524E-01 1.82932E-26
5.86824E-01 1.77785E-26
5.91118E-01 1.72788E-26
5.95404E-01 1.67937E-26
5.99684E-01 1.63227E-26
6.03956E-01 1.58655E-26
6.08220E-01 1.54215E-26
6.12476E-01 1.49903E-26
6.16723E-01 1.45716E-26
6.20961E-01 1.41649E-26
6.25190E-01 1.37698E-26
6.29410E-01 1.33861E-26
6.33619E-01 1.30133E-26
6.37819E-01 1.26512E-26
6.42008E-01 1.22993E-26
6.46186E-01 1.19574E-26
6.50353E-01 1.16251E-26
6.54508E-01 1.13022E-26
6.58652E-01 1.09884E-26
6.62784E-01 1.06834E-26
6.66903E-01 1.03870E-26
6.71010E-01 1.00988E-26
6.75104E-01 9.81861E-27
6.79184E-01 9.54625E-27
6.83251E-01 9.28144E-27
6.87303E-01 9.02395E-27
6.91342E-01 8.77359E-27
6.95366E-01 8.53012E-27
6.99375E-01 8.29334E-27
7.03368E-01 8.06307E-27
7.07347E-01 7.83910E-27
7.11309E-01 7.62125E-27
7.15256E-01 7.40935E-27
7.19186E-01 7.20321E-27
7.23099E-01 7.00268E-27
7.26995E-01 6.80758E-27
7.30874E-01 6.61776E-27
7.34736E-01 6.43307E-27
7.38579E-01 6.25336E-27
7.42405E-01 6.07849E-27
7.46212E-01 5.90832E-27
7.50000E-01 5.74271E-27
7.53769E-01 5.58153E-27
7.57519E-01 5.42467E-27
7.61249E-01 5.27198E-27
7.64960E-01 5.12337E-27
7.68650E-01 4.97871E-27
7.72320E-01 4.83789E-27
7.75968E-01 4.70080E-27
7.79596E-01 4.56735E-27
7.83203E-01 4.43742E-27
7.86788E-01 4.31092E-27
7.90351E-01 4.18776E-27
7.93893E-01 4.06784E-27
7.97411E-01 3.95107E-27
8.00908E-01 3.83736E-27
8.04381E-01 3.72664E-27
8.07831E-01 3.61882E-27
8.11257E-01 3.51383E-27
8.14660E-01 3.41157E-27
8.18039E-01 3.31199E-27
8.21394E-01 3.21500E-27
8.24724E-01 3.12054E-27
8.28030E-01 3.02854E-27
8.31310E-01 2.93893E-27
8.34565E-01 2.85165E-27
8.37795E-01 2.76664E-27
8.40999E-01 2.68384E-27
8.44177E-01 2.60318E-27
8.47329E-01 2.52461E-27
8.50455E-01 2.44808E-27
8.53553E-01 2.37354E-27
8.56625E-01 2.30092E-27
8.59670E-01 2.23018E-27
8.62687E-01 2.16128E-27
8.65677E-01 2.09415E-27
8.68639E-01 2.02877E-27
8.71572E-01 1.96508E-27
8.74478E-01 1.90303E-27
8.77355E-01 1.84260E-27
8.80203E-01 1.78373E-27
8.83022E-01 1.72638E-27
8.85812E-01 1.67052E-27
8.88573E-01 1.61611E-27
8.91304E-01 1.56312E-27
8.94005E-01 1.51150E-27
8.96677E-01 1.46123E-27
8.99318E-01 1.41227E-27
9.01928E-01 1.36458E-27
9.04508E-01 1.31814E-27
9.07058E-01 1.27292E-27
9.09576E-01 1.22888E-27
9.12063E-01 1.18600E-27
9.14519E-01 1.14425E-27
9.16943E-01 1.10360E-27
9.19335E-01 1.06403E-27
9.21696E-01 1.02551E-27
9.24024E-01 9.88010E-28
9.26320E-01 9.51515E-28
9.28584E-01 9.15998E-28
9.30815E-01 8.81437E-28
9.33013E-01 8.47809E-28
9.35178E-01 8.15093E-28
9.37310E-01 7.83268E-28
9.39409E-01 7.52314E-28
9.41474E-01 7.22211E-28
9.43505E-01 6.92942E-28
9.45503E-01 6.64486E-28
9.47467E-01 6.36827E-28
9.49397E-01 6.09948E-28
9.51293E-01 5.83830E-28
9.53154E-01 5.58459E-28
9.54981E-01 5.33818E-28
9.56773E-01 5.09892E-28
9.58530E-01 4.86667E-28
9.60252E-01 4.64128E-28
9.61940E-01 4.42261E-28
9.63592E-01 4.21053E-28
9.65209E-01 4.00491E-28
9.66790E-01 3.80562E-28
9.68336E-01 3.61255E-28
9.69846E-01 3.42557E-28
9.71321E-01 3.24456E-28
9.72759E-01 3.06943E-28
9.74162E-01 2.90006E-28
9.75528E-01 2.73636E-28
9.76858E-01 2.57822E-28
9.78152E-01 2.42555E-28
9.79410E-01 2.27825E-28
9.80631E-01 2.13625E-28
9.81815E-01 1.99944E-28
9.82963E-01 1.86776E-28
9.84074E-01 1.74113E-28
9.85148E-01 1.61945E-28
9.86185E-01 1.50268E-28
9.87185E-01 1.39073E-28
9.88148E-01 1.28354E-28
9.89074E-01 1.18105E-28
9.89962E-01 1.08319E-28
9.90814E-01 9.89904E-29
9.91627E-01 9.01144E-29
9.92404E-01 8.16853E-29
9.93143E-01 7.36983E-29
9.93844E-01 6.61485E-29
9.94508E-01 5.90317E-29
9.95134E-01 5.23434E-29
9.95722E-01 4.60799E-29
9.96273E-01 4.02375E-29
9.96786E-01 3.48128E-29
9.97261E-01 2.98024E-29
9.97698E-01 2.52037E-29
9.98097E-01 2.10137E-29
9.98459E-01 1.72302E-29
9.98782E-01 1.38508E-29
9.99067E-01 1.08736E-29
9.99315E-01 8.29688E-30
9.99524E-01 6.11912E-30
9.99695E-01 4.33905E-30
9.99829E-01 2.95562E-30
9.99924E-01 1.96804E-30
9.99981E-01 1.37571E-30
1.00000E+00 1.17831E-30
